8,39742104024116E-5;
0,000182431342675792;
0,000215536716661397;
0,000180349020917956;
0,000110133914388045;
4,813915112218E-5;
1,78852998878999E-5;
1,21248466027461E-5;
6,48781873080671E-6;
-1,59532485189003E-5;
-5,03875601804893E-5;
-7,71398361320291E-5;
-8,19266118404678E-5;
-7,04927737417226E-5;
-6,40548316031782E-5;
-7,90972659127295E-5;
-0,000109192572282837;
-0,000125595838178376;
-9,80084033487388E-5;
-1,98083863980973E-5;
8,25638659939571E-5;
0,000164488726988512;
0,00019183471723689;
0,000162179905269943;
0,000103286991430719;
5,1193143999272E-5;
2,54688927221544E-5;
2,00770459775798E-5;
1,47682318056929E-5;
-4,49795420996398E-6;
-3,37149174545627E-5;
-5,6569550727567E-5;
-6,12404031344812E-5;
-5,24899300102658E-5;
-4,7855479604742E-5;
-6,09369419844422E-5;
-8,6413429773852E-5;
-0,000100584623665465;
-7,85143488520165E-5;
-1,4785243941552E-5;
6,88427909499494E-5;
0,00013572431868592;
0,000157878743751786;
0,000133352112899902;
8,48970901114944E-5;
4,19914024628498E-5;
2,06134720907043E-5;
1,58240441388193E-5;
1,11135252503016E-5;
-4,94098054363483E-6;
-2,90663221671055E-5;
-4,80022061399764E-5;
-5,21616189839363E-5;
-4,54182214062819E-5;
-4,19781755053263E-5;
-5,28320618294701E-5;
-7,36643383603863E-5;
-8,53425510180078E-5;
-6,77826782019454E-5;
-1,66566831923191E-5;
5,05058604728898E-5;
0,000104262932860095;
0,000122186375596557;
0,000102741398627277;
6,41567033056089E-5;
2,999137657591E-5;
1,2984084746247E-5;
9,18439483387317E-6;
5,45066659553926E-6;
-7,28471775061565E-6;
-2,64108272402201E-5;
-4,14156885524981E-5;
-4,47225417357301E-5;
-3,94060698104402E-5;
-3,66791533365702E-5;
-4,51895166732222E-5;
-6,15259056337334E-5;
-7,06569608535743E-5;
-5,68519641316176E-5;
-1,67586301139739E-5;
3,58873231594013E-5;
7,80996724508043E-5;
9,242345773875E-5;
7,76982179879545E-5;
4,81029874368721E-5;
2,19019673809925E-5;
8,93739309049864E-6;
6,1434599430926E-6;
3,38801723470871E-6;
-6,2933077600623E-6;
-2,08810992534702E-5;
-3,23156633280289E-5;
-3,48124870491952E-5;
-3,07328059572844E-5;
-2,86211378441541E-5;
-3,50380416133827E-5;
-4,73776879278902E-5;
-5,42587571894596E-5;
-4,38225065909186E-5;
-1,35825565584743E-5;
2,60996763074074E-5;
5,79753741265747E-5;
6,90069154148604E-5;
5,83661982750136E-5;
3,66390073032544E-5;
1,73939470009134E-5;
7,90648925648693E-6;
5,89573614816636E-6;
3,89570806949793E-6;
-3,1958191711631E-6;
-1,38829389348707E-5;
-2,22748056250393E-5;
-2,41706974967443E-5;
-2,13003332863717E-5;
-1,98504551925932E-5;
-2,45386635925385E-5;
-3,34701844221209E-5;
-3,8483537744917E-5;
-3,11333472774724E-5;
-9,69507361708337E-6;
1,84437737400678E-5;
4,10871970109355E-5;
4,90855914990267E-5;
4,19031745786763E-5;
2,69663356658713E-5;
1,37173297442655E-5;
7,17749579457583E-6;
5,75550593125132E-6;
4,32513717168178E-6;
-5,82860424456526E-7;
-7,93201627719809E-6;
-1,37321677890165E-5;
-1,51694961636984E-5;
-1,34204434540209E-5;
-1,26085453586353E-5;
-1,58399537981987E-5;
-2,18420993297377E-5;
-2,52671388033837E-5;
-2,06503678833843E-5;
-6,93155853098186E-6;
1,10969673292177E-5;
2,56454616919467E-5;
3,09527221506617E-5;
2,67373055849133E-5;
1,76747988075018E-5;
9,61695155429515E-6;
5,62485837739016E-6;
4,70656841714261E-6;
3,76816730289049E-6;
7,57608661212285E-7;
-3,68807157248821E-6;
-7,22771832269262E-6;
-8,24984772966645E-6;
-7,45140479411918E-6;
-7,16938482150836E-6;
-9,11578534803724E-6;
-1,25570322954407E-5;
-1,45783944173247E-5;
-1,22907563109536E-5;
-5,20719361946659E-6;
4,12040103812047E-6;
1,17034666519071E-5;
1,47019593518921E-5;
1,30533363942125E-5;
9,06423567456235E-6;
5,4963615375744E-6;
3,72486434607314E-6;
3,27294813649609E-6;
2,79222814555345E-6;
1,44676336138096E-6;
-4,698045581801E-7;
-2,03077158114245E-6;
-2,6550743593523E-6;
-2,6288252103514E-6;
-2,75985155755336E-6;
-3,56796640693985E-6;
-4,78104414062617E-6;
-5,56365701282982E-6;
-5,22588121355376E-6;
-3,76958159110142E-6;
-1,83552487407237E-6;
-1,72441573807085E-7;
8,67571006883273E-7;
1,40823244517983E-6;
1,74130780340921E-6;
2,00221692283202E-6;
2,13428965546085E-6;
2,09803160822056E-6;
2,02539730510577E-6;
2,1107592308187E-6;
2,35636982583582E-6;
2,49141812333371E-6;
2,22547890447589E-6;
1,61995638387272E-6;
1,15874894870795E-6;
1,32804319432404E-6;
2,01022533638782E-6;
2,28778054272861E-6;
9,98415077904508E-7;
-2,27062932151436E-6;
-6,55220383952092E-6;
-9,87188379957794E-6;
-1,04923307892019E-5;
-8,13347018729494E-6;
-4,19276567221479E-6;
-7,34791495566654E-7;
9,85454976625146E-7;
1,29435271222959E-6;
1,56085761519408E-6;
2,83928144633833E-6;
4,88829952805692E-6;
6,43854909537565E-6;
6,47380067850338E-6;
5,34499076722073E-6;
4,610329630344E-6;
5,59163018463558E-6;
7,84722976231756E-6;
9,00523375110247E-6;
6,36840046699627E-6;
-8,15752803583696E-7;
-1,02492314217524E-5;
-1,77063435568269E-5;
-1,97241349828981E-5;
-1,58934847424989E-5;
-9,00407337343849E-6;
-2,93181467137532E-6;
8,27544961990015E-8;
6,66792430524746E-7;
1,20465419966553E-6;
3,45551008988683E-6;
6,97797463941706E-6;
9,68510694843566E-6;
9,96730532412225E-6;
8,41229191256965E-6;
7,45502074778748E-6;
9,09818401165011E-6;
1,2635713077729E-5;
1,45122728222772E-5;
1,07834417923775E-5;
4,21492930642242E-7;
-1,31959237231131E-5;
-2,4019469319123E-5;
-2,71901564838262E-5;
-2,21946136217527E-5;
-1,29460378517134E-5;
-4,78018855196535E-6;
-7,30777742431805E-7;
7,12755819025736E-8;
8,25499967900481E-7;
3,85588091553333E-6;
8,56025839171778E-6;
1,21973985027683E-5;
1,26837513274056E-5;
1,07962252518344E-5;
9,66843208148305E-6;
1,18445200106413E-5;
1,64077207389982E-5;
1,88631620854701E-5;
1,42781881246924E-5;
1,40781674766953E-6;
-1,5516528386442E-5;
-2,90062235543089E-5;
-3,31023907655375E-5;
-2,72097667649816E-5;
-1,61239450757655E-5;
-6,32519394505701E-6;
-1,46790621755768E-6;
-4,93828726135062E-7;
4,32352944849472E-7;
4,07401430020635E-6;
9,70341315157224E-6;
1,40711745332696E-5;
1,47266341775444E-5;
1,25933247796784E-5;
1,13443326603189E-5;
1,39406926501184E-5;
1,93029335443054E-5;
2,22144182208817E-5;
1,69853572794228E-5;
2,20526796721965E-6;
-1,72420357287248E-5;
-3,27712193505919E-5;
-3,75873882637845E-5;
-3,10333572567123E-5;
-1,85725727518335E-5;
-7,54930431973277E-6;
-2,08520907838719E-6;
-9,79719457369052E-7;
7,89191384326907E-8;
4,18213128133691E-6;
1,05078631142057E-5;
1,54282964701953E-5;
1,62204338148091E-5;
1,39167107309462E-5;
1,25886379915735E-5;
1,55038311482005E-5;
2,14626255787227E-5;
2,47193792428705E-5;
1,90316522778181E-5;
2,86925848347147E-6;
-1,84095469594193E-5;
-3,54253525514943E-5;
-4,07802970930754E-5;
-3,3772974691398E-5;
-2,03454913490267E-5;
-8,45881760897583E-6;
-2,56665783089364E-6;
-1,36736348702982E-6;
-2,12993751646829E-7;
4,21796822646035E-6;
1,10366870947862E-5;
1,63509627043553E-5;
1,72487726881595E-5;
1,48383365038018E-5;
1,34657634621816E-5;
1,66084504225199E-5;
2,29838564023053E-5;
2,64863648573229E-5;
2,05001085350798E-5;
3,41536633164165E-6;
-1,90909289796068E-5;
-3,71101198255169E-5;
-4,2845257970717E-5;
-3,55662878935807E-5;
-2,15287605836122E-5;
-9,09442478588011E-6;
-2,93100671057448E-6;
-1,67171453815764E-6;
-4,54672426021591E-7;
4,18639108362745E-6;
1,13198591463757E-5;
1,68884549867175E-5;
1,78636242126016E-5;
1,54005820850308E-5;
1,40124121727579E-5;
1,73022030241808E-5;
2,39369437314636E-5;
2,75977559156815E-5;
2,14508553949359E-5;
3,8418485461893E-6;
-1,93685952989949E-5;
-3,79719250329944E-5;
-4,39486466348963E-5;
-3,6553623284727E-5;
-2,22130971851015E-5;
-9,50307588875368E-6;
-3,20338225681326E-6;
-1,91306187485349E-6;
-6,61720334473374E-7;
4,08812468670829E-6;
1,13827590193677E-5;
1,70853474222088E-5;
1,81132094975905E-5;
1,56437950380545E-5;
1,4264655899743E-5;
1,76323388611586E-5;
2,43911862596734E-5;
2,81349741498703E-5;
2,194539838741E-5;
4,15332275575232E-6;
-1,93124008308891E-5;
-3,81396776664934E-5;
-4,42375543923792E-5;
-3,68575160400698E-5;
-2,2474624423925E-5;
-9,71993116456507E-6;
-3,39837996544236E-6;
-2,10123970296004E-6;
-8,39391530475121E-7;
3,93324794978536E-6;
1,12584840743348E-5;
1,69926684328883E-5;
1,80520381060453E-5;
1,56152639418521E-5;
1,42658531690923E-5;
1,76525336260478E-5;
2,44206042081867E-5;
2,81831804391986E-5;
2,20503918279844E-5;
4,36373096007949E-6;
-1,89774099203306E-5;
-3,77232729761972E-5;
-4,38390510186414E-5;
-3,6582820086965E-5;
-2,23758299560683E-5;
-9,77011991270975E-6;
-3,52254745869093E-6;
-2,2387585448992E-6;
-9,86328566653205E-7;
3,73687838475239E-6;
1,0982983133336E-5;
1,66625194482138E-5;
1,77350917046995E-5;
1,53630189637718E-5;
1,40600983981129E-5;
1,74160320343798E-5;
2,40967913463685E-5;
2,78238714036565E-5;
2,18300665466221E-5;
4,48867904591704E-6;
-1,84116075232251E-5;
-3,68213312699557E-5;
-4,28679392698876E-5;
-3,58244694140985E-5;
-2,19733088137873E-5;
-9,67644294804175E-6;
-3,58201585947264E-6;
-2,32833704783459E-6;
-1,10197281715655E-6;
3,51190849065992E-6;
1,05879529600653E-5;
1,6141155097776E-5;
1,72111093863772E-5;
1,49293305059981E-5;
1,3685952452607E-5;
1,6969617513659E-5;
2,34831430789785E-5;
2,71293950806164E-5;
2,13410075741884E-5;
4,54046927853198E-6;
-1,76605863556204E-5;
-3,55256075476885E-5;
-4,14308518940834E-5;
-3,46712396343995E-5;
-2,13212033867631E-5;
-9,46247201857669E-6;
-3,58527471096251E-6;
-2,37537705957375E-6;
-1,18873713281281E-6;
3,26711560095778E-6;
1,00992410635886E-5;
1,54676818828776E-5;
1,6521538659006E-5;
1,43499082456235E-5;
1,31758868930878E-5;
1,63532985211668E-5;
2,26347936446929E-5;
2,61631025035178E-5;
2,06324859443377E-5;
4,52854828995254E-6;
-1,67670342111962E-5;
-3,39203705248005E-5;
-3,9625487126707E-5;
-3,3204774692923E-5;
-2,04699687138078E-5;
-9,15112267528162E-6;
-3,54160217363861E-6;
-2,38627918425149E-6;
-1,25023385593921E-6;
3,00906229917814E-6;
9,53887064747924E-6;
1,46761603411107E-5;
1,57026950158853E-5;
1,36560716431086E-5;
1,25584561692414E-5;
1,56025249362698E-5;
2,16008873530261E-5;
2,49816440765842E-5;
1,97486941450845E-5;
4,46159927293943E-6;
-1,57688235648252E-5;
-3,20806590923223E-5;
-3,75389198463222E-5;
-3,14978688440925E-5;
-1,94645982781815E-5;
-8,76280400875082E-6;
-3,45920592578702E-6;
-2,36663851646855E-6;
-1,28951747080704E-6;
2,74381499009337E-6;
8,92673690565695E-6;
1,37972744164605E-5;
1,47873534758072E-5;
1,28762359506917E-5;
1,18596978928508E-5;
1,47495295671364E-5;
2,04258830622475E-5;
2,3636218282493E-5;
1,87298434422272E-5;
4,34838166378754E-6;
-1,46984717675709E-5;
-3,00719967802263E-5;
-3,52474449877328E-5;
-2,9614288515011E-5;
-1,83443544836498E-5;
-8,31509841738096E-6;
-3,34491474095217E-6;
-2,32098831123975E-6;
-1,30888354728042E-6;
2,47712265744529E-6;
8,28080050918791E-6;
1,28585274994902E-5;
1,38048865958039E-5;
1,20359605093476E-5;
1,11030981022229E-5;
1,38232728198296E-5;
1,91495298413675E-5;
2,21725320294042E-5;
1,76120171549196E-5;
4,19734229206509E-6;
-1,35838382320644E-5;
-2,79513055300082E-5;
-3,2817567632813E-5;
-2,76096938234326E-5;
-1,71435308313055E-5;
-7,82338315865958E-6;
-3,20473341988249E-6;
-2,25335028732429E-6;
-1,31041499921205E-6;
2,21392813150971E-6;
7,61667392361183E-6;
1,18838761224174E-5;
1,2780914316069E-5;
1,11575677417715E-5;
1,0309193126755E-5;
1,28490869225693E-5;
1,78065892821858E-5;
2,06305791165165E-5;
1,64268640721282E-5;
4,01609910570179E-6;
-1,24488968647118E-5;
-2,57679074137729E-5;
-3,03070544016437E-5;
-2,55325463527195E-5;
-1,58921424268448E-5;
-7,30132924644343E-6;
-3,04423698627021E-6;
-2,16759722096606E-6;
-1,29631267160146E-6;
1,95811588327889E-6;
6,94749267847805E-6;
1,08937089016097E-5;
1,17372980736101E-5;
1,02601128694279E-5;
9,49554329882901E-6;
1,1848710920652E-5;
1,64269812972703E-5;
1,90448398448426E-5;
1,52017333141119E-5;
3,81135634417302E-6;
-1,13141333718103E-5;
-2,35641315393356E-5;
-2,77655781881606E-5;
-2,34246439658773E-5;
-1,46162432549922E-5;
-6,76101938387147E-6;
-2,86858624227152E-6;
-2,06742232911216E-6;
-1,26882667343179E-6;
1,71265693386214E-6;
6,28416002078777E-6;
9,90516271060265E-6;
1,06924947812391E-5;
9,35971419833891E-6;
8,67703911861428E-6;
1,08406453543779E-5;
1,50362188550576E-5;
1,74447729351119E-5;
1,39600833343658E-5;
3,58906054672579E-6;
-1,01966956685679E-5;
-2,13757234807557E-5;
-2,52352058740124E-5;
-2,13214672767288E-5;
-1,33380548234899E-5;
-6,21289235458616E-6;
-2,68238168630216E-6;
-1,95618761550426E-6;
-1,23008719652647E-6;
1,47984067825955E-6;
5,63568718859202E-6;
8,93254589974503E-6;
9,66196452461345E-6;
8,46991779712117E-6;
7,86624130088394E-6;
9,84052681943113E-6;
1,36558835973649E-5;
1,58553268624768E-5;
1,27218849235762E-5;
3,35454684163212E-6;
-9,11059356080476E-6;
-1,92323044237826E-5;
-2,27509339764001E-5;
-1,92526191926504E-5;
-1,20761990125855E-5;
-5,66579857293759E-6;
-2,48962503014306E-6;
-1,83686215479803E-6;
-1,18203586221153E-6;
1,26141380274792E-6;
5,00941399553528E-6;
7,98762405515736E-6;
8,65847898533654E-6;
7,60195011914013E-6;
7,07360553983321E-6;
8,86139690209933E-6;
1,23039666705799E-5;
1,42973219688394E-5;
1,150390481729E-5;
3,11256173827799E-6;
-8,0670017856029E-6;
-1,71579426260351E-5;
-2,03413413329679E-5;
-1,72423563074683E-5;
-1,08460184173434E-5;
-5,12712784977514E-6;
-2,29376682053856E-6;
-1,7120630155492E-6;
-1,12644952201706E-6;
1,05860801186088E-6;
4,41115431359209E-6;
7,07984479969749E-6;
7,69233771693161E-6;
6,76490920338252E-6;
6,30764199718289E-6;
7,91389396741438E-6;
1,09951592713971E-5;
1,27877893624657E-5;
1,03199590198041E-5;
2,86726031747794E-6;
-7,07459739355243E-6;
-1,51717406879273E-5;
-1,80292544591181E-5;
-1,53101456370183E-5;
-9,65992649743556E-6;
-4,60299127844861E-6;
-2,09778983714977E-6;
-1,58410921884786E-6;
-1,06497528802758E-6;
8,72186508576994E-7;
3,84532454577979E-6;
6,21654151845851E-6;
6,77160491999338E-6;
5,96594724699773E-6;
5,57508462842963E-6;
7,0064766837159E-6;
9,74115226217326E-6;
1,13403163813985E-5;
9,18116213499486E-6;
2,62221636590897E-6;
-6,13986432750887E-6;
-1,32883973690684E-5;
-1,5832370057553E-5;
-1,34711737617773E-5;
-8,52771354484443E-6;
-4,09833669419999E-6;
-1,90424169186431E-6;
-1,45503781932943E-6;
-9,99128753680152E-7;
7,0249550881224E-7;
3,31510939333601E-6;
5,40317467793914E-6;
5,90234032135127E-6;
5,21048329899233E-6;
4,88107834249742E-6;
6,14564560128739E-6;
8,55095804679692E-6;
9,96541140161657E-6;
8,09621021358192E-6;
2,38046607700612E-6;
-5,26734994914562E-6;
-1,15186960583354E-5;
-1,37638331430369E-5;
-1,17368234468125E-5;
-7,45682825971988E-6;
-3,61706649699104E-6;
-1,71526476392663E-6;
-1,32661664955504E-6;
-9,30284085328172E-7;
5,49544478292984E-7;
2,82262125085385E-6;
4,64356534146544E-6;
5,08885833596674E-6;
4,50241689097727E-6;
4,22937434466594E-6;
5,33618157362297E-6;
7,43122401410832E-6;
8,67086084252613E-6;
7,07165556474287E-6;
2,14456502708954E-6;
-4,45991135296827E-6;
-9,86998808390318E-6;
-1,1832771521419E-5;
-1,01151131496341E-5;
-6,45263918300495E-6;
-3,16213461431965E-6;
-1,53261691119188E-6;
-1,20035258220807E-6;
-8,59674377737288E-7;
4,13065140339601E-7;
2,36905779467556E-6;
3,9401136949955E-6;
4,33395126695534E-6;
3,84432739002495E-6;
3,62250945529847E-6;
4,58135971734325E-6;
6,38652059402377E-6;
7,46206261958511E-6;
6,11216307333148E-6;
1,9166173626961E-6;
0,00932971509795449;
0,0226213831892943;
0,0163626924513721;
0,00942448504405208;
0,012163873092784;
0,00702343166958574;
0,00563345941783603;
0,00458163254935418;
0,000839711707543467;
0,00103268493752635;
-0,00118848466601695;
-0,00198865865757819;
-0,00280349783385802;
-0,00455044367818641;
-0,00488426304110955;
-0,0058520175628204;
-0,00593579765880457;
-0,00617614599354796;
-0,00698835592839496;
-0,00791900522388797;
-0,0093519326181061;
-0,0102498391664213;
-0,0105269020258889;
-0,0101157505810009;
-0,00921232162633185;
-0,00843263583788315;
-0,00783162581492088;
-0,00745843060537171;
-0,00704877064229597;
-0,00641848969981451;
-0,00567387394604038;
-0,00495578191304135;
-0,00445007675240197;
-0,00408808460031;
-0,00366127757603904;
-0,00302332506223091;
-0,00222370082672502;
-0,00156751589464654;
-0,0013566774950907;
-0,00166375455905307;
-0,00222816149528685;
-0,00259274286353072;
-0,00241366860055613;
-0,00166314915746164;
-0,000628602077012533;
0,000314696683708528;
0,000962628281990281;
0,00137502287132403;
0,00176448430765448;
0,00227855859448397;
0,0028749546656959;
0,00338038250889723;
0,00366737232378193;
0,00378660504693144;
0,00392682894682639;
0,00423610698797197;
0,00465782586358836;
0,00493350408506417;
0,00478904330090318;
0,00416335159209019;
0,00329650253432817;
0,00259666854628086;
0,00237849303444132;
0,00266651372722425;
0,00320601914494469;
0,00366375775061662;
0,0038578791965359;
0,00384520582596382;
0,00381672571007293;
0,00390620840088232;
0,00407733231569438;
0,00417631679230174;
0,00409106205470039;
0,00386766501721873;
0,00367561094310427;
0,00364765122792486;
0,00373387515287848;
0,00370478155652738;
0,00331691365504174;
0,00251666786717542;
0,00151815561996078;
0,00068457605866225;
0,000295580342189147;
0,000372702881988975;
0,000689529244125454;
0,000950099213071658;
0,000993001781526225;
0,000868545427091669;
0,000745791080608439;
0,000742890808476676;
0,000827214542246891;
0,000862188343254939;
0,000748229642781539;
0,000525699082176351;
0,000343925315579403;
0,000319578436778143;
0,000407888118939206;
0,000405623327590793;
9,74696784915209E-5;
-0,000564237467676539;
-0,0107246011490158;
-0,0246936090627304;
-0,0187096178715385;
-0,0116252377615462;
-0,0139991674007134;
-0,0085369813644088;
-0,00701254993282294;
-0,00596956691373922;
-0,0022307905816095;
-0,00231736982632977;
9,02139399671693E-5;
0,00103553694658075;
0,00186579135326915;
0,00353356746891396;
0,00382487616381229;
0,00488910336597612;
0,00516831507467423;
0,00552354047205731;
0,00618015362563037;
0,00664255990210786;
0,00746003277103444;
0,00787578764637221;
0,00801927219835223;
0,00783845939428712;
0,00735320715911246;
0,0069502431785527;
0,00655940331983197;
0,00626797475389963;
0,00594105971830004;
0,00548451758755086;
0,00497879923953644;
0,00445937276094654;
0,00403533058521025;
0,00366848533949309;
0,00326401040118585;
0,0027641056726775;
0,00218350855291752;
0,0016720354344606;
0,00136753867717588;
0,0013064049807082;
0,00137117218768067;
0,00134692800425505;
0,00107550470612379;
0,000542219337666175;
-0,00011730292412174;
-0,000725177994676559;
-0,00118475816327927;
-0,00152282632323344;
-0,00184058005937235;
-0,00220811818174487;
-0,00260523971637603;
-0,00294894519004983;
-0,00317738163550039;
-0,00331485382500448;
-0,00345252138303751;
-0,00366254353675348;
-0,00391793173631626;
-0,00409281625933053;
-0,00405298620381435;
-0,00376786870650558;
-0,00335505063420563;
-0,00301590504530872;
-0,0029067998908505;
-0,00304115980625086;
-0,00329348789796692;
-0,00349833008594739;
-0,00356497926764717;
-0,00352195315900978;
-0,00346549895978787;
-0,00346359827843638;
-0,00349859453962356;
-0,00349309263109885;
-0,00339037558122047;
-0,00321404787165067;
-0,00305097518938094;
-0,0029697502037854;
-0,0029454644084199;
-0,00286041505594497;
-0,00258887861340649;
-0,00210269385482266;
-0,00151264152748551;
-0,00100789473520957;
-0,000735158677082669;
-0,000706801575571598;
-0,000804975189711432;
-0,000874439375461299;
-0,000830064905298182;
-0,000698360650925595;
-0,000569092983822708;
-0,000505462292097462;
-0,000490490314552635;
-0,000451366743249887;
-0,000334645036336348;
-0,000161888840878631;
-1,36493115567671E-5;
4,6688815387758E-5;
4,30142117046631E-5;
8,56921493569963E-5;
0,000292448446524714;
0,000690023701125051;
0,0011757923181592;
0,0015742976101998;
0,00174977893626526;
0,00169152765408867;
0,00150986773423378;
0,00134973901577018;
0,00129081144481039;
0,00130903105048754;
0,00132166120827876;
0,00127067759535718;
0,00117243578253245;
0,0010949970051537;
0,00108839161938233;
0,00113311563687978;
0,00115506277648329;
0,0010960663235092;
0,00097871709818718;
0,000905508725174322;
0,000985604375943685;
0,00124397377271542;
0,00158607049791879;
0,00185018839623834;
0,00191138756371853;
0,00176017155246868;
0,00149862110110108;
0,00126059655634474;
0,00111967464537644;
0,0010538203122415;
0,000986979388268994;
0,000865888028814558;
0,000705724142825783;
0,000569166270736721;
0,000502237705931614;
0,000487015357995536;
0,00045543188838013;
0,000354100908642631;
0,000203774853437183;
9,84596055587431E-5;
0,000138167661769512;
0,000345631392589739;
0,000634046816674181;
0,000855171550632339;
0,000894548903757739;
0,000743462061670874;
0,000495258704567787;
0,000272252417972543;
0,00014153862543544;
8,27904921458993E-5;
2,63602387156283E-5;
-7,65350633870487E-5;
-0,000212181613550147;
-0,00032355362439103;
-0,000368869339936477;
-0,000364674122591338;
-0,000373186169790993;
-0,000443194489399266;
-0,000555945375329223;
-0,000626037439884896;
-0,000562683727335727;
-0,000345454634008975;
-5,35058056469134E-5;
0,000178255382837918;
0,000245732097910991;
0,000140927210721654;
-5,15146233808159E-5;
-0,000220738429098506;
-0,000306051384668535;
-0,000326049980931147;
-0,000343995897285708;
-0,000404190897060855;
-0,000494310505312737;
-0,000562839601021756;
-0,000572094336863943;
-0,000537161992217732;
-0,000514393204951588;
-0,000547946371490092;
-0,000620929010829975;
-0,000656285770587613;
-0,000572164401728402;
-0,000350251049388611;
-6,20449647425048E-5;
0,000170767671775498;
0,000254372795803333;
0,000181596774049092;
2,86840901435424E-5;
-0,000104590594432699;
-0,000163652628466266;
-0,000165260879771436;
-0,000166297979325853;
-0,000206558106989743;
-0,000274943848377209;
-0,000325184099668484;
-0,00032345675637061;
-0,000283298876246549;
-0,000255227040689781;
-0,000278781912480468;
-0,000338773586908534;
-0,000366148879614552;
-0,000287620365723114;
-8,68143056013776E-5;
0,000172303350034843;
0,000380955480998023;
0,000455365833491911;
0,000389221268005637;
0,000250696529262437;
0,000128911761251802;
7,25929662706233E-5;
6,68201721343727E-5;
6,09257026196595E-5;
1,95104927955865E-5;
-4,74742380144181E-5;
-9,87782889184187E-5;
-0,000104266506350526;
-7,59518835244488E-5;
-5,87115904043697E-5;
-8,76292709668479E-5;
-0,000149144263812093;
-0,000181887079469956;
-0,000120787552648165;
4,86769224342224E-5;
0,00026977649420382;
0,000446111601136218;
0,000503511996566432;
0,000436463685687412;
0,000305386309621518;
0,000189178393026873;
0,000130951298793576;
0,000117524321849835;
0,000104146102407647;
5,95865168026286E-5;
-7,33080850499223E-6;
-6,01802539983848E-5;
-7,23743539402686E-5;
-5,45032992067826E-5;
-4,61032529522823E-5;
-7,80502410358303E-5;
-0,000138375068317347;
-0,000173058564780092;
-0,000124879676634196;
1,88957284526132E-5;
0,000208385470800244;
0,000358912701606227;
0,000405385915530513;
0,000343003943198885;
0,000224786257393587;
0,000119901756385302;
6,61084636565787E-5;
5,18433975930342E-5;
3,79260709834111E-5;
-2,96117941245671E-6;
-6,30946232129222E-5;
-0,000110640962689001;
-0,000122392220218187;
-0,00010761853017873;
-0,000100837045666728;
-0,000128978426323974;
-0,000181601011421092;
-0,000211639863891875;
-0,000169289461122825;
-4,35126177584064E-5;
0,000122246910399875;
0,00025433423221746;
0,000296182737067308;
0,000243641663780579;
0,00014275524148653;
5,35362820111302E-5;
8,70680930312143E-6;
-1,78190815221967E-6;
-1,1886878546177E-5;
-4,52616222503353E-5;
-9,5219929035227E-5;
-0,000134236747150634;
-0,000142270835756395;
-0,000127354331621162;
-0,000119304383004879;
-0,000141359715699112;
-0,000184507728763562;
-0,000208183415568245;
-0,000169505304164887;
-5,90114129200854E-5;
8,5877517929961E-5;
0,000201802854909294;
0,000240156237668576;
0,000197395447551338;
0,000113064843948804;
3,86511826903106E-5;
2,19522346311664E-6;
-4,93070638394124E-6;
-1,18118055396527E-5;
-3,86842619608667E-5;
-7,98189642044892E-5;
-0,000111686852231691;
-0,000117178459165239;
-0,000103164362437367;
-9,50872563902443E-5;
-0,000112750695192043;
-0,000148460151497409;
-0,000167669521555262;
-0,000133904349581023;
-3,9148704766635E-5;
8,47687194241182E-5;
0,000184032770861004;
0,000217407266230299;
0,000181917515592458;
0,000111101834382241;
4,85723483207573E-5;
1,80529127725703E-5;
1,22373521284792E-5;
6,54600098465443E-6;
-1,60978191939519E-5;
-5,08432177276556E-5;
-7,78408686475927E-5;
-8,26775376371184E-5;
-7,11470016089886E-5;
-6,46574867006068E-5;
-7,98463740985897E-5;
-0,00011022995459199;
-0,00012679656288564;
-9,89591274134737E-5;
-2,00249569983763E-5;
8,33214465246309E-5;
0,00016603432716238;
0,000193646877350844;
0,00016370387492379;
0,000104232052459096;
5,16219041213637E-5;
2,56412784939232E-5;
2,01964352754791E-5;
1,48350531772784E-5;
-4,62774717199262E-6;
-3,41466544492835E-5;
-5,72402203673249E-5;
-6,19613979688427E-5;
-5,31196896614928E-5;
-4,84375077188613E-5;
-6,16624166555201E-5;
-8,74194413112518E-5;
-0,000101751005677745;
-7,94426108061135E-5;
-1,50080910257427E-5;
6,95580936017526E-5;
0,000137200537174235;
0,000159615679413111;
0,000134816785971728;
8,58094827502972E-5;
4,24104560547175E-5;
2,07876083717238E-5;
1,59477389463031E-5;
1,11868929316111E-5;
-5,0562496979655E-6;
-2,94715412505599E-5;
-4,8637561686036E-5;
-5,28469968577203E-5;
-4,60183166391909E-5;
-4,25345072396464E-5;
-5,35273200021968E-5;
-7,46296929040631E-5;
-8,64635750317E-5;
-6,86790614016576E-5;
-1,6881955186477E-5;
5,11750609328249E-5;
0,000105659453447555;
0,000123835092490669;
0,000104135261996326;
6,50286707546679E-5;
3,03964303460748E-5;
1,31573896912251E-5;
9,31014549083E-6;
5,52870407123009E-6;
-7,38591466644522E-6;
-2,67877663971906E-5;
-4,20121132393399E-5;
-4,5368065291367E-5;
-3,99725869583197E-5;
-3,72059164382895E-5;
-4,58494793674943E-5;
-6,24433998262024E-5;
-7,17240290674503E-5;
-5,77090092822973E-5;
-1,69830262162248E-5;
3,65079278847004E-5;
7,94090432706638E-5;
9,39743656067596E-5;
7,90126551625657E-5;
4,89286079335495E-5;
2,22896049814844E-5;
9,10768850655966E-6;
6,269324376766E-6;
3,46905664448624E-6;
-6,38104284913104E-6;
-2,12287157665907E-5;
-3,28707151387852E-5;
-3,54152030739336E-5;
-3,12629587302286E-5;
-2,91155182495931E-5;
-3,56589567505556E-5;
-4,82419623912427E-5;
-5,52654253707964E-5;
-4,46344971046197E-5;
-1,38032785796486E-5;
2,66703387480008E-5;
5,91926420199573E-5;
7,04534134296595E-5;
5,95951402355102E-5;
3,74139727873178E-5;
1,77615336535814E-5;
8,07196776303904E-6;
6,02005793178605E-6;
3,97828004979289E-6;
-3,2708243289086E-6;
-1,42008073166656E-5;
-2,27870561536107E-5;
-2,47287617708749E-5;
-2,17923202602826E-5;
-2,03105638302493E-5;
-2,51179474457871E-5;
-3,42775092963744E-5;
-3,94252568213092E-5;
-3,18961137160542E-5;
-9,90979656688793E-6;
1,89641256926699E-5;
4,22095732575533E-5;
5,04236718400821E-5;
4,30427731578982E-5;
2,76877614397647E-5;
1,40629337122798E-5;
7,33669211620044E-6;
5,87689712703811E-6;
4,40796573550105E-6;
-6,45960281773402E-7;
-8,22023491360522E-6;
-1,42010561463875E-5;
-1,56820250233744E-5;
-1,38733159038072E-5;
-1,30332948366065E-5;
-1,63760375308332E-5;
-2,25901550420607E-5;
-2,61410127519753E-5;
-2,13610990512921E-5;
-7,13838530126606E-6;
1,15674592781106E-5;
2,66720100700191E-5;
3,21806123736585E-5;
2,77856286935489E-5;
1,83410308958056E-5;
9,93925282191809E-6;
5,77661254526224E-6;
4,82388273529701E-6;
3,85015348095418E-6;
7,0553127449567E-7;
-3,9471710360406E-6;
-7,65342006813359E-6;
-8,71676571446849E-6;
-7,86493581435028E-6;
-7,55837570629058E-6;
-9,6079724778742E-6;
-1,32447235900829E-5;
-1,53829586244476E-5;
-1,2947818685341E-5;
-5,40461374945835E-6;
4,54216765250753E-6;
1,26348114349013E-5;
1,58197764386664E-5;
1,40100852798981E-5;
9,67467570313028E-6;
5,79457384803287E-6;
3,86829286618367E-6;
3,38526437799726E-6;
2,87244198460757E-6;
1,40478526284192E-6;
-7,0067093844745E-7;
-2,41407447364518E-6;
-3,07699301705497E-6;
-3,00340218592181E-6;
-3,11326884949641E-6;
-4,01630648327356E-6;
-5,40831350022719E-6;
-6,2986653238515E-6;
-5,82865686359592E-6;
-3,95643734777983E-6;
-1,46080255062728E-6;
6,65619767451493E-7;
1,8770161461251E-6;
2,27447934996681E-6;
2,29625038491509E-6;
2,27601606490723E-6;
2,26875643026575E-6;
2,20463305235978E-6;
2,10306875663698E-6;
2,07794276947573E-6;
2,15257042123019E-6;
2,14923177784497E-6;
1,84739011844226E-6;
1,28344269721476E-6;
8,40238478468295E-7;
9,2288295512664E-7;
1,4425660177895E-6;
1,62154747652665E-6;
4,49686535009129E-7;
-2,44607150879892E-6;
0,00932721163587504;
0,0226206056956804;
0,0163631490163547;
0,00942574065517771;
0,0121656995080081;
0,00702568199239762;
0,00563592766778102;
0,00458410475357544;
0,00084213544397631;
0,00103520706130435;
-0,0011857293157707;
-0,00198581686573074;
-0,00280099901623366;
-0,00454863608014615;
-0,00488299933843557;
-0,00585067223959508;
-0,00593387962644221;
-0,00617408217910018;
-0,00698770391003917;
-0,00792168275914073;
-0,00935884991687156;
-0,0102599337948481;
-0,010537420790105;
-0,0101237238565173;
-0,00921622105789935;
-0,00843300311476862;
-0,0078302359447808;
-0,00745671098366078;
-0,00704677779901255;
-0,00641523884637789;
-0,00566862964157185;
-0,00494906748284149;
-0,0044434097606436;
-0,00408261973435071;
-0,00365662305682304;
-0,00301779200615108;
-0,00221605045063607;
-0,00155885106812317;
-0,00135073712479756;
-0,00166497523058984;
-0,00223867383948262;
-0,00261050201620931;
-0,00243324621168053;
-0,00167876789065615;
-0,000637283039379996;
0,000312091727349042;
0,000963038534018659;
0,00137602700430615;
0,00176602402587229;
0,00228230694211329;
0,00288214059140001;
0,00339017635412907;
0,00367736836001251;
0,00379499046645851;
0,00393419469455454;
0,00424500832498436;
0,00467011064114965;
0,00494752033591529;
0,00479927970869716;
0,00416332500219482;
0,00328308813156046;
0,00257270084027602;
0,00235155962794652;
0,00264465920481764;
0,00319339554932876;
0,00365925018287744;
0,00385739653944238;
0,00384553071062338;
0,00381779983339085;
0,00391025758311158;
0,00408598197342849;
0,00418849387760797;
0,00410365268306963;
0,00387833169885438;
0,00368510275918647;
0,0036592121324169;
0,00374983694369069;
0,0037230570364887;
0,00333058681791073;
0,00251763374817776;
0,00150249884928109;
0,000655747849466755;
0,000262864273185404;
0,000345925329486371;
0,000673765947728293;
0,000944041553670406;
0,000991756818259322;
0,00086827669180673;
0,000746441529621189;
0,000747117424401333;
0,000836952036824018;
0,000876176294423799;
0,000762806767998761;
0,000538122359436822;
0,000355065197337294;
0,000333208730235948;
0,000426712685293883;
0,000427221229053233;
0,000113848285935116;
-0,000562425900569024;
-0,0107418805957873;
-0,0247260652398018;
-0,0187466835604435;
-0,0116557370118627;
-0,0140173230765007;
-0,00854424339635429;
-0,00701441030871967;
-0,00597032418244306;
-0,00223049951891954;
-0,00231305036111237;
0,000100728327808623;
0,00105084803051351;
0,00188183293845995;
0,0035472966331083;
0,00383725223170656;
0,00490428938741681;
0,00518928793812324;
0,00554763530258471;
0,0061985914497387;
0,00664508561428228;
0,00744167512379841;
0,00784078889728868;
0,00797911960925955;
0,00780529720094153;
0,00733331763261827;
0,00694208094911931;
0,0065570557484989;
0,00626681936074091;
0,00594104484971376;
0,0054888512938606;
0,00498981165021171;
0,00447557135478761;
0,00405236943269876;
0,00368311445132096;
0,00327724955708472;
0,00278038387801923;
0,00220598889527633;
0,00169788784290261;
0,00138745230043222;
0,00130951144391258;
0,00135219472801441;
0,00131031924670732;
0,00103335442213908;
0,000507306895530258;
-0,000138361765429532;
-0,00073398433544559;
-0,00118748991713778;
-0,00152430957376946;
-0,00184086265829549;
-0,00220384701684591;
-0,00259398052442578;
-0,00293224702056205;
-0,00315976131786442;
-0,00329968767990571;
-0,00343875380772221;
-0,00364558662105987;
-0,00389451159504056;
-0,00406585986559075;
-0,00403211552601906;
-0,00376431018766717;
-0,00337426326224233;
-0,00305332713282835;
-0,00295001357664504;
-0,00307703867475149;
-0,00331523131892101;
-0,00350756097180963;
-0,00356800699813578;
-0,0035237038027668;
-0,00346601608527055;
-0,00345945526657497;
-0,00348730436072686;
-0,00347622849705456;
-0,00337253167224577;
-0,00319865743732337;
-0,0030369679550511;
-0,0029524712960896;
-0,00292159392314106;
-0,00283291834457279;
-0,00256749943380658;
-0,00209879778829207;
-0,00153176375691842;
-0,00104545071327404;
-0,000778636835228043;
-0,000742974667541933;
-0,000826984918292804;
-0,000883901899681791;
-0,000833307271470729;
-0,000700320795663877;
-0,000569809899879695;
-0,000501496876073475;
-0,000479346604021919;
-0,000434614739449542;
-0,000316876894744713;
-0,000146535828751282;
3,55600381450223E-7;
6,39894893755559E-5;
6,69216180298572E-5;
0,0001132520626835;
0,000313955599164959;
0,00069415878615639;
0,00115703401563051;
0,00153718102441004;
0,00170671187735281;
0,00165563060356897;
0,00148794922123452;
0,00134021330690971;
0,00128742924573555;
0,00130691643690958;
0,00132077990196566;
0,00127442987564089;
0,00118328965562147;
0,00111140848584288;
0,00110583697276541;
0,00114821485912258;
0,00116886469929476;
0,00111313867278203;
0,00100231598631556;
0,000932732303652282;
0,00100691952417575;
0,00124826214085676;
0,00156790003286898;
0,00181398514001416;
0,00186929188057141;
0,00172502491039273;
0,00147709293691742;
0,00125115081821101;
0,00111621844461841;
0,00105160063964116;
0,000985966710692283;
0,000869401368681861;
0,000716173017406863;
0,000585051377538834;
0,000519158292499322;
0,000501683211679494;
0,000468865401275871;
0,000370738227797456;
0,000226779549328346;
0,000125015955025524;
0,000159024138047736;
0,000349997331077549;
0,000616641467217738;
0,000820263769033114;
0,000853878557145859;
0,000709451437494792;
0,000474365292074008;
0,000263005117973103;
0,000138064447029681;
8,05085046302229E-5;
2,52455785978566E-5;
-7,32790107043898E-5;
-0,000202228585932937;
-0,000308343315434612;
-0,000352635643058918;
-0,000350580861082015;
-0,000360255189284925;
-0,000427160092300255;
-0,000533766786763703;
-0,000600417279770939;
-0,000542504338364625;
-0,000341077509299731;
-7,00104452674911E-5;
0,000144942829440441;
0,000206845522359174;
0,000108358427698799;
-7,15780997531405E-5;
-0,000229691019873475;
-0,000309496297942418;
-0,000328357450976613;
-0,000345186278292971;
-0,000401203581091859;
-0,000484922073950104;
-0,000548418564061403;
-0,000556673437484061;
-0,000523755167551135;
-0,000502070150673205;
-0,000532647261923746;
-0,000599759458014859;
-0,000631814367392059;
-0,000552836292579241;
-0,000345919674909437;
-7,75494730382402E-5;
0,000139277462945714;
0,000217543921411431;
0,000150705077755588;
9,60234031919537E-6;
-0,000113171551969182;
-0,000167028456841144;
-0,000167561882875295;
-0,00016754022294845;
-0,000203844464747377;
-0,000266168709115418;
-0,00031163617757513;
-0,000308941875573785;
-0,000270661913349708;
-0,000243591226129579;
-0,000264318301155765;
-0,000318751854730271;
-0,000342988052414956;
-0,000269277724323293;
-8,25764380618948E-5;
0,000157867080312043;
0,000351451017430657;
0,000420794224864031;
0,000360179705156468;
0,000232710016252111;
0,000120762251976097;
6,93194304505907E-5;
6,45531933435282E-5;
5,96532232127991E-5;
2,19511576407012E-5;
-3,93435016108197E-5;
-8,61603943013526E-5;
-9,07220956667996E-5;
-6,41431636806213E-5;
-4,78192994016667E-5;
-7,40729720665763E-5;
-0,000130370158429525;
-0,000160153800054459;
-0,000103529141301788;
5,27818874693294E-5;
0,000256449354526537;
0,000418700523817679;
0,00047133198407123;
0,000409390606979696;
0,00028857470820487;
0,000181504803950679;
0,00012780707163883;
0,000115314657900661;
0,000102862642466409;
6,17594126876269E-5;
1,3939219140047E-7;
-4,85261230641652E-5;
-5,9840031265095E-5;
-4,35595711853425E-5;
-3,59908568981003E-5;
-6,54484199797786E-5;
-0,000120914469366702;
-0,000152830712291202;
-0,000108773285823301;
2,28358540889678E-5;
0,000196184846221849;
0,000333654278089726;
0,00037567511890649;
0,000317970025507886;
0,000209199580724192;
0,000112734870344795;
6,31147914242092E-5;
4,97102477767131E-5;
3,66484415547098E-5;
-1,04731820760501E-6;
-5,62884823867831E-5;
-9,99645861214241E-5;
-0,000110886369644494;
-9,75580097602527E-5;
-9,15238084211194E-5;
-0,000117357011874801;
-0,000165490505301727;
-0,000192961498899631;
-0,000154375994542323;
-3,97625718681455E-5;
0,000111170253858552;
0,000231246361257917;
0,000268970147395282;
0,000220676602988318;
0,000128417881421615;
4,68949131050352E-5;
5,87974437729936E-6;
-3,82310586234357E-6;
-1,31442099147466E-5;
-4,35952756384726E-5;
-8,90707975373184E-5;
-0,000124535404922419;
-0,000131793802383024;
-0,000118179450143053;
-0,000110794948908185;
-0,000130726441035012;
-0,000169758792343684;
-0,00019106957896288;
-0,000155802477636881;
-5,54706198217123E-5;
7,59057271752893E-5;
0,000180868627690983;
0,000215429772676071;
0,000176494234531648;
9,9979418965113E-5;
3,25438722720118E-5;
-4,53760837492161E-7;
-6,86788578014276E-6;
-1,30365350854135E-5;
-3,72517393452271E-5;
-7,43110283587643E-5;
-0,000102943849298348;
-0,000107715450029945;
-9,48642543103835E-5;
-8,73739047368689E-5;
-0,000103097885085585;
-0,0001350629964807;
-0,000152110646742883;
-0,000121410103623827;
-3,58308681522219E-5;
7,58692099082224E-5;
0,000165206454367265;
0,000195120686287991;
0,000163046190884954;
9,92526900124709E-5;
4,29988931728407E-5;
1,55894719062334E-5;
1,04132517476972E-5;
5,36417123516896E-6;
-1,48838271997312E-5;
-4,59535663494989E-5;
-7,00280577527216E-5;
-7,42012976148674E-5;
-6,36998176244712E-5;
-5,77222404554922E-5;
-7,11535374243966E-5;
-9,81570943906838E-5;
-0,000112762571684506;
-8,76548165095107E-5;
-1,69389405633165E-5;
7,54508786797932E-5;
0,000149246771909865;
0,00017372603542013;
0,000146804722945945;
9,3588449074731E-5;
4,65747596806037E-5;
2,33673355598429E-5;
1,84917736057062E-5;
1,37045421897444E-5;
-3,61591743840294E-6;
-2,98468082455213E-5;
-5,03203077790031E-5;
-5,44346571330412E-5;
-4,64947135873711E-5;
-4,22540684687342E-5;
-5,38986243992971E-5;
-7,66289496148429E-5;
-8,91950494101707E-5;
-6,92959255996892E-5;
-1,2158524834172E-5;
6,26647918698857E-5;
0,000122364007197491;
0,000141964136773766;
0,000119813019728313;
7,63284526183286E-5;
3,78759843608927E-5;
1,87040706617095E-5;
1,43664740094117E-5;
1,01143757613709E-5;
-4,22960135319848E-6;
-2,57288223795305E-5;
-4,25661752646594E-5;
-4,62246658899734E-5;
-4,01778734642162E-5;
-3,70699963900568E-5;
-4,66533480479977E-5;
-6,50681476697308E-5;
-7,53254103172571E-5;
-5,96466772459592E-5;
-1,42698091661186E-5;
4,52011675810334E-5;
9,26719578304669E-5;
0,000108339152871164;
9,0935223701728E-5;
5,66576005755075E-5;
2,63560509472897E-5;
1,12625541524292E-5;
7,85411654692278E-6;
4,51924792885349E-6;
-6,72724628780376E-6;
-2,35664848571728E-5;
-3,67396237897298E-5;
-3,95991843791457E-5;
-3,48737276979879E-5;
-3,24224239635075E-5;
-3,98197161054158E-5;
-5,40485015146507E-5;
-6,19330319425274E-5;
-4,97389525135622E-5;
-1,46061323801313E-5;
3,13912962296026E-5;
6,81581674983844E-5;
8,05075466821239E-5;
6,75135551968839E-5;
4,16075490127277E-5;
1,87208396666414E-5;
7,39765879321632E-6;
4,93853985749965E-6;
2,52627856261081E-6;
-5,87324813555684E-6;
-1,84912123117077E-5;
-2,83438328395265E-5;
-3,04446393059166E-5;
-2,68589398916284E-5;
-2,49714575546638E-5;
-3,04230821234294E-5;
-4,09448500186387E-5;
-4,67432595882758E-5;
-3,76682539448462E-5;
-1,16568172209454E-5;
0,00935578023137338;
0,0226792887316431;
0,0164316176458158;
0,00948278253608432;
0,0122004694719571;
0,00704080626814967;
0,00564135816744598;
0,00458752300996962;
0,000843604583863802;
0,00102949521665809;
-0,00120234783396635;
-0,00201090286934577;
-0,00282763563746041;
-0,00457171522740757;
-0,00490408687264569;
-0,00587652312779153;
-0,00596922207396923;
-0,00621457654609998;
-0,00701944716057611;
-0,00792869028836417;
-0,00933352155002105;
-0,0102088193652161;
-0,0104778957775437;
-0,0100739144159067;
-0,00918539716457105;
-0,00841893788021758;
-0,00782445647943929;
-0,00745268090376703;
-0,00704444895086959;
-0,00641906731580293;
-0,00568178737827788;
-0,00496948488056446;
-0,00446521467757837;
-0,00410147731294449;
-0,00367386034279237;
-0,00303913281326459;
-0,00224549827014681;
-0,00159273117950243;
-0,00137728632022695;
-0,00167067549475458;
-0,00221709520630018;
-0,00256716176916429;
-0,00238279207672098;
-0,00163647647155885;
-0,000610967921178991;
0,000324294512943601;
0,000968244733673801;
0,00137972326301325;
0,00176824855214937;
0,00227932064605612;
0,00287128390575776;
0,00337318239339444;
0,00365915247774483;
0,00377918008687588;
0,00391968426044651;
0,00422702219360037;
0,0046453119162909;
0,00491897586083863;
0,00477679302490948;
0,00415815540129888;
0,00330059441671934;
0,00260831112381864;
0,00239312253585715;
0,0026795053798652;
0,0032150443520954;
0,00366923546828238;
0,0038615955609755;
0,00384847236518847;
0,00381951366154684;
0,00390765886087093;
0,00407687849598248;
0,00417431187625115;
0,00408843522727411;
0,00386506117431405;
0,00367287452682961;
0,00364411279141622;
0,00372913526080599;
0,00369926594345872;
0,00331172679285003;
0,00251290946287819;
0,00151629381164411;
0,000684346531760713;
0,000296379640938309;
0,00037405278061702;
0,000691233433955155;
0,000952083450311477;
0,000995127608310749;
0,00087063693877449;
0,000747811957871734;
0,000745004575270081;
0,000829585546217743;
0,000864703774959215;
0,000750481485937988;
0,000527342431944938;
0,000345106102158363;
0,000320934360523271;
0,000409937288724247;
0,000407956685739197;
9,85053365182932E-5;
-0,000566496920558223;
-0,0107311773714838;
-0,0247035340116522;
-0,0187201739785415;
-0,0116334259168647;
-0,0140033951497392;
-0,00853773332625782;
-0,00701157279605254;
-0,00596827908863352;
-0,00222923439299481;
-0,00231452816722805;
9,51155225693458E-5;
0,0010419976118237;
0,0018722895551426;
0,00353893418143496;
0,00382950704171464;
0,00489472109357537;
0,00517619883990379;
0,00553258856736976;
0,00618655725532065;
0,00664175517493592;
0,0074497617755562;
0,00785803237948669;
0,00799948897755938;
0,00782251506958579;
0,00734417039211322;
0,00694729511467136;
0,00655947799258476;
0,00626863510212611;
0,00594225964010397;
0,00548797490593708;
0,00498578916726374;
0,00446907807052533;
0,0040453202918998;
0,00367691763568487;
0,00327148442346013;
0,00277322808525057;
0,00219617826104117;
0,00168658768154705;
0,00137835516143221;
0,00130683722502095;
0,00135795671181787;
0,00132286379341422;
0,00104826025110736;
0,000519977839495706;
-0,000130279269684767;
-0,000729973429879859;
-0,00118549671332335;
-0,00152276133666928;
-0,00183975928260642;
-0,00220426100142511;
-0,0025966687973988;
-0,002936729487689;
-0,00316467748619187;
-0,0033040393253349;
-0,00344283551842108;
-0,0036506767028059;
-0,00390149263701048;
-0,00407391611236962;
-0,00403867727431054;
-0,00376645051646736;
-0,00337058457165473;
-0,00304495185489549;
-0,00293995178528533;
-0,00306841246635196;
-0,00330963971334599;
-0,0035046694706852;
-0,00356645457971633;
-0,00352245305992837;
-0,00346507125934654;
-0,00345952341397635;
-0,00348888170567153;
-0,00347900501273514;
-0,00337563052318144;
-0,00320143798346125;
-0,00303961499238791;
-0,00295578912221368;
-0,00292613273668337;
-0,00283816668768532;
-0,0025718648789076;
-0,00210047867042885;
-0,00152989891848538;
-0,00104070246974563;
-0,00077279083635004;
-0,000737873865618399;
-0,00082357319305599;
-0,000882001784024767;
-0,000832157108262454;
-0,000699346178479029;
-0,000569018597580022;
-0,000501279704433108;
-0,000479974210741208;
-0,000435923800688343;
-0,000318408101147831;
-0,000147957244091987;
-1,04635021418099E-6;
6,22111286470349E-5;
6,45029487114042E-5;
0,000110442452563084;
0,000311506091446185;
0,000692902355837257;
0,00115736936206617;
0,0015388396819972;
0,00170895848180353;
0,00165771962553615;
0,00148949922201793;
0,00134126819209076;
0,0012882382346605;
0,00130765818118834;
0,0013214438450121;
0,00127489567897705;
0,00118347959960073;
0,00111136089255239;
0,00110565504107886;
0,00114796723798412;
0,00116854136313418;
0,00111269139475256;
0,00100172449472978;
0,000932023035385528;
0,00100612810886958;
0,00124739796896725;
0,00156696798993627;
0,00181304947769965;
0,00186850659499467;
0,00172457396710273;
0,00147707166946798;
0,00125149121647223;
0,00111673754965542;
0,00105214342207664;
0,000986520544137757;
0,000870074245623172;
0,000717050094600078;
0,000586066020560435;
0,000520114217772771;
0,000502427654507582;
0,000469455680807703;
0,00037141793169639;
0,000227732842251988;
0,000126082412240806;
0,000159639821614588;
0,000349481473689403;
0,000614668344086307;
0,00081717440271397;
0,000850568783346342;
0,000706880735613361;
0,000473027199845531;
0,000262739497298025;
0,000138329628770188;
8,08726042912912E-5;
2,56945709849628E-5;
-7,24473545594845E-5;
-0,000200793719991247;
-0,000306458511794031;
-0,000350744905956364;
-0,000349020080331573;
-0,000358911505746709;
-0,000425549052848331;
-0,000531535535625451;
-0,000597880197931149;
-0,000540719271802633;
-0,000341293695110007;
-7,2826512178154E-5;
0,000140093847478755;
0,000201467078778378;
0,000104045408304088;
-7,40054906764071E-5;
-0,000230467167460092;
-0,000309454901848618;
-0,000328155686142379;
-0,000344838995488505;
-0,000400258263940649;
-0,000483047763677314;
-0,00054583859129795;
-0,000554032632490222;
-0,000521537859735391;
-0,000500118636691619;
-0,000530282371126196;
-0,000596492026136252;
-0,00062808297593494;
-0,000550097111108452;
-0,000345880326597802;
-8,1029241117277E-5;
0,000133025674743552;
0,000210510029221823;
0,000144992874588045;
6,29406303557739E-6;
-0,000114368527019097;
-0,000167179840754035;
-0,000167503738134613;
-0,000167287760742105;
-0,000202822001643575;
-0,000263957402932266;
-0,000308514551526117;
-0,000305713442300399;
-0,00026792827279363;
-0,000241159439935206;
-0,00026135594595658;
-0,000314662554250921;
-0,000338307896700734;
-0,00026577544618533;
-8,23192565898944E-5;
0,000153886180770532;
0,00034411832179112;
0,000412477664384456;
0,000353378712993299;
0,000228710940383457;
0,000119228450636015;
6,90067490123039E-5;
6,44881019876701E-5;
5,98205422844383E-5;
2,30215037507794E-5;
-3,68835446249876E-5;
-8,26313076860162E-5;
-8,70485042377103E-5;
-6,10161529575587E-5;
-4,50192566343939E-5;
-7,06511456207475E-5;
-0,000125648875446713;
-0,000154742914992857;
-9,94336210017501E-5;
5,32231499636292E-5;
0,00025211151841328;
0,000410572819751466;
0,000462064126290541;
0,000401777125596175;
0,000284054610628611;
0,000179709947044122;
0,000127362271901836;
0,000115145570932794;
0,000102954442777176;
6,28526458577361E-5;
2,77053201833228E-6;
-4,47078363609041E-5;
-5,58471335950434E-5;
-4,01480761923484E-5;
-3,2922018327661E-5;
-6,16897528518352E-5;
-0,000115729877968427;
-0,000146882867400829;
-0,000104236068432896;
2,34294401904318E-5;
0,000191615094566728;
0,000324981569719148;
0,000365746344132778;
0,000309786385927513;
0,000204307438207328;
0,000110745494569183;
6,25635389208744E-5;
4,94540929368027E-5;
3,66731795159389E-5;
4,6835088042939E-8;
-5,35542201649862E-5;
-9,59610508711681E-5;
-0,000106684944078875;
-9,39581282318656E-5;
-8,82741824363376E-5;
-0,000113369918446478;
-0,000159991425889521;
-0,000186647628652919;
-0,000149531314279375;
-3,90464280487783E-5;
0,000106475669663403;
0,000222244987903892;
0,000258632396184146;
0,00021213332404089;
0,000123283296838459;
4,47691110390984E-5;
5,24469058597627E-6;
-4,15123465088193E-6;
-1,31787931898863E-5;
-4,25188917052193E-5;
-8,62921575846285E-5;
-0,000120436596995859;
-0,000127479886166;
-0,000114474655071063;
-0,000107441133003686;
-0,000126605301592425;
-0,000164074696632587;
-0,000184538437830936;
-0,000150767541535503;
-5,46589880625428E-5;
7,11774353496715E-5;
0,000171724219219505;
0,000204899764001663;
0,000167772774043881;
9,47145133628133E-5;
3,03324270656441E-5;
-1,15222013905158E-6;
-7,25405990431515E-6;
-1,3122832496268E-5;
-3,62082364889384E-5;
-7,15375603487455E-5;
-9,88262257082417E-5;
-0,000103370852708214;
-9,11257535234432E-5;
-8,39813718849722E-5;
-9,89235276920465E-5;
-0,000129304872755293;
-0,000145489890034194;
-0,000116285813693423;
-3,49478372715656E-5;
7,11839710955501E-5;
0,000156076550279674;
0,000184582801368681;
0,000154301306259298;
9,39535602555806E-5;
4,0745956665036E-5;
1,48460120463892E-5;
9,98194067103501E-6;
5,23368616082631E-6;
-1,38849831381937E-5;
-4,32263093715022E-5;
-6,59555716090574E-5;
-6,9894678828961E-5;
-5,99874901402888E-5;
-5,43461890576334E-5;
-6,69942787529824E-5;
-9,24188709269143E-5;
-0,000106160376354463;
-8,25270120257036E-5;
-1,60058167464086E-5;
7,08722370654708E-5;
0,000140263019529322;
0,000163334813409214;
0,000138166471108432;
8,83362676708755E-5;
4,4318152420369E-5;
2,25952050844661E-5;
1,80270628341995E-5;
1,35370723634403E-5;
-2,67070428600854E-6;
-2,71992400698981E-5;
-4,63456804752997E-5;
-5,02228296819555E-5;
-4,28582490232621E-5;
-3,8940461443213E-5;
-4,98114815935125E-5;
-7,0989084997414E-5;
-8,27018921680573E-5;
-6,42367633628446E-5;
-1,11941444075179E-5;
5,82441521060034E-5;
0,000113634319933485;
0,000131846742047699;
0,000111388743916778;
7,11905717369484E-5;
3,56475444048862E-5;
1,7917493896002E-5;
1,38788069581286E-5;
9,91661858283982E-6;
-3,34463314051473E-6;
-2,31877195975024E-5;
-3,87320706033114E-5;
-4,21538150833047E-5;
-3,66578108882737E-5;
-3,38564913030002E-5;
-4,26851424325257E-5;
-5,95910832446249E-5;
-6,90157058763752E-5;
-5,4715878909473E-5;
-1,32907207093312E-5;
4,09789748135437E-5;
8,42827754269269E-5;
9,8597958105317E-5;
8,28116661572545E-5;
5,16888027444822E-5;
2,41821150783923E-5;
1,04737592285749E-5;
7,35269256390303E-6;
4,29737500508635E-6;
-5,90706791758185E-6;
-2,11526283163752E-5;
-3,30796674346556E-5;
-3,57059124692046E-5;
-3,15023365222925E-5;
-2,93391527781534E-5;
-3,60080194966272E-5;
-4,87859846068132E-5;
-5,58666387395197E-5;
-4,49849188100941E-5;
-1,36266868833082E-5;
2,73982833101336E-5;
6,01767452284957E-5;
7,12227283914543E-5;
5,97590019793702E-5;
3,68513394868754E-5;
1,66227994105621E-5;
6,61706830606078E-6;
4,43142267526978E-6;
2,28597091714526E-6;
-5,12057183053489E-6;
-1,62200179606367E-5;
-2,48835451535837E-5;
-2,67569561768705E-5;
-2,36610648616533E-5;
-2,20417792133872E-5;
-2,67971450285861E-5;
-3,59372066782377E-5;
-4,0966935503011E-5;
-3,31291697620228E-5;
-1,06892713803966E-5;
1,86045548284999E-5;
4,20355084881355E-5;
5,01124043378335E-5;
4,23526814815065E-5;
2,65675233064196E-5;
1,26337606017832E-5;
5,77743317300031E-6;
4,30715946673414E-6;
2,85095630848927E-6;
-2,21309981507886E-6;
-9,79049956756906E-6;
-1,5707954673614E-5;
-1,70370018180579E-5;
-1,50277920644982E-5;
-1,40031126041235E-5;
-1,72040768920712E-5;
-2,32821952848073E-5;
-2,66370660935313E-5;
-2,15754097673753E-5;
-7,04140375026837E-6;
1,18909514546693E-5;
2,70392991937232E-5;
3,23956118567712E-5;
2,7733308413303E-5;
1,80279466006481E-5;
9,45961155321424E-6;
5,23833690651894E-6;
4,29213621093669E-6;
3,34227733122237E-6;
2,25406530672209E-7;
-4,37585179526053E-6;
-7,98549048182443E-6;
-8,9112804439843E-6;
-7,90801624955931E-6;
-7,45867220690937E-6;
-9,36995132149628E-6;
-1,28493830154163E-5;
-1,48009452992945E-5;
-1,21797711792952E-5;
-4,51531818716286E-6;
5,42916921120775E-6;
1,33856088499868E-5;
1,63501390416691E-5;
1,43157805119125E-5;
9,81388013590275E-6;
5,84085444728366E-6;
3,87198543846973E-6;
3,36835834333413E-6;
2,85045845534527E-6;
1,40727050179769E-6;
-6,33069087746665E-7;
-2,25139954339758E-6;
-2,8155101444119E-6;
-2,65531348295401E-6;
-2,67797913138407E-6;
-3,46302145685805E-6;
-4,69458754107664E-6;
-5,41833645009186E-6;
-4,85193093469975E-6;
-3,02354363395343E-6;
-7,23507163553287E-7;
1,11852508032335E-6;
2,05840298746934E-6;
2,27510748781394E-6;
2,21878088398186E-6;
2,17767306917139E-6;
2,1527998789412E-6;
2,05830724932799E-6;
1,94172502158502E-6;
1,95364315096594E-6;
2,12090415279082E-6;
2,22820365204055E-6;
2,01061017790603E-6;
1,49798847240524E-6;
1,11525002831399E-6;
1,31893757238725E-6;
2,02172894699451E-6;
2,3709633465737E-6;
1,24227088169901E-6;
-1,8114863132972E-6;
-5,91897839399334E-6;
-9,20164856496484E-6;
-9,95286355854202E-6;
-7,83838013288845E-6;
-4,15515730923046E-6;
-8,85765038639666E-7;
7,36044472801365E-7;
1,00406835440173E-6;
1,2430786436096E-6;
2,49038596328848E-6;
4,52056489818589E-6;
6,08796720834579E-6;
6,17996279356732E-6;
5,12661871023938E-6;
4,46175569320725E-6;
5,50311543874112E-6;
7,82762269104957E-6;
9,08202331169045E-6;
6,56079053163876E-6;
-5,29258799515273E-7;
-9,93959972386246E-6;
-1,74678269924651E-5;
-1,96298719523495E-5;
-1,59640892399967E-5;
-9,20950831712776E-6;
-3,22049434976263E-6;
-2,47152130811461E-7;
3,17095425112287E-7;
8,46759159118983E-7;
3,10669810258785E-6;
6,66394904323685E-6;
9,42835868648754E-6;
9,77555591531743E-6;
8,2816426208544E-6;
7,38653118339531E-6;
9,11034454657654E-6;
1,2755580757892E-5;
1,47466130000557E-5;
1,10921768870693E-5;
7,19144935152446E-7;
-1,30047952246325E-5;
-2,39924581857797E-5;
-2,73205920638294E-5;
-2,24253654627412E-5;
-1,32117152554276E-5;
-5,044721630502E-6;
-9,93304431731691E-7;
-1,98598910713233E-7;
5,57996499628807E-7;
3,62510053697088E-6;
8,40263586226993E-6;
1,21236901508644E-5;
1,26748047053052E-5;
1,08291961402454E-5;
9,74994999038341E-6;
1,20164345579499E-5;
1,67119714899712E-5;
1,92891214500372E-5;
1,4736777166835E-5;
1,76125321899412E-6;
-1,53827710182969E-5;
-2,91181826584889E-5;
-3,33865999428302E-5;
-2,7544683195979E-5;
-1,64153288141121E-5;
-6,55026355392791E-6;
-1,66003259169298E-6;
-6,87786240140866E-7;
2,44796053315619E-7;
3,94124318077357E-6;
9,67057240828765E-6;
1,41393001507056E-5;
1,48546052217548E-5;
1,27430104183696E-5;
1,15271745470913E-5;
1,42177496002476E-5;
1,97282642382817E-5;
2,27632467677819E-5;
1,75291074776382E-5;
2,56455686591608E-6;
-1,71958997326335E-5;
-3,30373221083796E-5;
-3,80372235567413E-5;
-3,14929965001371E-5;
-1,89247310966028E-5;
-7,78239284106923E-6;
-2,26053457396894E-6;
-1,15261598389102E-6;
-8,44775219649644E-8;
4,08786522429255E-6;
1,05347052857392E-5;
1,5569319340669E-5;
1,64168899720587E-5;
1,41183718935231E-5;
1,28109458046474E-5;
1,58231751747576E-5;
2,19425674659406E-5;
2,5323784162444E-5;
1,96008234929184E-5;
3,19161993821969E-6;
-1,84726817015631E-5;
-3,58505271011458E-5;
-4,13947689087981E-5;
-3,43614213594488E-5;
-2,0772953993263E-5;
-8,72316175838881E-6;
-2,75162576385667E-6;
-1,54466257557519E-6;
-3,76605623343936E-7;
4,13624539914666E-6;
1,10938240882276E-5;
1,65334796274991E-5;
1,74840079828062E-5;
1,50666420590431E-5;
1,37056817125772E-5;
1,69480777167489E-5;
2,3493772293959E-5;
2,71214161224951E-5;
2,10768007311318E-5;
3,69813854174287E-6;
-1,92472559298686E-5;
-3,76636827921295E-5;
-4,35888810027711E-5;
-3,62531723633249E-5;
-2,20111262677633E-5;
-9,37810228427013E-6;
-3,11734236956493E-6;
-1,84513247956735E-6;
-6,1017845466879E-7;
4,123137442564E-6;
1,14091347700936E-5;
1,71114414066325E-5;
1,81370147916581E-5;
1,56576339449952E-5;
1,42739254174786E-5;
1,76647490551809E-5;
2,44759095371434E-5;
2,82610441566733E-5;
2,20376258319422E-5;
4,0997625877135E-6;
-1,9588176363775E-5;
-3,86124636027466E-5;
-4,47772245533049E-5;
-3,73007056896541E-5;
-2,2722325286307E-5;
-9,7868640318341E-6;
-3,37635861125741E-6;
-2,06909910458287E-6;
-7,96781050068697E-7;
4,05241847141193E-6;
1,15085708824435E-5;
1,73496554061962E-5;
1,84249756464035E-5;
1,59312827993667E-5;
1,45502337290379E-5;
1,80182557212194E-5;
2,49557636717452E-5;
2,88210542871828E-5;
2,25405003352947E-5;
4,39465271972446E-6;
-1,95743018789406E-5;
-3,88368719694901E-5;
-4,51189875927302E-5;
-3,76385144265492E-5;
-2,29938739730625E-5;
-9,99513767600418E-6;
-3,55359834308897E-6;
-2,23687444173483E-6;
-9,52247071350602E-7;
3,92382166853324E-6;
1,14153585446528E-5;
1,72896593555121E-5;
1,83929753346823E-5;
1,59252808366245E-5;
1,45683190116107E-5;
1,80529978768762E-5;
2,49987391371785E-5;
2,88784389629718E-5;
2,26436304751945E-5;
4,5871818897284E-6;
-1,92717819563178E-5;
-3,84590113961923E-5;
-4,4753563287054E-5;
-3,73828535691326E-5;
-2,28982027231739E-5;
-1,00366580681524E-5;
-3,66335541054928E-6;
-2,35822254204333E-6;
-1,08198092076397E-6;
3,74645425339596E-6;
1,11603770429893E-5;
1,69793135979507E-5;
1,8092235184958E-5;
1,56841198488963E-5;
1,4369040428296E-5;
1,7819619563917E-5;
2,46747037685569E-5;
2,85136276624784E-5;
2,24101103343535E-5;
4,69092163848422E-6;
-1,87319113090897E-5;
-3,75817459431168E-5;
-4,38000274558309E-5;
-3,66320256872975E-5;
-2,24939134631901E-5;
-9,9350037621634E-6;
-3,71178815034245E-6;
-2,4355122878573E-6;
-1,18471041229747E-6;
3,53450017310744E-6;
1,07773451319651E-5;
1,64674926401136E-5;
1,75743717431285E-5;
1,5252958334096E-5;
1,39939125039177E-5;
1,73682270554789E-5;
2,40509473113059E-5;
2,78032031384919E-5;
2,19004402936442E-5;
4,7210068523567E-6;
0,00931543514927446;
0,0225934332576561;
0,016330372229807;
0,00939762190832648;
0,012147558178478;
0,00701645597765519;
0,00563111255298124;
0,004580238796288;
0,000839240186742862;
0,00103569232830993;
-0,00118014375271971;
-0,00197615543162445;
-0,00279025219279311;
-0,00453901015094378;
-0,00487384611070099;
-0,00583915829207229;
-0,00591803077829425;
-0,00615567380797927;
-0,0069724092837292;
-0,00791601435546909;
-0,0093660026156495;
-0,01027757684935;
-0,0105590465152793;
-0,0101425147934124;
-0,00922863205414167;
-0,00843968440554984;
-0,00783408388052091;
-0,00745994209999374;
-0,00704936323505838;
-0,00641562631334212;
-0,00566571437315636;
-0,00494348283685008;
-0,00443701996577833;
-0,00407679581776863;
-0,00365097202169016;
-0,00301058841788305;
-0,00220610043127367;
-0,00154722316160711;
-0,0013408200892359;
-0,00166064126457329;
-0,00224184357875538;
-0,00261989552652997;
-0,00244519825549177;
-0,00168944389609033;
-0,000644675726755539;
0,000307684711987129;
0,000960107592293464;
0,00137342921375707;
0,00176379333397963;
0,00228125460415153;
0,0028828396618465;
0,0033923291357954;
0,00368007981323174;
0,00379760832881946;
0,00393689242713105;
0,00424855842556897;
0,00467503579814515;
0,00495335860078172;
0,00480460389659754;
0,0041665302965775;
0,00328335021353581;
0,00257040324013993;
0,00234793599026114;
0,00264099128456046;
0,00319037298119242;
0,00365687332505817;
0,00385533738382026;
0,00384356096567224;
0,00381595679465158;
0,0039087199172129;
0,00408486864581464;
0,00418779183267905;
0,00410329080091132;
0,00387826881130916;
0,00368532606084063;
0,00365968499431086;
0,00375051214500818;
0,00372398677915266;
0,00333200704014033;
0,00251986234098974;
0,00150564329735879;
0,000659437780351978;
0,000266281091248417;
0,00034819513598846;
0,000674464346674667;
0,000943417095644226;
0,000990474445476103;
0,000866876621271102;
0,000744963084908822;
0,00074520678676946;
0,000834345791734477;
0,000873099356285988;
0,000759878563325557;
0,000535813987136566;
0,000353208263341375;
0,000331089688617091;
0,000423807541168679;
0,000424011614512749;
0,000111959472423296;
-0,000561069556726179;
-0,0107363909096768;
-0,0247174362152192;
-0,0187374387247522;
-0,0116485422161958;
-0,0140135301405084;
-0,00854340082571625;
-0,00701503245434309;
-0,00597123573329049;
-0,00223166024627312;
-0,00231525506536533;
9,68994086365236E-5;
0,00104581526141021;
0,001876784641576;
0,00354312601198833;
0,00383366320523189;
0,00490001192359898;
0,00518340609194769;
0,00554098296554068;
0,00619393389005599;
0,00664566562526057;
0,00744902373460428;
0,00785340646711446;
0,00799309300404107;
0,00781649893817288;
0,00733963804917928;
0,00694413362863893;
0,00655699094304035;
0,00626632654951996;
0,00594016415156933;
0,00548642984259654;
0,00498501178621429;
0,00446897041532214;
0,00404561450938759;
0,00367743920337303;
0,00327225535045594;
0,00277435299439244;
0,00219769006094682;
0,00168843745663133;
0,00138053034663676;
0,00130941888256251;
0,00136098062801844;
0,00132608431630592;
0,00105107990577589;
0,00052170129157605;
-0,000130013062186093;
-0,000730942202407531;
-0,00118707980236757;
-0,00152443652013071;
-0,00184148753270542;
-0,00220640618697996;
-0,0025995156388775;
-0,00294005826454621;
-0,00316784167297706;
-0,00330653633128774;
-0,00344484944580045;
-0,00365299711273504;
-0,0039047148452206;
-0,00407751945197248;
-0,00404083858995178;
-0,00376497084016543;
-0,00336440643954044;
-0,00303515734740855;
-0,00292940152944999;
-0,0030601739092596;
-0,00330529659261229;
-0,00350372398490471;
-0,00356719389046558;
-0,00352351096309501;
-0,00346640606956431;
-0,00346208140204964;
-0,00349336456930695;
-0,00348493110181004;
-0,0033815976590946;
-0,0032063840496849;
-0,00304389393605371;
-0,00296092792648076;
-0,00293324463475557;
-0,00284626215026322;
-0,00257760987496255;
-0,00209993126946908;
-0,00152115895656926;
-0,00102553396450731;
-0,000755906133337016;
-0,000724281929417658;
-0,000815859710046836;
-0,000879447104067797;
-0,000832160061416122;
-0,000699854385293085;
-0,000569989066350747;
-0,000504133025387116;
-0,000485751691059695;
-0,000443932140623465;
-0,000326633104864563;
-0,000154883650515037;
-7,16501136727355E-6;
5,47778327627038E-5;
5,42238301840136E-5;
9,86849162154867E-5;
0,000302821351056706;
0,000692636284484613;
0,00116810282836624;
0,00155826592965904;
0,00173088468052949;
0,00167558389473213;
0,00149991328515232;
0,00134512547542626;
0,00128884481478487;
0,00130761062561654;
0,00132078532204241;
0,00127182863188043;
0,00117669281019218;
0,00110171417330141;
0,00109564550340895;
0,0011394676522493;
0,00116095350609231;
0,00110342496404299;
0,000988920043733048;
0,000917344191552573;
0,000995079746544938;
0,00124642569052352;
0,00157918777904685;
0,0018357360782799;
0,00189431876455025;
0,00174574461460758;
0,00148958841659306;
0,00125637850779958;
0,00111784260265539;
0,0010524802185954;
0,000986131427672218;
0,000866871604109264;
0,000709515004384847;
0,000575184559589649;
0,000508751307184475;
0,000492728285553594;
0,000460740458223905;
0,0003607420523287;
0,00021298839616426;
0,000109156558060054;
0,000146756621456989;
0,000347915562686269;
0,000627941043993624;
0,000842251852281798;
0,000879255810553366;
0,000730513504792256;
0,000487127676267253;
0,000268425485729935;
0,000139844587297769;
8,15357571718374E-5;
2,55465924901506E-5;
-7,57072091377579E-5;
-0,000208837000325631;
-0,000318208374299646;
-0,000363070313927963;
-0,00035957919087698;
-0,000368441804048475;
-0,000437249779277654;
-0,000547692663248971;
-0,000616447112419495;
-0,000554959443493934;
-0,000343342148759368;
-5,8871227787057E-5;
0,00016680673541547;
0,000232147263143699;
0,000129403507344671;
-5,87737183444893E-5;
-0,000224183347512002;
-0,000307606300054353;
-0,00032721611546189;
-0,000344770109918956;
-0,000403506420667403;
-0,000491388777853683;
-0,000558135845418312;
-0,000566977919893379;
-0,000532658412978113;
-0,000510189862566678;
-0,000542670472676281;
-0,00061359948628807;
-0,000647759640306955;
-0,000565274454209216;
-0,000348311458776858;
-6,67117392538855E-5;
0,000160717000215451;
0,00024241493852975;
0,000171432536624087;
2,22595700435004E-5;
-0,0001076664462346;
-0,000165069271699909;
-0,000166336735775658;
-0,000167028789397142;
-0,000206004363864163;
-0,000272419122412477;
-0,000321085989343737;
-0,000318986208649134;
-0,000279355742538171;
-0,000251537500303747;
-0,000274142097941896;
-0,000332322534298326;
-0,000358636276742937;
-0,000281527598945967;
-8,50464682460947E-5;
0,000168289891367405;
0,000372221177466697;
0,000444943288030741;
0,000380342125016775;
0,000245063359304555;
0,000126188974233234;
7,13120877424848E-5;
6,58349072212272E-5;
6,02412114437099E-5;
1,99461966145533E-5;
-4,53189180217401E-5;
-9,52469105196287E-5;
-0,000100401632790916;
-7,25351687112731E-5;
-5,55056330599223E-5;
-8,35890021231741E-5;
-0,000143521672436982;
-0,000175331134696981;
-0,000115449613117649;
5,02761439027681E-5;
0,000266368682856132;
0,000438606113839391;
0,000494525737545002;
0,000428788815391318;
0,000300496962264302;
0,000186790321537447;
0,000129802300335751;
0,000116628789242471;
0,000103509892796382;
5,99167029854053E-5;
-5,51627820682184E-6;
-5,71747020837886E-5;
-6,9072660564196E-5;
-5,15768613022354E-5;
-4,33485872319412E-5;
-7,45703088005743E-5;
-0,00013352720146248;
-0,000167398014202522;
-0,000120250427855554;
2,03311334694862E-5;
0,000205534398689911;
0,000352544796549032;
0,00039773219713911;
0,000336448286595658;
0,000220590278060635;
0,000117828328319949;
6,50863336995633E-5;
5,10357459475666E-5;
3,73392611648892E-5;
-2,72434261583706E-6;
-6,15918565785942E-5;
-0,000108119271954087;
-0,000119609912259827;
-0,000105144986180111;
-9,85001103875599E-5;
-0,000126017943625973;
-0,000177471773822463;
-0,000206810626352056;
-0,000165320238859059;
-4,22348709992706E-5;
0,000119903374450018;
0,000249010931414861;
0,0002897553722344;
0,000238117842216361;
0,000139200434842001;
5,1756251091605E-5;
7,80565077571727E-6;
-2,50435964961945E-6;
-1,24239283899743E-5;
-4,51064543788661E-5;
-9,39999928222604E-5;
-0,000132156697855048;
-0,000139963671450071;
-0,000125295801663398;
-0,000117351043716183;
-0,000138876978884726;
-0,000181039851482465;
-0,000204119958505218;
-0,000166146001067303;
-5,78840876078823E-5;
8,39928081808534E-5;
0,000197431089390365;
0,000234848536557649;
0,000192815398832934;
0,000110098305829994;
3,71426131311089E-5;
1,4084551737255E-6;
-5,57132163212963E-6;
-1,22993906723242E-5;
-3,85996866592862E-5;
-7,8853441607933E-5;
-0,000110006625060424;
-0,000115302474505517;
-0,000101483102430381;
-9,34833801437321E-5;
-0,000110703905882616;
-0,000145596188643034;
-0,000164306015399257;
-0,000131104344391492;
-3,81637287896761E-5;
8,32952736694794E-5;
0,000180520754761152;
0,000213113671388068;
0,000178193877328667;
0,000108670814076255;
4,7313023298864E-5;
1,73734599713293E-5;
1,16746723640832E-5;
6,10702011920125E-6;
-1,60734440144214E-5;
-5,01045530665677E-5;
-7,65196049897483E-5;
-8,11896459019181E-5;
-6,98059332085395E-5;
-6,33694438562204E-5;
-7,81942608876413E-5;
-0,000107913138788589;
-0,000124067869830188;
-9,66680769998719E-5;
-1,91736509676904E-5;
8,22133759667535E-5;
0,000163292704877628;
0,000190264315900549;
0,000160751128145274;
0,000102284686239916;
5,05896835118732E-5;
2,50617397896904E-5;
1,9707377693175E-5;
1,44433339093866E-5;
-4,65392073682928E-6;
-3,36084226402727E-5;
-5,62384632491169E-5;
-6,08198740502959E-5;
-5,20828273358032E-5;
-4,74325701862239E-5;
-6,03647335017359E-5;
-8,55943756151065E-5;
-9,95934846178369E-5;
-7,76111070470327E-5;
-1,42813676561557E-5;
6,87715954082361E-5;
0,00013514328494121;
0,000157044650225452;
0,000132552194099716;
8,42953854821066E-5;
4,15835625697637E-5;
2,03003975485173E-5;
1,55276911899116E-5;
1,08406969409585E-5;
-5,12409369264843E-6;
-2,91086656865699E-5;
-4,79176115196541E-5;
-5,2011864449721E-5;
-4,52511183418073E-5;
-4,17811799041547E-5;
-5,2545264116651E-5;
-7,32429271294471E-5;
-8,48157479199969E-5;
-6,72591752809003E-5;
-1,62704886318722E-5;
5,06687382911053E-5;
0,000104204604576468;
0,000121980535358271;
0,000102479606597793;
6,38994191311938E-5;
2,9753702628676E-5;
1,2754864153911E-5;
8,95429457231536E-6;
5,22596574552472E-6;
-7,4873447354611E-6;
-2,65766689643426E-5;
-4,15382977890422E-5;
-4,48014038279302E-5;
-3,94422161967263E-5;
-3,66741864351597E-5;
-4,51460055912843E-5;
-6,14438672633489E-5;
-7,0527099973215E-5;
-5,66547225068535E-5;
-1,64774116394734E-5;
3,62430078139112E-5;
7,84792194527527E-5;
9,27463141993045E-5;
7,78908113961309E-5;
4,81381131099444E-5;
2,18106864609266E-5;
8,78225377111877E-6;
5,97274615401396E-6;
3,20745595472071E-6;
-6,50876884300608E-6;
-2,11474311229499E-5;
-3,26095822693963E-5;
-3,50813629928286E-5;
-3,09384891927084E-5;
-2,87770474530866E-5;
-3,51990299813745E-5;
-4,75813328523069E-5;
-5,44636802683287E-5;
-4,39020409108515E-5;
-1,33941615825876E-5;
2,66108283030369E-5;
5,87154403763787E-5;
6,9767474559404E-5;
5,89364948699031E-5;
3,69187608056125E-5;
1,74270306272514E-5;
7,81617488816407E-6;
5,77780104323836E-6;
3,75530861024692E-6;
-3,41833426012842E-6;
-1,42290426866163E-5;
-2,27075013640714E-5;
-2,45945117309484E-5;
-2,16448706440246E-5;
-2,01388270963353E-5;
-2,486871443586E-5;
-3,39104291566502E-5;
-3,89663598345998E-5;
-3,1444219917365E-5;
-9,58797789663924E-6;
1,90768940580073E-5;
4,21178129005283E-5;
5,0201343972421E-5;
4,27815078964581E-5;
2,7447167351435E-5;
1,38545275541867E-5;
7,14330538604589E-6;
5,68404053254037E-6;
4,22097768694585E-6;
-8,07499912601841E-7;
-8,33940136194073E-6;
-1,42744043944218E-5;
-1,57166497701359E-5;
-1,38761399039239E-5;
-1,300367293698E-5;
-1,63069457569482E-5;
-2,24744154823434E-5;
-2,59762050650205E-5;
-2,11511781761196E-5;
-6,89492283685018E-6;
1,18222604447195E-5;
2,69038620020534E-5;
3,23494615940208E-5;
2,78608930412386E-5;
1,83173293567386E-5;
9,83978572054584E-6;
5,63867823350193E-6;
4,6755996736438E-6;
3,69642131429825E-6;
5,34988764708556E-7;
-4,14038559373885E-6;
-7,85344352804568E-6;
-8,89210011929717E-6;
-7,99346079009269E-6;
-7,64819405299071E-6;
-9,69083715944703E-6;
-1,3341351190252E-5;
-1,54671667903416E-5;
-1,29440700176194E-5;
-5,23089250079399E-6;
4,91162045806965E-6;
1,31338284078027E-5;
1,63134990545626E-5;
1,43660632103149E-5;
9,83314510379977E-6;
5,78810308970666E-6;
3,77918280453109E-6;
3,27686724336854E-6;
2,74920334877962E-6;
1,22958335286884E-6;
-9,52723632779729E-7;
-2,71698143779912E-6;
-3,36742067658019E-6;
-3,23523528104907E-6;
-3,30181233759026E-6;
-4,22532582638138E-6;
-5,68160559363197E-6;
-6,59055134127591E-6;
-5,99812266507201E-6;
-3,84423384612442E-6;
-1,00127642723425E-6;
1,38068258036872E-6;
2,63540761835948E-6;
2,86037997129028E-6;
2,60517608634974E-6;
2,34783986376819E-6;
2,22220640564174E-6;
2,13161116312244E-6;
2,00756177519523E-6;
1,90177670641354E-6;
1,85525656442529E-6;
1,76484387604805E-6;
1,46498068752813E-6;
9,68545983496852E-7;
5,71744314894419E-7;
6,11137136121953E-7;
1,02505936203411E-6;
1,15960224664885E-6;
1,37109894796871E-7;
-2,38760124207749E-6;
-5,69467831938162E-6;
-8,23893330020838E-6;
-8,61942803766896E-6;
-6,58554922375365E-6;
-3,26162918089913E-6;
-3,48672230240773E-7;
1,10067433960525E-6;
1,35275580497616E-6;
1,56485592062694E-6;
2,64065665914861E-6;
4,37962320104952E-6;
5,68901908772113E-6;
5,6842044859301E-6;
4,6654306319429E-6;
3,99409708774475E-6;
4,83510838944134E-6;
6,80519149063021E-6;
7,80810921628061E-6;
5,44436416612519E-6;
-9,67160784316504E-7;
-9,3852619054393E-6;
-1,60306377429161E-5;
-1,77905630609389E-5;
-1,42877228482215E-5;
-8,02984812061513E-6;
-2,51702107290305E-6;
2,1958377909148E-7;
7,45582190805839E-7;
1,22733224207421E-6;
3,26887461404021E-6;
6,47071815616336E-6;
8,92750706542635E-6;
9,16497328822716E-6;
7,71909233942533E-6;
6,82322336893707E-6;
8,31931326666406E-6;
1,15608642732547E-5;
1,32743047088686E-5;
9,8196678759386E-6;
2,42795116565798E-7;
-1,23396508094029E-5;
-2,23326320182091E-5;
-2,52339467780732E-5;
-2,05636069292778E-5;
-1,19496086525946E-5;
-4,34705721826851E-6;
-5,77451924177108E-7;
1,66401898761597E-7;
8,63913493426439E-7;
3,68239617487311E-6;
8,06189246626555E-6;
1,14442865484397E-5;
1,18825500307608E-5;
1,01017246831708E-5;
9,03274106543291E-6;
1,10580923680919E-5;
1,53206988513657E-5;
1,76085004110195E-5;
1,32945458815572E-5;
1,20825518886325E-6;
-1,46796352365692E-5;
-2,73348574311791E-5;
-3,11556986406055E-5;
-2,55811768666247E-5;
-1,51231353126821E-5;
-5,882676387086E-6;
-1,30263584047171E-6;
-3,86019396378376E-7;
4,83773633701197E-7;
3,9144261585163E-6;
9,22003674510595E-6;
1,33329776223041E-5;
1,39381465696976E-5;
1,19078711557784E-5;
1,07145769601796E-5;
1,31592151807342E-5;
1,82212189367634E-5;
2,09635575569481E-5;
1,5998814337224E-5;
1,99057401984119E-6;
-1,64339768931903E-5;
-3,11373390031773E-5;
-3,56769824508403E-5;
-2,94303130507924E-5;
-1,75823898921761E-5;
-7,10505652571193E-6;
-1,91200934530864E-6;
-8,62508782536507E-7;
1,4084265905563E-7;
4,0368354435181E-6;
1,00443357787887E-5;
1,47135070694493E-5;
1,54541574674165E-5;
1,32488272345262E-5;
1,1972964722281E-5;
1,47377107766706E-5;
2,04007944363994E-5;
2,34894584715823E-5;
1,80564992300093E-5;
2,64450197981808E-6;
-1,76377746773242E-5;
-3,38468185678304E-5;
-3,89280481177278E-5;
-3,22144749830082E-5;
-1,93783670640218E-5;
-8,01930382031939E-6;
-2,38903822213082E-6;
-1,2436649503395E-6;
-1,42852489544444E-7;
4,08704938371794E-6;
1,05967602713685E-5;
1,56663292337888E-5;
1,65123253501048E-5;
1,41949000401004E-5;
1,28707872192956E-5;
1,58661899604443E-5;
2,19538463721243E-5;
2,5291457988623E-5;
1,95481873453683E-5;
3,18498162894416E-6;
-1,83611128047843E-5;
-3,56010466289091E-5;
-4,10686228613954E-5;
-3,40675978907471E-5;
-2,05947828482451E-5;
-8,66501262565341E-6;
-2,75199934508891E-6;
-1,54409733858967E-6;
-3,78375515332502E-7;
4,06968793362952E-6;
1,09063062111884E-5;
1,62391694602833E-5;
1,7162936538965E-5;
1,47869905981994E-5;
1,34433774422206E-5;
1,65905863768916E-5;
2,29483096444854E-5;
2,64491772599127E-5;
2,05317887544802E-5;
3,60967884671508E-6;
-1,86848312582179E-5;
-3,65430989744864E-5;
-4,22611330376225E-5;
-3,51266618640578E-5;
-2,13202530725105E-5;
-9,08814098232983E-6;
-3,02557475257573E-6;
-1,78376020200338E-6;
-5,8111593768051E-7;
3,98526218104986E-6;
1,09974946283459E-5;
1,64752254528825E-5;
1,74527145213246E-5;
1,50641294282682E-5;
1,37255785602316E-5;
1,69566106202404E-5;
2,34513476669768E-5;
2,7041554566633E-5;
2,10668090547259E-5;
3,92265645203286E-6;
-1,86774107313137E-5;
-3,67989331645438E-5;
-4,2649167587701E-5;
-3,5511227812029E-5;
-2,16290197189187E-5;
-9,32295074923527E-6;
-3,22395146021206E-6;
-1,9721838038022E-6;
-7,56121520351742E-7;
3,84368302403425E-6;
1,09026736750104E-5;
1,64243178396313E-5;
1,74348565179634E-5;
1,50724458116517E-5;
1,37596629932079E-5;
1,70165755313448E-5;
2,35350846553609E-5;
2,71515405428028E-5;
2,121811189082E-5;
4,13734412352004E-6;
-1,83927265039005E-5;
-3,64758697852705E-5;
-4,23567238187089E-5;
-3,53235324834343E-5;
-2,158191027257E-5;
-9,39376751069451E-6;
-3,35329738573498E-6;
-2,11158505441542E-6;
-9,01833786633724E-7;
3,65993673809144E-6;
1,06571535386538E-5;
1,61374986951891E-5;
1,71631963901995E-5;
1,48589548616128E-5;
1,35887718510329E-5;
1,68225267924497E-5;
2,32694488158919E-5;
2,68586944133049E-5;
2,10483483032453E-5;
4,26887283159238E-6;
-1,78777490619646E-5;
-3,56702953834377E-5;
-4,14959269344146E-5;
-3,46562217386211E-5;
-2,12340650225251E-5;
-9,32268233443427E-6;
-3,41940114192945E-6;
-2,204414790406E-6;
-1,01750134985004E-6;
3,44681687026126E-6;
1,02920873054494E-5;
1,56601273907744E-5;
1,66854834580242E-5;
1,4465049078604E-5;
1,32506435454548E-5;
1,6420203108103E-5;
2,27163794219863E-5;
2,62336629539918E-5;
2,06127130227041E-5;
4,3291147777926E-6;
-1,71772184270509E-5;
-3,44720548422622E-5;
-4,01711125287938E-5;
-3,35961016072852E-5;
-2,06383569024585E-5;
-9,13263615609511E-6;
-3,43044291053697E-6;
-2,25583009177922E-6;
-1,10536082688204E-6;
3,21303076376241E-6;
9,83287140417191E-6;
1,50305469279848E-5;
1,60423263605139E-5;
1,39256909778893E-5;
1,27770367316183E-5;
1,58487152807047E-5;
2,192976103117E-5;
2,5338332155928E-5;
1,99592690293688E-5;
4,32712313024473E-6;
-1,63331122339077E-5;
-3,29638013949497E-5;
-3,84780246811123E-5;
-3,22231321529128E-5;
-1,9844161762048E-5;
-8,84600199255657E-6;
-3,39542071060744E-6;
-2,27201112792762E-6;
-1,16885989190436E-6;
2,96509739013168E-6;
9,30115784134069E-6;
1,42821814210811E-5;
1,52693336874288E-5;
1,32715699771163E-5;
1,21959111872603E-5;
1,51427532401883E-5;
2,09576691990791E-5;
2,4228100429926E-5;
1,91311742948742E-5;
4,27123110628758E-6;
-1,53827281025677E-5;
-3,12192304492602E-5;
-3,65021059571662E-5;
-3,06086973284713E-5;
-1,88955520985827E-5;
-8,4827193167083E-6;
-3,3222969990169E-6;
-2,25834665174126E-6;
-1,21089276594827E-6;
2,70906024002432E-6;
8,71654597404557E-6;
1,34452014650538E-5;
1,439870074773E-5;
1,25305778950821E-5;
1,15328017353149E-5;
1,43339060616073E-5;
1,98436671144397E-5;
2,29531121154583E-5;
1,8167759092673E-5;
4,16988411352658E-6;
-1,43581300090863E-5;
-2,93027714580562E-5;
-3,43183052931165E-5;
-2,8815392106933E-5;
-1,78310235096583E-5;
-8,05996961220672E-6;
-3,21768121038167E-6;
-2,21918837882726E-6;
-1,23361458208918E-6;
2,45066610774649E-6;
8,09676821665524E-6;
1,25466902272384E-5;
1,34593303244145E-5;
1,17278516679025E-5;
1,08107861051037E-5;
1,34506116020306E-5;
1,86267673529587E-5;
2,1558204132447E-5;
1,71043712771562E-5;
4,03124986209596E-6;
-1,32868269005056E-5;
-2,72704727675747E-5;
-3,19920502063827E-5;
-2,68979325312635E-5;
-1,66842423500425E-5;
-7,59279425700632E-6;
-3,08738561556489E-6;
-2,15839532954152E-6;
-1,23897857415701E-6;
2,19486615877706E-6;
7,45726439960969E-6;
1,16102883952859E-5;
1,2476474201577E-5;
1,08853739282301E-5;
1,0050073366078E-5;
1,25177752089071E-5;
1,73411306912073E-5;
2,00826603389352E-5;
1,59720577015338E-5;
3,86270943293657E-6;
-1,21925371133081E-5;
-2,51709824568757E-5;
-2,9580255470668E-5;
-2,49040315712199E-5;
-1,54847263928641E-5;
-7,09459025710691E-6;
-2,93682518418207E-6;
-2,07970217792388E-6;
-1,22906827593681E-6;
1,94557077461213E-6;
6,81104712384796E-6;
1,06561360685017E-5;
1,1471714145399E-5;
1,00219455938156E-5;
9,26796946509299E-6;
1,1556806041233E-5;
1,60162055348003E-5;
1,85603989186447E-5;
1,47976821114656E-5;
3,67074860875977E-6;
-1,10955782122164E-5;
-2,3046132123576E-5;
-2,71319633408556E-5;
-2,28749149086595E-5;
-1,42581337547806E-5;
-6,57721709196795E-6;
-2,7710201713913E-6;
-1,98667745620377E-6;
-1,20602619416502E-6;
1,70578771088262E-6;
6,16895061930895E-6;
9,70120995209862E-6;
1,04633048488083E-5;
9,15349608429198E-6;
8,47917751250369E-6;
1,05859528181701E-5;
1,46771523650248E-5;
1,70204539241184E-5;
1,3604324907471E-5;
3,46114121880507E-6;
-1,00129956352524E-5;
-2,09313257778648E-5;
-2,46887843863361E-5;
-2,08456540513815E-5;
-1,30264001078565E-5;
-6,0509395178435E-6;
-2,59445258106541E-6;
-1,88257371099245E-6;
-1,17188982450888E-6;
1,47785190250371E-6;
5,53994877318674E-6;
8,75971049360605E-6;
9,46657650116057E-6;
8,29344211715415E-6;
7,69612556435104E-6;
9,6206749868592E-6;
1,33452931312193E-5;
1,54874595732553E-5;
1,24116740284788E-5;
3,23906852692453E-6;
-8,95875885570482E-6;
-1,8855973685879E-5;
-2,22854256884234E-5;
-1,88455728472785E-5;
-1,18079420267155E-5;
-5,52447415921425E-6;
-2,41102542751947E-6;
-1,77027218762641E-6;
-1,12852103616013E-6;
1,26355276499081E-6;
4,93137637219538E-6;
7,84335475347579E-6;
8,49422710898177E-6;
7,45293861005683E-6;
6,92918631989058E-6;
8,6738950242982E-6;
1,20384495945355E-5;
1,39820266899037E-5;
1,12362977923046E-5;
3,00915136751148E-6;
-7,94405620515249E-6;
-1,68440516252986E-5;
-1,99503151173591E-5;
-1,68987737608555E-5;
-1,06179768821141E-5;
-5,00512199913676E-6;
-2,22411554507667E-6;
-1,65231207076575E-6;
-1,07762432807577E-6;
1,06417948636028E-6;
4,34907241817944E-6;
6,96158387936992E-6;
7,55653928261174E-6;
6,64105414627325E-6;
6,18683186842305E-6;
7,75619577722345E-6;
1,07712193880147E-5;
1,25210652416773E-5;
1,00918871298062E-5;
2,77544423701995E-6;
-6,97762174778241E-6;
-1,49146693781888E-5;
-1,77062433358441E-5;
-1,50246701774085E-5;
-9,46885850596148E-6;
-4,49892811915283E-6;
-2,03664328463229E-6;
-1,53095342145645E-6;
-1,02078331146073E-6;
8,80550887966365E-7;
3,79749993557033E-6;
6,12176839399733E-6;
6,66159295511298E-6;
5,86494985898496E-6;
5,47579516200377E-6;
6,87601608487776E-6;
9,55526544328519E-6;
1,11181189683461E-5;
8,98949185102045E-6;
2,54143945804052E-6;
-6,06602601308234E-6;
-1,30826084174105E-5;
-1,55709753783816E-5;
-1,32384790020137E-5;
-8,37037160413335E-6;
-4,01081216910213E-6;
-1,85111039189999E-6;
-1,40818205982071E-6;
-9,59461668374176E-7;
7,1307151184303E-7;
3,27990756837886E-6;
5,32943444660412E-6;
5,81550938964941E-6;
5,13008821737499E-6;
4,80124795699906E-6;
6,03988191053413E-6;
8,39962818020118E-6;
9,78371581630747E-6;
7,93779961215366E-6;
2,31011437016145E-6;
-5,21393927871993E-6;
-1,13588077856173E-5;
-1,3557799069603E-5;
-1,1551688549454E-5;
-7,33000944631673E-6;
-3,5446683835667E-6;
-1,66962851173554E-6;
-1,28572811277787E-6;
-8,94993243896915E-7;
5,61807841980272E-7;
2,79848694572489E-6;
4,58849362745905E-6;
5,02268954543115E-6;
4,44043441967059E-6;
4,16699621544011E-6;
5,25263432096279E-6;
7,31102461725362E-6;
8,52571762421528E-6;
6,94340098339857E-6;
2,08397908433514E-6;
-4,42435577467994E-6;
-9,75082806355881E-6;
-1,1676061411636E-5;
-9,97247817684885E-6;
-6,35322176203396E-6;
-3,10346537356669E-6;
-1,49393568204066E-6;
-1,16506876926464E-6;
-8,28573220550965E-7;
4,26547429326195E-7;
2,35452514145181E-6;
3,90145959332096E-6;
4,28603241034704E-6;
3,79865502909626E-6;
3,57564762774649E-6;
4,51762981758467E-6;
6,29413665261138E-6;
7,34963769169193E-6;
6,01103266057862E-6;
1,86510899744147E-6;
-3,69882990281503E-6;
-8,2632800781112E-6;
-9,93167014122869E-6;
-8,5061436497335E-6;
-5,44366725755747E-6;
-2,68935453034924E-6;
-1,32543064378234E-6;
-1,04744380843497E-6;
-7,61262009328465E-7;
3,06852945854117E-7;
1,94852874127337E-6;
3,26963613298444E-6;
3,60714611859195E-6;
3,20628494112164E-6;
3,028770370924E-6;
3,83693713626693E-6;
5,35186728777845E-6;
6,25894357953533E-6;
5,14380942116229E-6;
1,65519240064039E-6;
-3,03769316804067E-6;
-6,89825802595316E-6;
-8,32756851648007E-6;
-7,15549243925892E-6;
-4,60345353614718E-6;
-2,30376812505485E-6;
-1,16521439809465E-6;
-9,33877918549418E-7;
-6,93989168248859E-7;
2,02106826249439E-7;
1,5803526281945E-6;
2,69329940359061E-6;
2,986530116765E-6;
2,66389121128646E-6;
2,52703443195425E-6;
3,21151137286438E-6;
4,48559077273638E-6;
5,25533532490986E-6;
4,34343531771857E-6;
1,45555330885462E-6;
-2,44025022426223E-6;
-5,6557137897778E-6;
-6,86418280870885E-6;
-5,92120302999577E-6;
-3,83336229701855E-6;
-1,94751757656682E-6;
-1,01411306833681E-6;
-8,25201756101964E-7;
-6,27563873669456E-7;
1,11537036873987E-7;
1,2492964390276E-6;
2,17185590463775E-6;
2,42373961562303E-6;
2,17121725641717E-6;
2,07034942738522E-6;
2,64136532889538E-6;
3,69537524031864E-6;
4,33899998604161E-6;
3,61040883882192E-6;
1,26719200473165E-6;
-1,90496462990973E-6;
-4,53381024731346E-6;
-5,53982720024856E-6;
-4,80216764152689E-6;
-3,13304558079246E-6;
-1,6208830626095E-6;
-8,72711913735347E-7;
-7,22064620585656E-7;
-5,62678808659581E-7;
3,42775333585054E-8;
9,54217881663655E-7;
1,70399851379084E-6;
1,91756233303711E-6;
1,72732729437983E-6;
1,65799137665795E-6;
2,12571054985158E-6;
2,9801892871938E-6;
3,50886122061884E-6;
2,94420607511981E-6;
1,09082174051449E-6;
-1,42961698812217E-6;
-3,52924181171951E-6;
-4,35106471077787E-6;
-3,79579583295283E-6;
-2,50122076817856E-6;
-1,32368859758001E-6;
-7,41385788873602E-7;
-6,2495564108272E-7;
-4,99914651130376E-7;
-3,06174518595132E-8;
6,93619873688364E-7;
1,28784103677058E-6;
1,46615151022804E-6;
1,33072490953123E-6;
1,28870969426471E-6;
1,66311419180267E-6;
2,3381059600878E-6;
2,76279263197611E-6;
2,34344927128689E-6;
9,26895352555524E-7;
-1,01145067828123E-6;
-2,6375223141061E-6;
-3,29305359934955E-6;
-2,89829509092667E-6;
-1,93583336253768E-6;
-1,05537549084124E-6;
-6,20317869682308E-7;
-5,34215369140541E-7;
-4,39750908051333E-7;
-8,41420845025171E-8;
4,65732749064074E-7;
9,21045810736149E-7;
1,06715831094434E-6;
9,79470157970985E-7;
9,60838167329267E-7;
1,25160773242739E-6;
1,76646162607439E-6;
2,0978216249183E-6;
1,80607230064352E-6;
7,75647505639029E-7;
-6,47303252493642E-7;
-1,85324520768985E-6;
-2,35983825017093E-6;
-2,1049124148287E-6;
-1,4342119125989E-6;
-8,15077878512294E-7;
-5,09535907854682E-7;
-4,5005882410548E-7;
-3,82565822563655E-7;
-1,27306045527027E-7;
2,68582599832138E-7;
6,00926679796836E-7;
7,17853810527641E-7;
6,71280279411738E-7;
6,72383628403235E-7;
8,88814884333587E-7;
1,2620222305376E-6;
1,51030212470366E-6;
1,32944707734311E-6;
6,37114964654069E-7;
-3,33723308143776E-7;
-1,17031425583954E-6;
-1,54461975781608E-6;
-1,41016861848933E-6;
-9,93209582689297E-7;
-6,01676108178875E-7;
-4,08926827936164E-7;
-3,72587092616852E-7;
-3,28656619169154E-7;
-1,61125484540395E-7;
1,0006159908255E-7;
3,2454738325197E-7;
4,15224628452264E-7;
4,03618434015223E-7;
4,21105201786939E-7;
5,7204668198636E-7;
8,21122241103598E-7;
9,96082270462467E-7;
9,10522493377954E-7;
5,111713034456E-7;
-6,70663271213621E-8;
-5,82143625987267E-7;
-8,39997460004708E-7;
-8,08053352612227E-7;
-6,09322070084021E-7;
-4,13858592829743E-7;
-3,182647273462E-7;
-3,0180090509509E-7;
-2,78232257911226E-7;
-1,86597352267129E-7;
-4,20264479667158E-8;
8,88097535826562E-8;
1,56068263902754E-7;
1,73767932824334E-7;
2,04590867052923E-7;
2,98388255404858E-7;
4,39775303700029E-7;
5,50634287887207E-7;
5,45924702392808E-7;
3,9754716227455E-7;
1,56413941546778E-7;
-8,18357740076734E-8;
-2,38166190948671E-7;
-2,92194891788707E-7;
-2,78798263258677E-7;
-2,50167310483723E-7;
-2,37226795898233E-7;
-2,37619730804349E-7;
-2,31439945714155E-7;
-2,04692888571185E-7;
-1,59907555002662E-7;
-1,09477725595626E-7;
-6,29336477407791E-8;
-2,10905457892539E-8;
2,03205989957491E-8;
6,47791343705607E-8;
1,13796008403184E-7;
1,69191379415067E-7;
2,32059207710852E-7;
2,95855751506191E-7;
3,4049491577892E-7;
3,37663377347287E-7;
2,68897643654798E-7;
1,43987008008266E-7;
2,2715048143679E-9;
-1,09037043967974E-7;
-1,65415181698624E-7;
-1,79888808143521E-7;
-1,88351297391081E-7;
-2,1634228051142E-7;
-2,55812192856687E-7;
-2,73535197509023E-7;
-2,45142438088644E-7;
-1,83830555982706E-7;
-1,3428620849576E-7;
-1,31919558211548E-7;
-1,61115831586366E-7;
-1,53154963339892E-7;
-3,47995367028625E-8;
2,05620612143927E-7;
4,88923903167048E-7;
6,83440509975009E-7;
6,89287235124515E-7;
5,07151547471517E-7;
2,37867846591069E-7;
1,11565772902821E-8;
-1,02370630579678E-7;
-1,28396067614066E-7;
-1,48991843067782E-7;
-2,22425871733122E-7;
-3,31926423703626E-7;
-4,06560578416219E-7;
-3,93909538187602E-7;
-3,17320053247709E-7;
-2,61813118090377E-7;
-2,94863945647698E-7;
-3,8929475194939E-7;
-4,21361004149784E-7;
-2,5844185958019E-7;
1,26284585932603E-7;
6,05366130787625E-7;
9,62502483831767E-7;
1,03103309579012E-6;
8,03931392967996E-7;
4,31978568423283E-7;
1,12072174998339E-7;
-4,75899162496787E-8;
-8,28814567248977E-8;
-1,13330072324236E-7;
-2,23768660858526E-7;
-3,9037998604559E-7;
-5,11687626865058E-7;
-5,1252795698875E-7;
-4,24389187687601E-7;
-3,64823482328849E-7;
-4,27186308512108E-7;
-5,75036638024968E-7;
-6,40348502292902E-7;
-4,42653057366945E-7;
5,72399075269113E-8;
6,93359921102418E-7;
1,18168529384553E-6;
1,30200337818854E-6;
1,04083619012638E-6;
5,88535588828604E-7;
1,95373776385769E-7;
-5,36915878474396E-10;
-4,30479679521627E-8;
-8,12967465011913E-8;
-2,21137408900014E-7;
-4,33213103568936E-7;
-5,91944603597187E-7;
-6,04194204864258E-7;
-5,07789263197564E-7;
-4,45810529756116E-7;
-5,31948272761028E-7;
-7,2255346207878E-7;
-8,14947036912183E-7;
-5,9116657911758E-7;
-2,16769089452212E-9;
7,56287692743764E-7;
1,34758545887315E-6;
1,50980346853366E-6;
1,22418199831743E-6;
7,11377247500636E-7;
2,62702357694296E-7;
3,93437706788452E-8;
-8,56641557026964E-9;
-5,27841706527129E-8;
-2,15236643170158E-7;
-4,62365725514456E-7;
-6,50230725311036E-7;
-6,7197729789247E-7;
-5,70167422625235E-7;
-5,07183603326767E-7;
-6,12113381695394E-7;
-8,35917616618003E-7;
-9,49833983736266E-7;
-7,0761745786987E-7;
-5,26131320149215E-8;
7,97351003346662E-7;
1,46649880752675E-6;
1,66172363906563E-6;
1,36003050697115E-6;
8,04196893696066E-7;
3,15662823851701E-7;
7,26161979926681E-8;
2,09080535590527E-8;
-2,76566941323785E-8;
-2,06706648672976E-7;
-4,79663727765097E-7;
-6,89296493860851E-7;
-7,18792198454816E-7;
-6,14044282297291E-7;
-5,51242824937423E-7;
-6,70512516198017E-7;
-9,19031715519165E-7;
-1,04949904492412E-6;
-7,95507056696665E-7;
-9,47898419086311E-8;
8,19550174774465E-7;
1,54438244263505E-6;
1,76467482572807E-6;
1,45414624471617E-6;
8,70523626633864E-7;
3,55803050104461E-7;
9,98492790701892E-8;
4,57369910988423E-8;
-5,75475016003627E-9;
-1,96124905470934E-7;
-4,86810647425551E-7;
-7,11721802653933E-7;
-7,47384285387245E-7;
-6,41800399483865E-7;
-5,80165919646822E-7;
-7,09836818189188E-7;
-9,75600739695855E-7;
-1,11820529239232E-6;
-8,58176998190677E-7;
-1,29391277008365E-7;
8,25673852592273E-7;
1,58681459209441E-6;
1,8251498088792E-6;
1,51195562255917E-6;
9,13690963208424E-7;
3,84601500543522E-7;
1,21601090342701E-7;
6,62868805677081E-8;
1,30992549344749E-8;
-1,84008441326506E-7;
-4,85377959520887E-7;
-7,19908640130119E-7;
-7,60320396239332E-7;
-6,55664603506321E-7;
-5,95996300778551E-7;
-7,32609824555144E-7;
-1,0091072900367E-6;
-1,15997020604018E-6;
-8,98786858132557E-7;
-1,57105090822418E-7;
8,1829345601364E-7;
1,59898446976963E-6;
1,84920293966085E-6;
1,53852767596608E-6;
9,36826894824661E-7;
4,03463766287614E-7;
1,38418958513134E-7;
8,29254432062396E-8;
2,90987829047745E-8;
-1,70810490717235E-7;
0,00933295723532475;
0,0226290137459269;
0,0163719773038346;
0,00943243847885409;
0,012168791154045;
0,00702542614525327;
0,00563379432971276;
0,00458153151041177;
0,000839579791234659;
0,00103221376439207;
-0,0011896397418479;
-0,00199036698632843;
-0,00280529450948123;
-0,00455214276276245;
-0,00488638216112302;
-0,00585548700344732;
-0,00594106644159019;
-0,00618239230735574;
-0,00699353422489463;
-0,00792086047677375;
-0,0186827844616576;
-0,0328733208003496;
-0,026891985191483;
-0,0195422691254441;
-0,0213776522772915;
-0,0154572018741478;
-0,0134662709826748;
-0,0120413589476207;
-0,00788947883876549;
-0,00745126399018349;
-0,00448424195071631;
-0,00296498336602157;
-0,00164413452686098;
0,000464430271344915;
0,00122443353967648;
0,00282974982693517;
0,00371314407604454;
0,00460976516398403;
0,00563255354888039;
0,00625531526492397;
0,00712271918063264;
0,00765514662955382;
0,00811100912021456;
0,00845070470710946;
0,00858234747102259;
0,00874624222711151;
0,00879309516802469;
0,0088321806366245;
0,00881226818522074;
0,00869693344043026;
0,00854990297009339;
0,00833819600595557;
0,00811978013432864;
0,00787666887982857;
0,00758948749579489;
0,00726042864971804;
0,006882500136928;
0,00650207152535953;
0,00614653457484224;
0,00582717304390203;
0,00552369875728801;
0,00518761483135932;
0,00479010901817847;
0,00432790817342077;
0,00383334049103036;
0,00334802326630126;
0,00289413091237461;
0,00246894732573735;
0,00205127653045925;
0,0016275147050806;
0,00120337486968163;
0,000797845439972773;
0,000425892005381586;
8,29335784261211E-5;
-0,000249913047062739;
-0,000587524176640185;
-0,000923052807431347;
-0,00122775572463304;
-0,00147137854914277;
-0,00164661543297313;
-0,00177922526624332;
-0,00191373461144603;
-0,00208479170879782;
-0,00229542123516193;
-0,00251767568098866;
-0,00271463752494388;
-0,00286594887726136;
-0,00297784736304603;
-0,00307186767020228;
-0,00316346818100963;
-0,00324920000324029;
-0,00331234608184194;
-0,00334076997251682;
-0,00334020786331718;
-0,00333046306994589;
-0,00332720890692526;
-0,00332516508682518;
-0,00329827601810064;
-0,00321875584342339;
-0,00308083647636201;
0,0064233187877927;
0,0198797857239039;
0,0137385699917599;
0,00686678549338132;
0,00964899775713724;
0,00456433837841449;
0,00326306700627993;
0,00232617840080942;
-0,0012964747730914;
-0,000995637696866837;
-0,00311704200231002;
-0,00380890823178624;
-0,00449479676516761;
-0,00609785834412995;
-0,00629256316212834;
-0,00714148159996343;
-0,00712126088664514;
-0,00724626058880063;
-0,00790384360305561;
-0,00863454106180503;
-0,00984728505261747;
-0,0105474492331995;
-0,0106823829686802;
-0,0101877695668028;
-0,00923333911589984;
-0,00840038596809727;
-0,00772468641768362;
-0,00726117644995962;
-0,00676560377689948;
-0,00606802831803134;
-0,014604558499775;
-0,0271294035926634;
-0,0203004594733857;
-0,0129245218426766;
-0,0151695371168761;
-0,00934767341360192;
-0,00713419835645738;
-0,00539666705329882;
-0,00138112648201049;
-0,00177826711614823;
-1,6123907981084E-6;
0,000530664707927478;
0,00156697136363398;
0,00405040876356991;
0,00537411422621502;
0,00724333373653702;
0,00795392780959767;
0,00859990042434438;
0,00978945660608079;
0,0112034954152323;
0,0131884064951961;
0,0145508523579268;
0,0150903656149039;
0,0147861852534693;
0,0140054117567673;
0,0134977686995408;
0,013266034644796;
0,0131243476690462;
0,0125599028960698;
0,0113338270511796;
0,00977119268159115;
0,00838407138647764;
0,00764441719740679;
0,00750618849291697;
0,00752991154704157;
0,00726682260613604;
0,00660106242919143;
0,00588879861221209;
0,00560489225935861;
0,00594350683701181;
0,00661204226284947;
0,00701518740335169;
0,00670858425205565;
0,00570669821376692;
0,00445030318257586;
0,00343430529731794;
0,0028170019383457;
0,00233048075743047;
0,00154192687926158;
0,000255830936167772;
-0,00129104755441437;
-0,00259614885662485;
-0,0032785708503211;
-0,00336933615833833;
-0,00326205091060817;
-0,00337273521807994;
-0,00379120049176965;
-0,00421396519334006;
-0,0042143741442204;
-0,00362441024520571;
-0,00271307443155571;
-0,00201115733476592;
-0,00192259898455232;
-0,00243522848032504;
-0,00315972959385357;
-0,00365811144434975;
-0,00378959933147892;
-0,0037948778655552;
-0,00405929198610778;
-0,00475932630708752;
-0,00568829656488992;
-0,0064038633174282;
-0,00657229194800005;
-0,00622343954574347;
-0,00570746705023517;
-0,00539286605030855;
-0,00535865714208588;
-0,00533645048121846;
-0,00494981117175109;
-0,00405227930313568;
-0,00288405609199549;
-0,00191628641551589;
-0,00150727628837715;
-0,00164701437625997;
-0,00199206305950032;
-0,00215558299196564;
-0,00201250612646307;
-0,0017738625114146;
-0,00177837110999335;
-0,00218160773590815;
-0,0028029029840459;
-0,00325501939271377;
-0,00324617023236181;
-0,00280315186610051;
-0,00223267178512756;
-0,00185630576222591;
-0,00174123721275402;
-0,00165054178380131;
-0,00125374287951984;
-0,000422931548981629;
0,000630739369470097;
0,00149424579657997;
0,00185400396797746;
0,0017192703371634;
0,00139128931962566;
0,0012095701527138;
0,00128524266995181;
0,0014361052711652;
0,0013682204390836;
0,000946553750524319;
0,0003280889989778;
-0,0001510215409507;
-0,000237747709545597;
4,4567844821109E-5;
0,000430464429267101;
0,000642649362294557;
0,000625113146537882;
0,000585248263215498;
0,000810459441952321;
0,00141140359848519;
0,00220436529841139;
0,00283095347835652;
0,0030195047331099;
0,00277840730935466;
0,00236908625279259;
0,00208634272516598;
0,00202781986934244;
0,00203783501764166;
0,001863902278673;
0,00138981532698021;
0,000750112574969412;
0,000232952273308325;
5,48744717594508E-5;
0,000195358583712849;
0,000426883980981509;
0,000512792050570034;
0,000406777649944159;
0,000288045866847412;
0,000403319210028598;
0,00084673933195014;
0,00145973714963496;
0,00193435297981416;
0,00203745408740811;
0,00177609159974376;
0,00137409476391661;
0,00108410457949287;
0,000990601884084536;
0,000961903542114631;
0,000783431757166397;
0,000355988862960807;
-0,000207041776894727;
-0,000662249905500618;
-0,000827161171667288;
-0,000720009351349108;
-0,000533622511664243;
-0,000467564330922179;
-0,000559672223786697;
-0,00065723455144375;
-0,000551437611053844;
-0,000163592139084629;
0,000370827523477556;
0,000790298782541959;
0,000897097537234122;
0,000696854162454897;
0,00037850958580596;
0,000155599728749056;
0,000100226655740281;
0,000102581488316617;
-1,71805348021301E-5;
-0,000342671386752053;
-0,000779927218616624;
-0,00112657147815363;
-0,00123132461152025;
-0,00111026708830211;
-0,000924407755841009;
-0,000839368984666256;
-0,000885336146676607;
-0,000933954190654977;
-0,000811120869341205;
-0,000452167203958287;
2,87869156059394E-5;
0,000412944768047031;
0,000535161489158501;
0,000399883420023155;
0,000164207997570595;
5,94919693970439E-6;
-1,40879955523169E-5;
1,43009132731204E-5;
-5,69329855782251E-5;
-0,000297021704295203;
-0,000629490073821122;
-0,000889110435816436;
-0,000952776657790942;
-0,000834405794758475;
-0,000665912459779938;
-0,000581979934133741;
-0,000605819041215708;
-0,000631188072444554;
-0,000515429810814968;
-0,000206419600310888;
0,000201374106560746;
0,000528208258048872;
0,00063872007536105;
0,000536418999762811;
0,000349588408718483;
0,000223677053612087;
0,000209258863795441;
0,00023469246789951;
0,000180786355027328;
-8,55631517192919E-6;
-0,000272515553385755;
-0,000479267803438105;
-0,000530996382552571;
-0,000439537176105052;
-0,000310476894040057;
-0,000250588927866523;
-0,000276850375402612;
-0,000303012929388664;
-0,000214757982846768;
2,88250122802585E-5;
0,000351120107086638;
0,000607709097882564;
0,000690148633938989;
0,000601140237908722;
0,000443012659977034;
0,000332032243408159;
0,000309485949211837;
0,000319971751280396;
0,000270183970658451;
0,000115836078303729;
-9,62377922624216E-5;
-0,000264091755170063;
-0,00031250938796929;
-0,00025143333115192;
-0,000162904879169778;
-0,000128809459778533;
-0,000160680110844614;
-0,00019027509592473;
-0,000128679038650005;
5,5007958761847E-5;
0,000300189823041565;
0,000494076957553103;
0,000552300549987787;
0,00047681859173173;
0,000346721920061555;
0,000252131164922936;
0,000225924238460053;
0,000227057874123512;
0,000185211884581003;
6,65959600288324E-5;
-9,43727340788519E-5;
-0,000222269929853918;
-0,000261926813231479;
-0,00022159956783056;
-0,000162472046898975;
-0,000144445471589551;
-0,000174359218133038;
-0,000200062456697773;
-0,000155224168736969;
-1,78062824129569E-5;
0,000165848869021819;
0,000311031935703387;
0,000354725597249078;
0,000298218170651458;
0,000199983725617241;
0,000126929415012098;
0,000104394047607552;
0,000103926490316798;
7,54491835800189E-5;
-5,56446211179447E-6;
-0,00011560081399668;
-0,000202543155227449;
-0,000228821963903583;
-0,00020118215464879;
-0,000162478390840801;
-0,000153351633978847;
-0,000176618111387666;
-0,000194355936852137;
-0,000160106795546233;
-5,95794253214932E-5;
7,34784890589716E-5;
0,000179087575455368;
0,000213020510721866;
0,000175994239718752;
0,000108384499131396;
5,67003129415069E-5;
3,96028001555895E-5;
3,95956615099086E-5;
2,42785795846648E-5;
-2,27539348379086E-5;
-8,74449065552002E-5;
-0,000137936532239572;
-0,000151934768427511;
-0,000134822941423687;
-0,000113489804212141;
-0,000111857127138686;
-0,000129320537473472;
-0,000140406930714673;
-0,000115959048022914;
-4,83739505490276E-5;
3,96365835835999E-5;
0,000109672758754846;
0,000133892583133105;
0,000112542667803252;
7,02795799330414E-5;
3,58737517527782E-5;
2,21327874353522E-5;
2,09917876954212E-5;
1,53294865935776E-5;
-4,2081779140418E-6;
-3,16695858249864E-5;
-5,26085715387869E-5;
-5,78392277673062E-5;
-5,15279756226289E-5;
-4,68070973502004E-5;
-5,32487730416867E-5;
-6,73831369980936E-5;
-7,4517683568121E-5;
-6,03961894450886E-5;
-2,31248996340389E-5;
2,41518544396749E-5;
6,16604069315161E-5;
7,56899518543068E-5;
6,61036438008702E-5;
4,40527800620329E-5;
2,30463699959221E-5;
1,08068844667944E-5;
7,2827066037646E-6;
8,39659050757424E-6;
1,08419319490458E-5;
1,3706692501832E-5;
1,66536897743164E-5;
1,77573459289344E-5;
1,39221592590018E-5;
3,71663979212029E-6;
-1,02799799473245E-5;
-2,22454239952816E-5;
-2,67224593140956E-5;
-2,21384427119412E-5;
-1,14136805305224E-5;
5,00444374586023E-7;
9,70817928953882E-6;
1,45324551993007E-5;
1,4525385086385E-5;
9,37582356446277E-6;
-3,80008897767905E-7;
-1,13936441428808E-5;
-1,70118587751775E-5;
-1,03326159807209E-5;
1,04522441107832E-5;
3,87011695819349E-5;
6,17032767623E-5;
6,82495374820718E-5;
5,61738660934813E-5;
3,38520585687717E-5;
1,39957566041298E-5;
4,31319291087579E-6;
2,45079047899647E-6;
-6,65218465243625E-7;
-1,1952536768163E-5;
-2,9440634690369E-5;
-4,36791214251704E-5;
-4,62424012599106E-5;
-3,78252713878398E-5;
-2,83262455869588E-5;
-2,80790404538388E-5;
-3,74510992218788E-5;
-4,42769063404084E-5;
-3,25624243973813E-5;
3,76061995873344E-6;
5,33537325548863E-5;
9,33289563744351E-5;
0,000104859098742119;
8,65765687457628E-5;
5,49386293438402E-5;
3,09538317688888E-5;
2,37998594622988E-5;
2,46190110160259E-5;
1,55518182408671E-5;
-1,35738191128292E-5;
-5,50279090864488E-5;
-8,8324589361034E-5;
-9,66964693620635E-5;
-8,10261981418188E-5;
-5,90895074803542E-5;
-5,01706011955373E-5;
-5,77462385808367E-5;
-6,5214719437253E-5;
-4,91995442213596E-5;
-1,47604685053532E-7;
6,68397742732412E-5;
0,000120685477888739;
0,000136450401550043;
0,000113446380894497;
7,46525555607409E-5;
4,77197116922048E-5;
4,29267213390507E-5;
4,61012731198882E-5;
3,22845346814339E-5;
-1,12792946080357E-5;
-7,21555413505108E-5;
-0,000120915294997342;
-0,000134042785483921;
-0,000112555193121602;
-8,05587887889582E-5;
-6,45508196145024E-5;
-7,05634171223549E-5;
-7,8522626697704E-5;
-5,92065055934792E-5;
-2,75854007091546E-7;
8,02421764012689E-5;
0,000144864610753152;
0,000163890612450771;
0,000137202849509681;
9,29032080553574E-5;
6,3803951539141E-5;
6,09612126940717E-5;
6,59609138921253E-5;
4,82594657799118E-5;
-6,88345074564741E-6;
-8,32792134469876E-5;
-0,000144436745220382;
-0,00016152354990848;
-0,000135645067568109;
-9,58520661652816E-5;
-7,4296193970479E-5;
-7,90643476570514E-5;
-8,74676562943062E-5;
-6,5810341557574E-5;
4,07083130893457E-7;
9,09740498546191E-5;
0,000163586850059749;
0,000184981932497018;
0,000155513599688851;
0,000107160977053767;
7,65831554041333E-5;
7,53304995777294E-5;
8,17060031820761E-5;
6,09295755355049E-5;
-3,19360883685937E-6;
-9,1571462545677E-5;
-0,000162327931495394;
-0,000182589939009627;
-0,00015351205781266;
-0,000107858500945174;
-8,20492923838802E-5;
-8,57776847781045E-5;
-9,44958224990307E-5;
-7,12476601194825E-5;
7,06422631758206E-8;
9,77174477815838E-5;
0,000175964527183426;
0,000199040737039245;
0,000167682169833926;
0,000116646359644379;
8,52826873221251E-5;
8,53911198551823E-5;
9,28413942719143E-5;
6,98066112288465E-5;
-8,9787925562732E-7;
-9,80305197647133E-5;
-0,000175812474460645;
-0,000198457391101091;
-0,000167136167723806;
-0,000117242721459141;
-8,82436396187551E-5;
-9,1039930246939E-5;
-9,98845411110119E-5;
-7,56245162644561E-5;
-1,04070964809856E-6;
0,000101162007165804;
0,000183049154122463;
0,000207261831807114;
0,000174837615033889;
0,000122352690066683;
9,08396495139349E-5;
9,2139483698978E-5;
0,00010043503674763;
7,58927403826232E-5;
7,41809287180522E-7;
-0,000102288680929389;
-0,000184814293381013;
-0,000209121506602953;
-0,000176370249282998;
-0,000123639087448369;
-9,237420061692E-5;
-9,43329293241227E-5;
-0,000103138466531887;
-7,83629275581964E-5;
-2,09763810727067E-6;
0,000102478421837994;
0,000186276432261186;
0,000211143231880841;
0,000178346951858015;
0,000125453160585517;
9,43104195697596E-5;
9,66254926103603E-5;
0,000105543552104074;
8,01244107005884E-5;
2,35806502179813E-6;
-0,000104114098172615;
-0,000189425518863037;
-0,00021478912124885;
-0,000181331542309522;
-0,000127000709356049;
-9,43004533081614E-5;
-9,55375487165634E-5;
-0,000104191017563921;
-7,93483585585445E-5;
-2,77803298307397E-6;
0,000102282980462614;
0,000186488935041833;
0,000211568640824974;
0,000178958688967624;
0,00012650594583657;
9,61372202661221E-5;
9,92801550595858E-5;
0,000108600694375137;
8,28217224827135E-5;
3,9883317700074E-6;
-0,000103840138541747;
-0,00019027691684778;
-0,000216191847279362;
-0,000182660569914852;
-0,000127805611340928;
-9,44013585982527E-5;
-9,50389406983303E-5;
-0,000103461656750706;
-7,89411491658939E-5;
-3,23500783585713E-6;
0,000100710659125281;
0,000184048173911392;
0,000208956522972108;
0,000176986859685114;
0,00012567084112687;
9,63948116013237E-5;
0,00010018980626202;
0,000109716828078571;
8,40111919831226E-5;
5,41903349754748E-6;
-0,000102001949084559;
-0,000188157609808851;
-0,000214191619913706;
-0,00018111511793121;
-0,000126641484911035;
-9,31528857572229E-5;
-9,32986268508049E-5;
-0,000101424307174927;
-7,754308728223E-5;
-3,66344504960983E-6;
9,78468778463731E-5;
0,000179263102727866;
0,000203683903433441;
0,000172728704709863;
0,000123119457365806;
9,51918699719933E-5;
9,94875159228836E-5;
0,000109059420318357;
8,37945555764825E-5;
6,54200628097449E-6;
-9,89931203935149E-5;
-0,000183685587375337;
-0,000209465812214835;
-0,000177270637055026;
-0,000123921920861534;
-9,08604871743316E-5;
-9,06034537977093E-5;
-9,83728834844022E-5;
-7,53795205216994E-5;
-4,09861489981207E-6;
9,39124449359644E-5;
0,000172558614245865;
0,000196238384789955;
0,000166600220842947;
0,000119154421530148;
9,27741479672092E-5;
9,74406440315217E-5;
0,000106925496650172;
8,24066042080988E-5;
7,39812901852268E-6;
-9,50357922265553E-5;
-0,000177291000562255;
-0,000202503078447757;
-0,000171527984950903;
-0,000119905486920961;
-8,76889980420255E-5;
-8,71058016557308E-5;
-9,44711384365628E-5;
-7,25579529521404E-5;
-4,48260597031379E-6;
8,919007408217E-5;
0,000164395542152396;
0,000187131911116608;
0,000159043933840087;
0,000114111619072664;
8,94219025623342E-5;
9,43442974840113E-5;
0,000103631820930936;
8,01025485009994E-5;
8,06223585081215E-6;
-9,02977870705104E-5;
-0,000169334708348415;
-0,000193722503711703;
-0,000164232425694081;
-0,000114814057893747;
-8,37800455973491E-5;
-8,29398533794631E-5;
-8,9867387071593E-5;
-6,91805706974971E-5;
-4,77387831717054E-6;
8,3918321306089E-5;
0,000155168157501416;
0,000176801600701293;
0,00015043281103088;
0,00010826719680734;
8,5360339821301E-5;
9,04356493907785E-5;
9,94333595218949E-5;
7,70805725477227E-5;
8,56947322425693E-6;
-8,49625647576222E-5;
-0,00016017430352067;
-0,000183535210850013;
-0,000155730354269971;
-0,000108884537526526;
-7,92990107288357E-5;
-7,82641296383849E-5;
-8,47326780234369E-5;
-6,53777412728247E-5;
-4,9756755068399E-6;
7,82684482710308E-5;
0,00014518599096075;
0,000165595757367585;
0,000141059718345176;
0,000101830108604999;
8,07553013844985E-5;
8,58930000596527E-5;
9,45256795995398E-5;
7,34870918715479E-5;
8,92279196146359E-6;
-7,92199240145163E-5;
-0,000150152972617138;
-0,000172330940391706;
-0,000146353201454717;
-0,0001023500981111;
-7,44140265683183E-5;
-7,32387734396455E-5;
-7,92365971469653E-5;
-6,12821022894872E-5;
-5,10795166804807E-6;
7,23747861117154E-5;
0,00013470603966182;
0,000153807072573117;
0,000131170758425082;
9,49751700502487E-5;
7,57461684682692E-5;
8,08687943146964E-5;
8,90780453926373E-5;
6,9449470439094E-5;
9,12458090329876E-6;
-7,32358880457285E-5;
-0,000139570717507084;
-0,000160450008701369;
-0,000136389563778862;
-9,54123431842863E-5;
-6,92685473137125E-5;
-6,7999019529882E-5;
-7,35217471174908E-5;
-5,70036720500632E-5;
-5,18253323697147E-6;
6,63598326498297E-5;
0,000123957789867328;
0,000141696735065047;
0,000120987693986817;
8,78635288154773E-5;
7,04646258967891E-5;
7,55071035671932E-5;
8,32497340105262E-5;
6,50907431293745E-5;
9,1891659480716E-6;
-6,71427356263332E-5;
-0,000128676637791546;
-0,000148177051808019;
-0,000126079610107357;
-8,82361274012879E-5;
-6,39768604862509E-5;
-6,26517975001839E-5;
-6,77015165913346E-5;
-5,26282804508653E-5;
-5,20146437603585E-6;
6,03363733672192E-5;
0,000113145540598859;
0,000129496192054796;
0,000110708381807063;
8,06415267718973E-5;
6,50323113344357E-5;
6,99405957529338E-5;
7,71864694013745E-5;
6,05251076369207E-5;
9,1367182911693E-6;
0,00927238703168103;
0,0225120513453363;
0,0162369860556919;
0,0093174710609442;
0,0120884326891105;
0,00696753393385178;
0,00557753186822624;
0,0045208401930981;
0,000792272991535768;
0,00102722682393635;
-0,00113603913749041;
-0,00188951024754609;
-0,00268973547421449;
-0,00445318071090981;
-0,00481389117436071;
-0,00579634713487734;
-0,00587693385746159;
-0,0061114747645491;
-0,00693772579649058;
-0,00791171824231929;
-0,00940392672051692;
-0,0103496414483179;
-0,010641875719781;
-0,0102137219191166;
-0,00928136455799913;
-0,00848361693494398;
-0,00788241002415868;
-0,0075135796439891;
-0,00709191605909576;
-0,00642375612337468;
-0,00562682562722642;
-0,00486649833540204;
-0,00434750904481168;
-0,0040002662642674;
-0,00359748387934782;
-0,00297245352230167;
-0,0021696025736938;
-0,00150799398230837;
-0,0013099268826971;
-0,00165649637719927;
-0,00227491966975232;
-0,00268311022723445;
-0,00251798698320261;
-0,00175213194815687;
-0,000691294097481219;
0,000268561922048237;
0,000916874265987393;
0,0013253829053173;
0,00172554206581015;
0,00227351328838229;
0,00291679037522021;
0,00346010618270095;
0,00375907933469428;
0,00386524547682386;
0,00398419561192856;
0,00428223119664188;
0,00470716134063173;
0,00498786689615851;
0,0048318852647429;
0,0041704968612359;
0,00325481841956587;
0,00251551719360448;
0,00228460895735815;
0,00258634316713183;
0,00314954706756097;
0,00362234093266941;
0,0038169890549018;
0,00380088458484831;
0,00378185255559315;
0,00390140793651235;
0,00411418732170786;
0,00424687535176445;
0,00417234532984991;
0,00393748296243626;
0,00372676869485125;
0,00368913796165047;
0,00377851654318189;
0,00375404863969285;
0,00335587564603555;
0,00252362787091947;
0,00148133346512983;
0,000612321760010895;
0,000211793268896381;
0,000301069130961679;
0,000639077965643978;
0,000913225716899146;
0,000956767585827234;
0,000829308806540555;
0,000714818486659934;
0,000738354209175762;
0,000859357453456635;
0,000924046628924819;
0,000819606687548223;
0,000587119806347969;
0,00038914599722125;
0,000356585630177113;
0,000447959201702471;
0,000449919319517939;
0,00013262930809373;
-0,000557523239598384;
-0,0107568115337856;
-0,0247573636132398;
-0,0187837370534551;
-0,0116886885664978;
-0,014043850781799;
-0,00856952199140448;
-0,00704436767633041;
-0,00600398608391971;
-0,0022580574270315;
-0,00232162767765728;
0,000117940282186527;
0,00108921184561004;
0,00192783981662551;
0,00358706882610106;
0,0038644729882826;
0,00492182727836982;
0,00520398434662062;
0,00556303990707531;
0,00621162877617697;
0,00664897904497598;
0,00743215605210009;
0,00782007594966627;
0,0079543212754553;
0,00778277713765265;
0,00731399734147883;
0,00692179784771607;
0,00653173933391737;
0,00623808173815859;
0,00591728425846715;
0,00548054929655047;
0,00500242242714169;
0,00450541694521567;
0,00408866988414745;
0,0037145821543805;
0,00329832660721852;
0,00279277178295567;
0,00221497952744213;
0,00170695215567279;
0,00139547933283355;
0,00131248991822297;
0,00134733174665324;
0,00129875897772827;
0,00101917049262825;
0,000493846346160203;
-0,000151364218537597;
-0,000749785206157763;
-0,00120854709572895;
-0,0015485008950752;
-0,00186109222871039;
-0,00221179013782963;
-0,00258539626508344;
-0,00290995744818202;
-0,00313210634439498;
-0,0032756233972574;
-0,00342312248009666;
-0,00363768858255644;
-0,00389042915326097;
-0,00406223851893067;
-0,00402840523407573;
-0,0037621478610481;
-0,00337516391043146;
-0,0030570605365551;
-0,0029551044590842;
-0,0030827138525947;
-0,00332274688158961;
-0,00351936926421884;
-0,00358518147829063;
-0,00354372658353374;
-0,00348298445136669;
-0,00346697092048482;
-0,00348220399099126;
-0,00346057749511804;
-0,0033525070461315;
-0,00318113396118729;
-0,00302611868294183;
-0,00294844550611763;
-0,002921681382584;
-0,00283391085549609;
-0,00256746401548494;
-0,00209735856093873;
-0,00152934185679097;
-0,00104258222482034;
-0,000776041800613776;
-0,000742045870731898;
-0,000829790833328168;
-0,000892187591339612;
-0,000846972742794456;
-0,000716553824395846;
-0,000583792313652709;
-0,000508536065273293;
-0,000477227875093459;
-0,000424740922021142;
-0,000303525414984035;
-0,000134739672898376;
7,04410492310083E-6;
6,4712476442036E-5;
6,33389617165433E-5;
0,000108402828707462;
0,000310902960040711;
0,000694959638381671;
0,00116219125172431;
0,00154552695390457;
0,00171570029274314;
0,0016620755439739;
0,00148913096726308;
0,00133500279342618;
0,00127690639880778;
0,0012940987241171;
0,00130950756918639;
0,00126789920760515;
0,00118288834401365;
0,00111630780621154;
0,00111341111597206;
0,00115504548048199;
0,0011719706857755;
0,00111108137662379;
0,000995851676485499;
0,000924714271815579;
0,00100131321643056;
0,00124850340687194;
0,00157526022206785;
0,00182678682270488;
0,00188349810150789;
0,00173599454976482;
0,00148159937318519;
0,00124859571560594;
0,00110848554089382;
0,00104183512563391;
0,000977134286839517;
0,000863398849324516;
0,00071367478148609;
0,000585720379063469;
0,000521788836745767;
0,000504258083870304;
0,000468925022134128;
0,000366378606469193;
0,00021798930802568;
0,00011445139350879;
0,000151349116908281;
0,000349753805933873;
0,000625727843770666;
0,000836602211161685;
0,000872243679434187;
0,000724050966008572;
0,00048159390570178;
0,000262716220618169;
0,000132786587510024;
7,34478834615538E-5;
1,85925395639963E-5;
-7,87435767517145E-5;
-0,0002064381800434;
-0,00031121946189025;
-0,000354178288459205;
-0,000351605089734404;
-0,000362748157853234;
-0,000433387735001668;
-0,000544383166184912;
-0,000612969611978591;
-0,000551811117766733;
-0,00034173512589501;
-5,96209500375559E-5;
0,000163998431834271;
0,000228423633127992;
0,000125786773618665;
-6,21706858530179E-5;
-0,000228071983711551;
-0,00031263464721114;
-0,000333042668864127;
-0,000349909126268147;
-0,000406129321512366;
-0,000490495059006297;
-0,000554214581846687;
-0,00056168359324334;
-0,000527776390269092;
-0,000506665098928972;
-0,000540351986993286;
-0,000611756770003419;
-0,000645857488601665;
-0,000563384893915183;
-0,000346925653188296;
-6,62294043694837E-5;
0,000160325109115591;
0,000241496774301751;
0,000170250583287365;
2,07018673056988E-5;
-0,00010997247123362;
-0,000168322764669476;
-0,000170182224953237;
-0,000170569715041239;
-0,000208238717862889;
-0,000272794318066784;
-0,000319786625003265;
-0,000316778847908284;
-0,000277132921642005;
-0,000249880682145634;
-0,000273151566492195;
-0,000331737419272223;
-0,000358084228745355;
-0,000280723528960814;
-8,38704515805713E-5;
0,000169792594993559;
0,000373854907568932;
0,000446385551964733;
0,000381215586720301;
0,000245069196031346;
0,000125243403035699;
6,95945044814849E-5;
6,37072949933207E-5;
5,80937705966609E-5;
1,80740453793116E-5;
-4,67468176476321E-5;
-9,61582560144006E-5;
-0,0001008089696112;
-7,25706795250217E-5;
-5,54378067740606E-5;
-8,37267388580418E-5;
-0,000144000888560112;
-0,000175921145093707;
-0,000115570327861488;
5,12549132333857E-5;
0,000268699723422094;
0,000441908964856046;
0,000497921672534865;
0,000431370320129305;
0,000301812844456137;
0,000186999507631894;
0,000129398367051107;
0,000115973894760962;
0,00010256453784888;
5,83795226865046E-5;
-7,80059950124785E-6;
-5,99205106056758E-5;
-7,16614780275469E-5;
-5,35024236516101E-5;
-4,46132217112929E-5;
-7,56528058790515E-5;
-0,000134893536874451;
-0,000168939377847549;
-0,000121147999315513;
2,11260271156369E-5;
0,000208521050245619;
0,000357194179245168;
0,000402713005491634;
0,000340422281380606;
0,00022298498483488;
0,000119003305792641;
6,5790927659988E-5;
5,16269885479578E-5;
3,74183407327334E-5;
-3,95421828413401E-6;
-6,45559111020008E-5;
-0,000112358044013871;
-0,000123985980639138;
-0,000108624927507787;
-0,00010086313637786;
-0,000127877858011581;
-0,000179563980605386;
-0,000209129863090631;
-0,000166859511749609;
-4,16099179020204E-5;
0,000123391627531262;
0,000254717356895049;
0,000295989391540845;
0,000243199980144459;
0,000142464724209625;
5,37247703363184E-5;
9,4309236686944E-6;
-8,74778270101839E-7;
-1,14840372159209E-5;
-4,60567169927168E-5;
-9,74861045895322E-5;
-0,000137580994177193;
-0,000145771126250981;
-0,000130026613203786;
-0,000120600569564519;
-0,000141362898677643;
-0,000183712347062414;
-0,000207060472507958;
-0,000168204416807783;
-5,74148172910227E-5;
8,78465915389275E-5;
0,000203936996299577;
0,000242040010922836;
0,0001987515768475;
0,000114044356213524;
3,97488941298813E-5;
3,78371737871846E-6;
-3,0925060343879E-6;
-1,06482570460372E-5;
-3,92977005679151E-5;
-8,27221803001786E-5;
-0,000116342010546842;
-0,000122222732343954;
-0,000107192588776108;
-9,74291400917457E-5;
-0,000113679930375034;
-0,000148718582485226;
-0,000167727580127999;
-0,000133571627112331;
-3,78357793814391E-5;
8,73955432214436E-5;
0,000187599068859368;
0,000221001198743318;
0,000184758992917612;
0,000113131448663427;
5,04173121222997E-5;
2,03448273243688E-5;
1,4831964950556E-5;
8,33372002562264E-6;
-1,65459423211674E-5;
-5,4233818422237E-5;
-8,35232688576839E-5;
-8,89399539785463E-5;
