1,95873540599474E-9;
3,59723202601886E-9;
4,0796269315726E-9;
3,35499294672658E-9;
2,01096764916822E-9;
8,26170385192303E-10;
2,30298942312168E-10;
9,04388677260309E-11;
-4,25299411180603E-11;
-4,86391786888519E-10;
-1,15255374025968E-9;
-1,66526425963197E-9;
-1,74744535406241E-9;
-1,50809997469326E-9;
-1,36415778839994E-9;
-1,64686512115169E-9;
-2,23101208826705E-9;
-2,53185177068753E-9;
-1,9230300506395E-9;
-2,61300023095228E-10;
1,90407734037282E-9;
3,62624582334268E-9;
4,16538528080137E-9;
3,45804832163002E-9;
2,10685882461253E-9;
9,09490610002783E-10;
3,06797859486205E-10;
1,68359253660421E-10;
3,45131070284204E-11;
-4,21232211578663E-10;
-1,10885061525862E-9;
-1,64466512536393E-9;
-1,74470639289871E-9;
-1,51714792421042E-9;
-1,38583972605349E-9;
-1,69199002092485E-9;
-2,30900561833595E-9;
-2,64021559454155E-9;
-2,04475304384428E-9;
-3,71230936281721E-10;
1,829260559515E-9;
3,59774577841143E-9;
4,17618147369454E-9;
3,494977015392E-9;
2,15745767883878E-9;
9,6408901271723E-10;
3,64913666986937E-10;
2,32499066121544E-10;
1,01803178061706E-10;
-3,57835684802898E-10;
-1,05539253067825E-9;
-1,60466991825168E-9;
-1,71756878313896E-9;
-1,5019276312036E-9;
-1,38412094797422E-9;
-1,70506455899331E-9;
-2,34022761015611E-9;
-2,69297582586836E-9;
-2,11912461258644E-9;
-4,59177137292764E-10;
1,74016122447289E-9;
3,51951361025796E-9;
4,12443005055622E-9;
3,47634569397479E-9;
2,16829760661326E-9;
9,98569095661438E-10;
4,11403803138964E-10;
2,81856197087857E-10;
1,54322871197237E-10;
-2,99862047678354E-10;
-9,94260170139127E-10;
-1,54653928573239E-9;
-1,66949710671571E-9;
-1,46700324292718E-9;
-1,36143415675979E-9;
-1,69184905953871E-9;
-2,33373443460834E-9;
-2,69960858507237E-9;
-2,15158624845164E-9;
-5,26920348278413E-10;
1,63878860866415E-9;
3,40304484880095E-9;
4,02088824939945E-9;
3,41041677211645E-9;
2,1468189699025E-9;
1,01151241357185E-9;
4,44352331333324E-10;
3,22134612066236E-10;
1,98198238439054E-10;
-2,47007162460927E-10;
-9,28347039875963E-10;
-1,47430989307386E-9;
-1,6041459752042E-9;
-1,41683545573586E-9;
-1,32415713204803E-9;
-1,65626587833063E-9;
-2,29480435473696E-9;
-2,66699389717181E-9;
-2,14697222442638E-9;
-5,76053805628827E-10;
1,52901781184064E-9;
3,25575056937126E-9;
3,8756093687965E-9;
3,30436219488555E-9;
2,09754145227403E-9;
1,00916015227997E-9;
4,6519068665965E-10;
3,49823904379431E-10;
2,32181707443856E-10;
-1,98097551773894E-10;
-8,60193064766165E-10;
-1,39291745915297E-9;
-1,52498421126376E-9;
-1,35343023102287E-9;
-1,2731348762774E-9;
-1,60262440632933E-9;
-2,22861123117324E-9;
-2,60049857815805E-9;
-2,11420359479762E-9;
-6,11557859948067E-10;
1,41337515177913E-9;
3,08441704806066E-9;
3,69775672696544E-9;
3,16871064288398E-9;
2,02706826316191E-9;
9,92787162131142E-10;
4,76354414721807E-10;
3,6970873761257E-10;
2,59697062736744E-10;
-1,53055916368206E-10;
-7,88898915532664E-10;
-1,30357504922816E-9;
-1,43804113634505E-9;
-1,28082913983928E-9;
-1,211584424423E-9;
-1,53448155336442E-9;
-2,14205097437705E-9;
-2,50878316094887E-9;
-2,05592590930655E-9;
-6,31884761814537E-10;
1,29702055548509E-9;
2,89629663133553E-9;
3,4947666516225E-9;
3,00930205349076E-9;
1,937935492891E-9;
9,65139728725569E-10;
4,811242334493E-10;
3,81363476284697E-10;
2,76742462746904E-10;
-1,13294510993305E-10;
-7,17035868326941E-10;
-1,20965554907505E-9;
-1,3432318904059E-9;
-1,20140380193119E-9;
-1,14259033721085E-9;
-1,45520097009054E-9;
-2,03797057326208E-9;
-2,39526809219713E-9;
-1,97999761124245E-9;
-6,4196128573669E-10;
1,18000446672352E-9;
2,69655453414424E-9;
3,27470822757202E-9;
2,8322056586607E-9;
1,83621255840745E-9;
9,28129535721034E-10;
4,75861600975421E-10;
3,86338777835278E-10;
2,89823275493119E-10;
-7,72508250262195E-11;
-6,46228360729757E-10;
-1,11386561850911E-9;
-1,24392577594376E-9;
-1,11744582123904E-9;
-1,0688918671425E-9;
-1,36766066899613E-9;
-1,92335036377902E-9;
-2,26634523345815E-9;
-1,88539370894453E-9;
-6,4061159332484E-10;
1,06340407465271E-9;
2,48811999341045E-9;
3,0420451739864E-9;
2,64319155453576E-9;
1,72325676652066E-9;
8,84431866491003E-10;
4,67134342062915E-10;
3,8379868983016E-10;
2,9511643808511E-10;
-4,64662976666205E-11;
-5,78511029711623E-10;
-1,01648239825525E-9;
-1,14206196532368E-9;
-1,03015530865155E-9;
-9,90948008356198E-10;
-1,27476123638543E-9;
-1,7984891080493E-9;
-2,12700673909556E-9;
-1,78137340326621E-9;
-6,31116191482499E-10;
9,50111962679533E-10;
2,27923987619413E-9;
2,80359065164491E-9;
2,44668101439376E-9;
1,60479771592369E-9;
8,34201747430196E-10;
4,53207124985776E-10;
3,77599835490593E-10;
2,95674419609553E-10;
-1,91899126816552E-11;
-5,12699485254461E-10;
-9,20786060199182E-10;
-1,04156899563383E-9;
-9,43374230216072E-10;
-9,11551819634716E-10;
-1,17876905708306E-9;
-1,66714529488027E-9;
-1,97826468263382E-9;
-1,66961429528046E-9;
-6,14766308002863E-10;
8,41105000982799E-10;
2,06998400138974E-9;
2,5634268191895E-9;
2,24631594431638E-9;
1,48212024640064E-9;
7,81381522800127E-10;
4,34640519469628E-10;
3,67333196274298E-10;
2,94538827857307E-10;
5,42094657331853E-12;
-4,48985879475625E-10;
-8,26020624098096E-10;
-9,41512024904175E-10;
-8,56010114976903E-10;
-8,3117545468023E-10;
-1,08140168237354E-9;
-1,53485882305152E-9;
-1,82609208146128E-9;
-1,55080373006826E-9;
-5,92313166010691E-10;
7,37008068281881E-10;
1,865008936033E-9;
2,32456329389664E-9;
2,0453974491402E-9;
1,35919538454385E-9;
7,25741471355877E-10;
4,11953770721475E-10;
3,5324753111509E-10;
2,86833824606186E-10;
2,42756099059962E-11;
-3,8891491388225E-10;
-7,34392648803166E-10;
-8,4305415045396E-10;
-7,70535960961695E-10;
-7,52398958749862E-10;
-9,83708955824389E-10;
-1,40119742728943E-9;
-1,6722154166674E-9;
-1,42927733743139E-9;
-5,65099533646483E-10;
6,38899239276197E-10;
1,6650627528206E-9;
2,09028810991882E-9;
1,84856841683727E-9;
1,23631272708679E-9;
6,69043136497918E-10;
3,88437258336322E-10;
3,3649048666236E-10;
2,7797397416873E-10;
4,12735024060772E-11;
-3,33538870463389E-10;
-6,47817257821344E-10;
-7,49377690266733E-10;
-6,87957037626968E-10;
-6,75729956073647E-10;
-8,87967623827982E-10;
-1,26903349082547E-9;
-1,52087371772627E-9;
-1,30841237966866E-9;
-5,34385964173101E-10;
5,47945694237506E-10;
1,47503331884717E-9;
1,86575197705245E-9;
1,65767712837825E-9;
1,11441844568824E-9;
6,10787346831412E-10;
3,62077398542869E-10;
3,17259773085941E-10;
2,67220324608666E-10;
5,47560394215404E-11;
-2,82060001786979E-10;
-5,65351493908568E-10;
-6,59483936395089E-10;
-6,07954318205991E-10;
-6,01093347615669E-10;
-7,94951051423181E-10;
-1,14010063164615E-9;
-1,37042337189718E-9;
-1,18782880447395E-9;
-5,01987971170308E-10;
4,63206924626671E-10;
1,29260674252638E-9;
1,64833574187872E-9;
1,47298742568705E-9;
9,9760707367476E-10;
5,54779333453561E-10;
3,37065894675291E-10;
2,98085213470612E-10;
2,52745264155602E-10;
6,52496260892564E-11;
-2,33928054017079E-10;
-4,88355208402647E-10;
-5,7487886939251E-10;
-5,32597266736804E-10;
-5,29595138641321E-10;
-7,05028513058728E-10;
-1,01681005686976E-9;
-1,22586146849045E-9;
-1,06842826594455E-9;
-4,67028171623463E-10;
3,85649909697908E-10;
1,12321717234621E-9;
1,44315717744918E-9;
1,29643423778115E-9;
8,84981920648795E-10;
4,9862470043036E-10;
3,0890342391381E-10;
2,76567254668798E-10;
2,37697089348052E-10;
7,26118556305677E-11;
-1,91084168993974E-10;
-4,16493431354973E-10;
-4,95520197463369E-10;
-4,61473455418181E-10;
-4,62374002655458E-10;
-6,19877135147508E-10;
-8,96595988637709E-10;
-1,08580857643653E-9;
-9,55047876378891E-10;
-4,32113654231662E-10;
3,14249092770472E-10;
9,63819336799402E-10;
1,25099610276586E-9;
1,12977460237426E-9;
7,76767371345018E-10;
4,44692012298832E-10;
2,816433906041E-10;
2,54746105259907E-10;
2,22152709430953E-10;
7,82271575167854E-11;
-1,52159905834746E-10;
-3,49747394647147E-10;
-4,21433432153726E-10;
-3,95018493722554E-10;
-3,99697041278255E-10;
-5,40656733341751E-10;
-7,85041230863025E-10;
-9,54360894459584E-10;
-8,45398555022658E-10;
-3,95386305572082E-10;
2,50604725094951E-10;
8,16806057973796E-10;
1,07199075054052E-9;
9,75705379259021E-10;
6,77467281357659E-10;
3,93460724218808E-10;
2,55046739768324E-10;
2,33834201776105E-10;
2,05842975479585E-10;
8,23424022053861E-11;
-1,16699965697974E-10;
-2,89545800273968E-10;
-3,54319704009013E-10;
-3,35317900457564E-10;
-3,41814348275804E-10;
-4,64897427292666E-10;
-6,7937869204962E-10;
-8,30446301387278E-10;
-7,41203656952E-10;
-3,58985543569428E-10;
1,93026867323161E-10;
6,81893281870003E-10;
9,06602855870416E-10;
8,30562480957751E-10;
5,82533922448463E-10;
3,44924480299473E-10;
2,29332734619131E-10;
2,12844135407716E-10;
1,89211721641654E-10;
8,35897438601898E-11;
-8,63609347824474E-11;
-2,35459730008077E-10;
-2,9274987849451E-10;
-2,78563362175314E-10;
-2,87161679561342E-10;
-3,95632115296389E-10;
-5,81682850064423E-10;
-7,13633099459841E-10;
-6,43952114550454E-10;
-3,24583018027118E-10;
1,43100390877161E-10;
5,58692324680381E-10;
7,54179900288865E-10;
6,97448327905303E-10;
4,94139285009525E-10;
2,98839676751408E-10;
2,03975552544295E-10;
1,91047878906751E-10;
1,72738716003125E-10;
8,45916673797615E-11;
-5,8789984227135E-11;
-1,85304924244436E-10;
-2,35993411478205E-10;
-2,27351726924795E-10;
-2,38301721337577E-10;
-3,32549741393216E-10;
-4,91081390194097E-10;
-6,06127506890921E-10;
-5,53604062366734E-10;
-2,90915439126866E-10;
9,74046580176228E-11;
4,46562193040803E-10;
6,16150873823298E-10;
5,75995449189303E-10;
4,14187461778127E-10;
2,56696179392215E-10;
1,80146626376281E-10;
1,7111263586211E-10;
1,56334234089206E-10;
8,43434029809034E-11;
-3,42279080925189E-11;
-1,40611692860666E-10;
-1,84733939265655E-10;
-1,80684519334218E-10;
-1,92578559646119E-10;
-2,7350977238962E-10;
-4,07775658040378E-10;
-5,06888492562987E-10;
-4,69329586318967E-10;
-2,58437309051822E-10;
5,88235559585289E-11;
3,47978792400582E-10;
4,91872694229649E-10;
4,66189388109131E-10;
3,41333836654967E-10;
2,17777824392996E-10;
1,5789601840901E-10;
1,50675289592812E-10;
1,39758390002136E-10;
8,20800831975348E-11;
-1,47828799540948E-11;
-1,01734954739653E-10;
-1,40585792720227E-10;
-1,409461241641E-10;
-1,53052857687838E-10;
-2,20509298036599E-10;
-3,31852118613411E-10;
-4,17272933032969E-10;
-3,92404897577838E-10;
-2,26398251176428E-10;
2,59892607073619E-11;
2,58781095604024E-10;
3,80377785559383E-10;
3,68422712691255E-10;
2,75353118109838E-10;
1,80559870577758E-10;
1,35792343072057E-10;
1,33181923068205E-10;
1,2456270237643E-10;
7,82618666636313E-11;
2,08735898114092E-12;
-6,82312518862944E-11;
-1,00486251308519E-10;
-1,03356184728826E-10;
-1,17497614829775E-10;
-1,73771030458101E-10;
-2,6415980726278E-10;
-3,34607434305743E-10;
-3,20512586842247E-10;
-1,9757163992573E-10;
-2,18581924413079E-12;
1,82069845375708E-10;
2,81689709417616E-10;
2,80360696542903E-10;
2,15027973520119E-10;
1,47282914412994E-10;
1,16736581146443E-10;
1,14773912315416E-10;
1,08766456581987E-10;
7,57022341199735E-11;
1,73618229673218E-11;
-3,88336666295795E-11;
-6,65560666693112E-11;
-7,16263744379084E-11;
-8,45376467744575E-11;
-1,31032680133873E-10;
-2,04069024710082E-10;
-2,62116634568213E-10;
-2,57250539209285E-10;
-1,68979990911075E-10;
-2,57008871225662E-11;
1,13395624643653E-10;
1,95319604356419E-10;
2,02609489743166E-10;
1,62113356010689E-10;
1,18245348062584E-10;
9,76902289812546E-11;
9,7520467968848E-11;
9,54815642027618E-11;
7,13260922033967E-11;
2,83132533945515E-11;
-1,31514942442818E-11;
-3,62581890382836E-11;
-4,36152806071384E-11;
-5,69453788181606E-11;
-9,32776817185577E-11;
-1,49707227263012E-10;
-1,97705122029121E-10;
-2,00429192437035E-10;
-1,43625860419358E-10;
-4,45318097057079E-11;
5,57371845297515E-11;
1,19680960928221E-10;
1,34806019613274E-10;
1,15315443655043E-10;
9,10641044429323E-11;
8,06278315370271E-11;
8,27132092018883E-11;
8,2784689974695E-11;
6,68583349328946E-11;
3,85107675737226E-11;
8,85793437313013E-12;
-1,07756101387905E-11;
-1,94516442753125E-11;
-3,28555158412499E-11;
-6,08980881442419E-11;
-1,02408474367758E-10;
-1,39998571465537E-10;
-1,48774015605788E-10;
-1,2067225622802E-10;
-6,0746088364442E-11;
7,29117052219186E-12;
5,48741001454379E-11;
7,58241731497855E-11;
7,49521347291822E-11;
6,71874043471602E-11;
6,60080433072241E-11;
6,84593446167367E-11;
6,99381156492259E-11;
6,27371071203529E-11;
4,44582450649428E-11;
2,53018533735482E-11;
1,1299944013959E-11;
7,72385216131917E-13;
-1,1997774494716E-11;
-3,29414439598945E-11;
-6,12393216810859E-11;
-8,90176677753697E-11;
-1,05095650569185E-10;
-9,8150856856791E-11;
-7,02608760486899E-11;
-3,50097167639219E-11;
-1,0052771788642E-12;
2,46224058457079E-11;
3,86220978448116E-11;
4,62591255036312E-11;
5,19216277677386E-11;
5,62559226593308E-11;
5,90789370479847E-11;
5,75316624285109E-11;
5,03601765162846E-11;
4,08924561881814E-11;
2,9069804758788E-11;
1,69776124701413E-11;
5,70818704600799E-12;
-8,72439603255917E-12;
-2,62089408005133E-11;
-4,63643690244768E-11;
-6,58788113495059E-11;
-7,88104157978354E-11;
-8,12036084748687E-11;
-6,94669440857566E-11;
-4,59079430165291E-11;
-1,77721794900954E-11;
9,08837970615255E-12;
2,86776117034085E-11;
3,91577786523219E-11;
4,55227301934671E-11;
4,94459535739166E-11;
5,16296417807512E-11;
5,34519820087397E-11;
5,12369055483381E-11;
4,33040021468615E-11;
3,16705390945309E-11;
1,96715116228737E-11;
1,13869727911385E-11;
3,9601430663346E-12;
-9,33087999467761E-12;
-3,17806108610439E-11;
-6,14077861857535E-11;
-8,66616209095675E-11;
-9,62841428808083E-11;
-8,41342804662848E-11;
-5,21566246305915E-11;
-1,61913860302282E-11;
1,23507884994256E-11;
2,8574017753245E-11;
3,44652639209883E-11;
4,00778903301192E-11;
4,7616948896035E-11;
5,6402931500522E-11;
6,09480109227661E-11;
5,44655411047529E-11;
4,19411341295543E-11;
3,14839903747907E-11;
2,83724157121302E-11;
2,93343376243848E-11;
2,16420973876658E-11;
-4,03552095335385E-12;
-4,60052776894159E-11;
-9,08453964442533E-11;
-1,1842915167554E-10;
-1,1506316362981E-10;
-8,18943717869481E-11;
-3,70393745234057E-11;
-1,49615029372537E-12;
1,84941399227512E-11;
2,58884442057261E-11;
3,09599954828077E-11;
4,28549430454035E-11;
5,79656820471205E-11;
6,71819466048799E-11;
6,3496273499536E-11;
5,14328470398648E-11;
4,18400689964284E-11;
4,1603900354816E-11;
4,94044726552916E-11;
4,82067981118559E-11;
2,09538620223651E-11;
-3,22317733135849E-11;
-9,31789849993286E-11;
-1,34704572582631E-10;
-1,3811018695931E-10;
-1,04191053630254E-10;
-5,45829832508754E-11;
-1,22604347931147E-11;
1,08336093297571E-11;
1,68161036274574E-11;
2,28868824226414E-11;
3,7764466288011E-11;
5,70147899811084E-11;
7,08678347710809E-11;
6,96215406243427E-11;
5,85624154883035E-11;
4,97927514678377E-11;
5,28223599116716E-11;
6,62514569579317E-11;
6,87100256922963E-11;
4,07912357383078E-11;
-1,89548396141886E-11;
-9,2153508558249E-11;
-1,46243888523405E-10;
-1,56745087840354E-10;
-1,22720937906846E-10;
-6,79283537258754E-11;
-2,11926369817436E-11;
3,69059496475112E-12;
1,03420354085219E-11;
1,57432354730585E-11;
3,29058795269526E-11;
5,74889153198294E-11;
7,46502747332082E-11;
7,43568489786575E-11;
6,25075843590431E-11;
5,47871043305764E-11;
6,170987882719E-11;
7,91740161304529E-11;
8,61367803232253E-11;
5,80239287897394E-11;
-8,95582628486495E-12;
-9,16669656077939E-11;
-1,54028981723332E-10;
-1,6850542995823E-10;
-1,35472734075093E-10;
-7,83685244598944E-11;
-2,85342104757204E-11;
-3,81037259235016E-12;
3,62879626314587E-12;
9,75734137484642E-12;
2,80102347505333E-11;
5,56043520949119E-11;
7,46557203240119E-11;
7,72415715153651E-11;
6,65364949387608E-11;
5,78729802236466E-11;
6,79075211666986E-11;
8,9527584738148E-11;
9,81621141513827E-11;
6,99472826324911E-11;
1,80564480178277E-13;
-8,88658863483354E-11;
-1,58407970136349E-10;
-1,768990134063E-10;
-1,44208948834007E-10;
-8,53064869348505E-11;
-3,38407076032803E-11;
-8,81020376590932E-12;
-1,24042379947862E-12;
5,62219204403049E-12;
2,39242902497083E-11;
5,25859589020785E-11;
7,49042158802188E-11;
7,83353231317047E-11;
6,74385920243693E-11;
6,01441474748848E-11;
7,17746697932304E-11;
9,64250818561113E-11;
1,07866296679213E-10;
8,02955022120554E-11;
8,08283741559892E-12;
-8,51806875700382E-11;
-1,59202510086219E-10;
-1,81793561176974E-10;
-1,49421058328427E-10;
-9,06325619439996E-11;
-3,91258012908279E-11;
-1,22325050025205E-11;
-5,68267494855766E-12;
6,74266932977223E-13;
2,0530679528975E-11;
5,04685020679959E-11;
7,38888442057021E-11;
7,7428439976091E-11;
6,7622374788555E-11;
6,16501076545936E-11;
7,39568718317541E-11;
1,00919717243904E-10;
1,14491362563452E-10;
8,75305742556556E-11;
1,40760164870278E-11;
-8,2242988117681E-11;
-1,58051902153334E-10;
-1,81993824890692E-10;
-1,52258217348133E-10;
-9,43036896284603E-11;
-4,20776797155359E-11;
-1,56427083460604E-11;
-9,64174258300932E-12;
-3,11835062953589E-12;
1,69887619651756E-11;
4,69995817189989E-11;
7,1808706448846E-11;
7,74504916737432E-11;
6,7039987809072E-11;
6,12793803206891E-11;
7,54802012489155E-11;
1,03163689652795E-10;
1,17788122235489E-10;
9,12208430248842E-11;
1,89339866270914E-11;
-7,67923434065032E-11;
-1,55031168381544E-10;
-1,8090622420396E-10;
-1,52831448287494E-10;
-9,59174301121664E-11;
-4,37510081029153E-11;
-1,79757445911161E-11;
-1,22490770698491E-11;
-5,52476296353622E-12;
1,45167941279708E-11;
4,4404835662219E-11;
6,8770337624117E-11;
7,45992844149887E-11;
6,55622887884408E-11;
6,04567058583857E-11;
7,53286974728272E-11;
1,03905433711166E-10;
1,19428239993202E-10;
9,43265657605224E-11;
2,32543783422849E-11;
-7,06882298878688E-11;
-1,48783243584386E-10;
-1,76537362688415E-10;
-1,4943869593819E-10;
-9,46719551288253E-11;
-4,4933510348701E-11;
-1,96770690854692E-11;
-1,47491835062298E-11;
-8,90701303662193E-12;
1,0853071015676E-11;
4,08379989374527E-11;
6,55658713095392E-11;
7,12265565066984E-11;
6,29445509033515E-11;
5,88797179055416E-11;
7,40649151683308E-11;
1,0288517553582E-10;
1,18137651450732E-10;
9,5123175880131E-11;
2,69842013288477E-11;
-6,59935904776307E-11;
-1,42210754824536E-10;
-1,69732402174394E-10;
-1,45331776914008E-10;
-9,23158314805625E-11;
-4,47483343782639E-11;
-2,15151348113022E-11;
-1,63718188180771E-11;
-1,05589496868683E-11;
8,36060247477328E-12;
3,76477419665969E-11;
6,17727406885245E-11;
6,67063594346691E-11;
5,96440073353031E-11;
5,75284324706933E-11;
7,20208899367703E-11;
1,00158880999822E-10;
1,16128794859686E-10;
9,51156576897577E-11;
2,94894422076258E-11;
-6,07585890918112E-11;
-1,34578118021575E-10;
-1,62803263062575E-10;
-1,3999792421107E-10;
-8,98552892760266E-11;
-4,53828924278473E-11;
-2,19996243343572E-11;
-1,72328062053532E-11;
-1,28396622263635E-11;
5,5133239477238E-12;
3,38582157115218E-11;
5,75108867674739E-11;
6,33575334960849E-11;
5,65002403630394E-11;
5,515481039531E-11;
6,98002249728267E-11;
9,62714012962385E-11;
1,12814387332856E-10;
9,28925805729025E-11;
3,04447799482401E-11;
-5,48113136547224E-11;
-1,26370955388087E-10;
-1,53481510713743E-10;
-1,32438234635443E-10;
-8,5974055581084E-11;
-4,39476127057677E-11;
-2,28645969587163E-11;
-1,87807272485858E-11;
-1,33892432099951E-11;
4,74257033238609E-12;
3,15601368897276E-11;
5,33425408640047E-11;
5,95551710284702E-11;
5,47603441813507E-11;
5,22491750730359E-11;
6,54927780274027E-11;
9,20111281166976E-11;
1,08578511753878E-10;
9,04828124583335E-11;
3,14168160050108E-11;
-4,8891980985535E-11;
-1,17033954594336E-10;
-1,44536681123647E-10;
-1,25664754168937E-10;
-8,21291297000227E-11;
-4,29172355391032E-11;
-2,27752866838239E-11;
-1,85622209997316E-11;
-1,45036996280498E-11;
2,21002132951275E-12;
2,76229177775806E-11;
4,89314574988346E-11;
5,50891985172267E-11;
4,96546575012489E-11;
4,86686103866611E-11;
6,24680452824877E-11;
8,79585058425808E-11;
1,03128031580677E-10;
8,55838683288329E-11;
3,17892235891116E-11;
-4,40897719130071E-11;
-1,08827020588439E-10;
-1,33374367453088E-10;
-1,1734585065595E-10;
-7,79665711640387E-11;
-4,03404094547098E-11;
-2,29378887609398E-11;
-1,89400962128039E-11;
-1,43747742420148E-11;
1,83867764137274E-13;
2,47092699069373E-11;
4,42019925047124E-11;
5,02692411980623E-11;
4,58101998625843E-11;
4,41968141997576E-11;
5,85291372490094E-11;
8,19102823325076E-11;
9,69386930895039E-11;
8,28246260455961E-11;
3,09958139685851E-11;
-3,91070012189459E-11;
-9,78169995381979E-11;
-1,23039356804618E-10;
-1,08659129837509E-10;
-7,21760712940358E-11;
-3,8783328765232E-11;
-2,12993260560935E-11;
-1,80661426830087E-11;
-1,47218126808157E-11;
-1,18272396053321E-12;
2,02786753538003E-11;
4,06813198965612E-11;
4,71680416805513E-11;
4,19031958444337E-11;
4,11606821759016E-11;
5,40480861602169E-11;
7,62218326331168E-11;
9,03007360951117E-11;
7,76251326150329E-11;
3,12494789681808E-11;
-3,4452257397031E-11;
-8,94974905227318E-11;
-1,12697728585824E-10;
-1,00239442791688E-10;
-6,742938349486E-11;
-3,67519852733815E-11;
-2,07113109515494E-11;
-1,81713046230951E-11;
-1,4704718729122E-11;
-1,31086261786387E-12;
1,88341972554361E-11;
3,61803446619899E-11;
4,10645569493899E-11;
3,83108519378609E-11;
3,84043286811713E-11;
4,94304692302261E-11;
7,08142633977059E-11;
8,38019260536195E-11;
7,20742091727396E-11;
3,08454838718316E-11;
-2,95462915503571E-11;
-8,02048921569456E-11;
-1,02025807553977E-10;
-9,19719092009893E-11;
-6,07321663140834E-11;
-3,32434005116025E-11;
-2,05733215427093E-11;
-1,73798138591864E-11;
-1,4674888273887E-11;
-2,90880652815422E-12;
1,59770145051353E-11;
3,18048454013713E-11;
3,68126754883318E-11;
3,32820195347436E-11;
3,37171808514621E-11;
4,55470408474679E-11;
6,48473946739377E-11;
7,76671373398385E-11;
6,73591533831123E-11;
2,91272534840664E-11;
-2,487004887926E-11;
-7,21059140403874E-11;
-9,28023917315692E-11;
-8,27443349671726E-11;
-5,61744360325376E-11;
-3,14636843784689E-11;
-1,88783476090045E-11;
-1,72199763083234E-11;
-1,45889036030903E-11;
-3,02539276851483E-12;
1,38508527060852E-11;
2,77854591252977E-11;
3,30856638532755E-11;
3,11673636665167E-11;
3,05280404733051E-11;
4,01751588821495E-11;
5,80982059863972E-11;
7,06403191118165E-11;
6,20658091467274E-11;
2,69708840716644E-11;
-2,14030268948825E-11;
-6,33060724214718E-11;
-8,2631533496166E-11;
-7,457821162397E-11;
-5,16853321964115E-11;
-2,93210535806907E-11;
-1,81714350304214E-11;
-1,68388382414843E-11;
-1,36096965103876E-11;
-3,8625855942161E-12;
1,08244724108933E-11;
2,42710576612029E-11;
2,93786148092847E-11;
2,70615684929511E-11;
2,64284243395897E-11;
3,61243177777187E-11;
5,27929915717543E-11;
6,40722851377103E-11;
5,61672103855081E-11;
2,53279500544083E-11;
-1,75877250785269E-11;
-5,62388538070947E-11;
-7,33158867057537E-11;
-6,55981864677829E-11;
-4,52928919558171E-11;
-2,57703110083088E-11;
-1,62811800030573E-11;
-1,51564973107556E-11;
-1,31958145473997E-11;
-4,26921991292614E-12;
9,15025474488304E-12;
2,09525353518136E-11;
2,56974639346849E-11;
2,4038883690922E-11;
2,50984313434491E-11;
3,31563624336149E-11;
4,69029772104126E-11;
5,79957092723406E-11;
5,12985923434576E-11;
2,35559145085295E-11;
-1,43883626302415E-11;
-4,78639703702777E-11;
-6,36699469120968E-11;
-5,77361326170861E-11;
-3,97779283360696E-11;
-2,35143573861837E-11;
-1,47412746318927E-11;
-1,34701810699244E-11;
-1,2572757087938E-11;
-4,49482672204469E-12;
7,35645821319619E-12;
1,82457255893922E-11;
2,22523680318059E-11;
2,02171872985894E-11;
2,2114233315657E-11;
2,96049784428841E-11;
4,23415546610477E-11;
5,19192821365874E-11;
4,57435251051572E-11;
2,31807764668846E-11;
-1,10055117799399E-11;
-4,13298749763219E-11;
-5,47263614032955E-11;
-5,12936186994312E-11;
-3,56560145787941E-11;
-2,09882909099543E-11;
-1,42602558944026E-11;
-1,21302478679807E-11;
-1,13881207918371E-11;
-5,16342256739738E-12;
6,39130113962631E-12;
1,50765592652818E-11;
1,88382357906684E-11;
1,8329960577079E-11;
1,82714492397176E-11;
2,52172919334896E-11;
3,64103344489963E-11;
4,55048761482646E-11;
4,19840407154856E-11;
2,05901453803347E-11;
-8,56979657940625E-12;
-3,48465788873014E-11;
-4,77361909020212E-11;
-4,34494110224574E-11;
-3,10172655385135E-11;
-1,93325366745036E-11;
-1,29270172675649E-11;
-1,13776217688863E-11;
-1,08316000054234E-11;
-5,59143369436274E-12;
4,23839525993487E-12;
1,17353835331841E-11;
1,48830624575939E-11;
1,47241000884451E-11;
1,59271369707703E-11;
2,25309458485426E-11;
3,17763644904664E-11;
3,98861514277414E-11;
3,74061067524175E-11;
1,90507237309485E-11;
-6,46240127507045E-12;
-2,92255510795561E-11;
-4,03805288041336E-11;
-3,72404888841336E-11;
-2,65197528478384E-11;
-1,5928150283732E-11;
-1,09191119641631E-11;
-1,05815808562985E-11;
-1,02821075455154E-11;
-5,72277312730187E-12;
2,79545099473647E-12;
9,91573340786917E-12;
1,29309959619583E-11;
1,24900467620614E-11;
1,34328649052452E-11;
1,92369380044208E-11;
2,77647751559075E-11;
3,46235843309022E-11;
3,20003984275763E-11;
1,70129020483095E-11;
-3,46902989206574E-12;
-2,3392694629637E-11;
-3,48991302581927E-11;
-3,16837478282835E-11;
-2,2366681841113E-11;
-1,49678740856339E-11;
-1,01498971631931E-11;
-9,1146476472245E-12;
-8,70668930295976E-12;
-4,90974959824174E-12;
1,94307285954192E-12;
7,74489983009885E-12;
1,00857744117126E-11;
1,07872961399333E-11;
1,1344175962769E-11;
1,54307498066035E-11;
2,35217063787508E-11;
2,90185157877957E-11;
2,76016013734447E-11;
1,64337291313805E-11;
-2,62129797879312E-12;
-1,88009584370425E-11;
-2,6519893717428E-11;
-2,64005043666602E-11;
-1,93914928778909E-11;
-1,1546042630753E-11;
-7,90557111038891E-12;
-8,54986178186112E-12;
-8,49519344154344E-12;
-3,66272936804846E-12;
9,47555137140928E-13;
5,09914076744801E-12;
8,77699526989331E-12;
8,00433817302565E-12;
8,7996208963257E-12;
1,37622168417153E-11;
1,98834822660669E-11;
2,50223223789985E-11;
2,37084882799044E-11;
1,43133768540251E-11;
-4,77835274589027E-13;
-1,47482363974849E-11;
-2,22611457550268E-11;
-2,11221909593477E-11;
-1,48263565188641E-11;
-1,04170707848847E-11;
-8,08539408026376E-12;
-7,11973571629479E-12;
-7,50102471388786E-12;
-5,12498472661773E-12;
-5,16131548177669E-13;
4,01462639993513E-12;
6,10056383253039E-12;
6,20958142533888E-12;
7,77282833041149E-12;
1,07368137304713E-11;
1,58153747583044E-11;
2,07285617044694E-11;
1,94982885523973E-11;
1,20838292941802E-11;
1,08080925892583E-12;
-1,09773882793865E-11;
-1,74438301996814E-11;
-1,68620956239663E-11;
-1,28600437622943E-11;
-7,69386314366231E-12;
-6,25567652240575E-12;
-7,42660084118372E-12;
-6,42916459222316E-12;
-3,54878735027973E-12;
4,02875415414258E-14;
2,48795335593848E-12;
4,32073524621474E-12;
5,69780716247761E-12;
5,89004002462381E-12;
8,5249782711663E-12;
1,29490123051795E-11;
1,60147574930725E-11;
1,6882420557455E-11;
1,1976978510948E-11;
2,08355837901505E-12;
-6,92267261011586E-12;
-1,17278713156036E-11;
-1,27248130889728E-11;
-1,09390161171415E-11;
-7,39782379630662E-12;
-5,81815568637016E-12;
-5,97173064177108E-12;
-5,33815407989884E-12;
-3,84690121014528E-12;
-1,29790038116764E-12;
1,23443477093628E-12;
3,0183062023609E-12;
3,13793520784742E-12;
3,83571660679044E-12;
7,16992279361815E-12;
1,01701006367752E-11;
1,32957805968049E-11;
1,43484812167995E-11;
9,78180786181702E-12;
2,94109006027513E-12;
-4,06021604262915E-12;
-8,42693144960559E-12;
-8,68643001037601E-12;
-7,87761770408171E-12;
-6,07447326129323E-12;
-4,59445456436567E-12;
-4,76047364846828E-12;
-4,50318453975021E-12;
-3,38058712538736E-12;
-2,01651104135913E-12;
2,30393757728777E-13;
1,95281646812846E-12;
1,8349062003549E-12;
3,07480842887424E-12;
5,12494643939695E-12;
7,40551425564769E-12;
1,03770633552173E-11;
1,05854027227465E-11;
8,61656556203454E-12;
4,24826508264347E-12;
-2,064866349627E-12;
-5,20749405490736E-12;
-5,77917987709974E-12;
-5,580196226278E-12;
-4,67301681025643E-12;
-4,63191852362746E-12;
-4,34087977961415E-12;
-4,11910454907662E-12;
-3,79687816043155E-12;
-1,63936694100446E-12;
1,21830471143057E-13;
8,80831675570375E-13;
1,7210347545594E-12;
2,28450844612571E-12;
3,22948601723107E-12;
5,30335254648078E-12;
7,14043647158084E-12;
8,03942640371145E-12;
6,92959663285297E-12;
3,35134701082144E-12;
8,07225185314383E-13;
-1,65842171605088E-12;
-4,34643917573136E-12;
-3,66072266406807E-12;
-3,12706146938784E-12;
-3,99181638753884E-12;
-3,26275674222029E-12;
-2,68932725699294E-12;
-2,68983125324322E-12;
-2,261293556304E-12;
-1,71273854488817E-12;
-1,03960349369361E-12;
1,80177299241332E-13;
1,74270348283478E-12;
2,37478837880534E-12;
4,05315101421283E-12;
6,650373859268E-12;
6,43722419591658E-12;
5,36687295529696E-12;
4,42035635605687E-12;
2,04364303398042E-12;
3,79382678898771E-13;
-9,29528346166355E-13;
-2,2062800994988E-12;
-2,00503635827952E-12;
-2,32881710982326E-12;
-2,83105062328166E-12;
-2,34780286513751E-12;
-2,23175707710575E-12;
-1,69560501939843E-12;
-1,09954248341008E-12;
-1,02858029005317E-12;
-2,05185099297489E-13;
5,90356146570007E-13;
1,31131221460879E-12;
2,10923222549541E-12;
2,97444340999062E-12;
4,56957830439336E-12;
4,87909941373912E-12;
3,80472975415616E-12;
3,20772490628147E-12;
2,34648773061799E-12;
1,04591593276302E-12;
-8,46869551475813E-14;
-1,30471482773547E-12;
-2,32112372429971E-12;
-2,45743606469322E-12;
-2,3716008502315E-12;
-2,81819385709825E-12;
-2,73732385911934E-12;
-2,4417046647356E-12;
-2,1411034925141E-12;
-1,30955712060361E-12;
-9,22142169388373E-13;
9,25210583441674E-14;
7,78761495884581E-13;
9,33195468349882E-13;
2,90064575092387E-12;
4,02486614596932E-12;
4,4587592607614E-12;
4,73296646669481E-12;
3,46598388286927E-12;
2,54693313003255E-12;
5,04277054983253E-13;
-1,09558783434373E-12;
-7,89013942144756E-13;
-2,02486564847079E-12;
-2,17407150421679E-12;
-1,36778183613132E-12;
-2,54570385032734E-12;
-3,2210046566133E-12;
-2,73993378264231E-12;
-1,60323495312678E-12;
-8,91831852189856E-13;
-1,46198418471531E-12;
-8,39884294002472E-13;
4,43769982456448E-13;
1,05640958224076E-12;
3,08018156005878E-12;
5,05698153182154E-12;
5,54851722889662E-12;
5,3439561352921E-12;
3,87845090183307E-12;
2,3326640708684E-12;
1,7780856712796E-13;
-1,69380412899277E-12;
-1,42099993682502E-12;
-1,68524386167737E-12;
-2,6906547677812E-12;
-2,67664092404211E-12;
-2,32190973622127E-12;
-2,71503727339274E-12;
-2,26273815950623E-12;
-1,20956575481796E-12;
-1,32373726042566E-12;
-1,04202454687575E-12;
-9,15830857629656E-13;
1,67339210198462E-13;
3,26651758850409E-12;
4,68288627940164E-12;
5,81231844575712E-12;
7,12385250045102E-12;
4,77846465583893E-12;
2,15650963854297E-12;
1,81780255130893E-12;
4,77828125362961E-13;
-5,55679282585269E-13;
-1,15345332782549E-12;
-2,2328915538473E-12;
-2,18374925628703E-12;
-3,03144329728291E-12;
-3,12804275644018E-12;
-1,95265745316739E-12;
-2,03990133512104E-12;
-1,9447080391067E-12;
-2,29919904311901E-12;
-2,54455067189748E-12;
-9,30640805317789E-13;
1,58253701431534E-12;
4,2666404747131E-12;
6,91581214533205E-12;
7,83344711329175E-12;
5,99543139197732E-12;
3,04219911844093E-12;
1,18361357143471E-12;
6,86267581972707E-13;
5,55188089594928E-14;
-4,49716531333714E-13;
-1,7688737775679E-12;
-3,3228280840025E-12;
-3,18934811964783E-12;
-3,02453432843909E-12;
-2,71149175400093E-12;
-2,5576166294471E-12;
-2,96323571526405E-12;
-3,19751038475552E-12;
-3,3092505953065E-12;
-1,68245889178097E-12;
9,12975369187277E-13;
4,57793953056841E-12;
7,78597521575138E-12;
7,04680711197705E-12;
6,34909630964953E-12;
4,82902209339849E-12;
1,47610370459254E-12;
7,33845432362359E-13;
2,22518834949908E-13;
-4,01624954639181E-13;
-7,53214501667016E-13;
-2,20189179052965E-12;
-3,006850950509E-12;
-2,93002657025797E-12;
-2,48068721032271E-12;
-2,36958224246719E-12;
-2,38249653340984E-12;
-3,33328126898709E-12;
-4,0583080609714E-12;
-2,14711044565804E-12;
2,19201094653925E-13;
4,08251237944533E-12;
8,0758352143549E-12;
8,07954027562053E-12;
6,53577634687677E-12;
4,76924513681463E-12;
2,33178283492852E-12;
5,13735992088184E-13;
1,4148174399036E-13;
5,11935050890314E-13;
-2,21833464203641E-13;
-2,0772229416432E-12;
-2,90813505037758E-12;
-2,48672316328256E-12;
-2,10812997025945E-12;
-1,6720540279758E-12;
-3,05617019537657E-12;
-5,25073336468513E-12;
-4,39602314508326E-12;
-2,75432914828532E-12;
-3,521715914414E-13;
4,17441742305873E-12;
7,62137866824825E-12;
8,71029482729301E-12;
6,9140725938082E-12;
4,06277498260491E-12;
2,57700620445898E-12;
1,25237771159673E-12;
4,52495925946415E-13;
-2,24611021639153E-13;
-1,18463388351355E-12;
-2,08632575547593E-12;
-3,16951492828633E-12;
-2,77786946998481E-12;
-2,67580346113446E-12;
-3,09272732882808E-12;
-2,77496785954044E-12;
-3,97446718899461E-12;
-4,4102282381109E-12;
-2,75433832366752E-12;
-2,13788937788132E-13;
3,75297728355721E-12;
6,83484532420767E-12;
7,94914783972289E-12;
7,69664184646545E-12;
4,73601687903179E-12;
2,05287623013604E-12;
1,47579576151042E-12;
2,95438237923969E-13;
2,5111598918682E-13;
-6,578243158892E-14;
-1,91171974488678E-12;
-3,329059744493E-12;
-3,79925099142375E-12;
-1,85595872254739E-12;
-2,32404809598223E-12;
-3,96170271893601E-12;
-2,86336217263681E-12;
-3,82086496082805E-12;
-3,53385285013364E-12;
-2,56078634239793E-13;
3,0481270278664E-12;
7,2959146422325E-12;
8,2882597017306E-12;
6,41717549380949E-12;
5,18214402689966E-12;
2,34826447819168E-12;
8,22457592922998E-13;
1,53691880331111E-12;
9,23759326140491E-13;
-4,56888757854584E-13;
-1,80826295675249E-12;
-2,05945309572705E-12;
-2,00819229570601E-12;
-2,96983594336453E-12;
-2,89082108526528E-12;
-2,32252802361808E-12;
-3,56996568372584E-12;
-4,97651830048716E-12;
-3,58604603545948E-12;
-5,51997120674958E-13;
3,31577865478422E-12;
7,25374308212556E-12;
7,90453261952313E-12;
6,53581476510714E-12;
4,26402629543374E-12;
1,79380674527929E-12;
1,76263220204322E-12;
1,61376819826499E-12;
5,77380921748249E-13;
5,83447672730557E-14;
-1,50881255210977E-12;
-2,82868173143669E-12;
-2,66048777769583E-12;
-2,30197043063711E-12;
-2,19751908642151E-12;
-2,7744318752074E-12;
-3,89686278390742E-12;
-5,09028593275255E-12;
-4,33780024531365E-12;
-5,04932108043129E-13;
3,61542946464719E-12;
6,62882699251163E-12;
7,85035534369883E-12;
6,73243547135867E-12;
4,63398112375962E-12;
2,51719980059443E-12;
1,09116050380166E-12;
8,54677977540976E-13;
9,54992770148905E-13;
4,80117570713441E-13;
-4,54808161170426E-13;
-1,74056847617452E-12;
-2,34018633941661E-12;
-1,81830152879717E-12;
-2,40684384394538E-12;
-3,65973389128865E-12;
-3,77597534418426E-12;
-3,96538339794467E-12;
-3,46500197477229E-12;
-9,57382546405645E-13;
2,75503685036802E-12;
5,83230385075015E-12;
6,85177917144543E-12;
6,4576406997336E-12;
4,65614334251761E-12;
2,47557423121556E-12;
1,21254524352078E-12;
9,47492210417713E-13;
1,01040749234096E-12;
1,87067971043705E-13;
-1,03274749961101E-12;
-2,12046220511552E-12;
-2,44903486859231E-12;
-1,77850612330358E-12;
-1,72646977935406E-12;
-2,81886166902351E-12;
-3,92507121131339E-12;
-4,68345374860708E-12;
-3,91984023803669E-12;
-9,75893950191979E-13;
2,82282888081342E-12;
5,90219167058938E-12;
6,77534117691728E-12;
5,79042127614214E-12;
3,88932242665746E-12;
2,12026263844156E-12;
1,56499499514328E-12;
1,68128313251418E-12;
1,46391761980264E-12;
9,88455629094191E-13;
-5,86159723762767E-13;
-2,76478650646635E-12;
-2,68589064116579E-12;
-1,94889131353078E-12;
-2,20680666153096E-12;
-2,46696473147095E-12;
-3,60447380250877E-12;
-4,64392205113358E-12;
-3,61244013693155E-12;
-1,51638396061705E-12;
2,46079208285512E-12;
6,33733513752665E-12;
5,90413275161919E-12;
5,21919425646156E-12;
4,14826870615786E-12;
1,90317080159791E-12;
1,96319639031243E-12;
1,3866962487267E-12;
2,47169157734769E-13;
2,45913907028891E-13;
-2,73949217405804E-13;
-1,75863730301069E-12;
-2,2880089047045E-12;
-1,84461476128722E-12;
-1,70173476507427E-12;
-2,10315946413387E-12;
-4,40318273278794E-12;
-4,61063789121189E-12;
-2,86914572535919E-12;
-1,64060549517263E-12;
2,29482649640114E-12;
5,42863076263211E-12;
6,16260584813519E-12;
5,39640237043717E-12;
3,05997570347549E-12;
2,32963659933888E-12;
1,65409089084734E-12;
8,67290730146289E-13;
1,2360596806948E-12;
9,29037847204594E-13;
-2,20995367314684E-13;
-1,42882159038948E-12;
-1,59446000314773E-12;
-1,6496127390668E-12;
-1,85856552653784E-12;
-1,81151876289658E-12;
-2,92241680929102E-12;
-3,60494420292674E-12;
-2,85881962104298E-12;
-1,37563474311801E-12;
1,89355139696302E-12;
4,54295235416084E-12;
5,06479509603039E-12;
5,20113585994754E-12;
4,27892494365068E-12;
3,18504944056008E-12;
2,08192250951449E-12;
1,17599385771577E-12;
1,58781621640861E-12;
8,28316062894585E-13;
-8,58376403149172E-13;
-1,83794850692435E-12;
-1,94788618230981E-12;
-1,56787108204047E-12;
-1,9759618740053E-12;
-2,12607015751248E-12;
-2,69679286585623E-12;
-4,12524391360663E-12;
-3,01396215088403E-12;
-3,53778208356871E-13;
1,62677944043288E-12;
3,95936842052576E-12;
5,45231253816564E-12;
4,79078645224597E-12;
3,23886304126157E-12;
1,96299819168503E-12;
1,35573358748936E-12;
7,5286132239237E-13;
7,31710386013765E-13;
1,27852058551408E-12;
-5,10460865354935E-13;
-2,10193994647361E-12;
-1,69595873524763E-12;
-1,41633489815203E-12;
-6,94952855123497E-13;
-1,36415620605649E-12;
-2,58930774606534E-12;
-3,06910384460334E-12;
-3,52557960813309E-12;
-1,31178150341871E-12;
1,87243263570279E-12;
3,68602680491803E-12;
4,48770357934808E-12;
3,84632952210143E-12;
2,69089813641751E-12;
1,77226396132865E-12;
1,26784850898527E-12;
7,5874406134881E-13;
7,80171252678934E-13;
5,72673241018854E-13;
-9,23360617304629E-13;
-1,23308669256246E-12;
-7,70698568761792E-13;
-1,38659819807749E-12;
-1,97780247001633E-12;
-1,90467170799981E-12;
-2,4770806713933E-12;
-3,10079676858566E-12;
-2,6794551098663E-12;
-1,40120453246674E-12;
1,23745144367024E-12;
3,38527656090607E-12;
4,14952001978937E-12;
4,08705759884422E-12;
3,4270599858587E-12;
2,36569955879561E-12;
8,13606530606872E-13;
7,95637128400392E-13;
9,21331360319007E-13;
6,75712331784536E-13;
5,41501332211271E-13;
-6,66682618047191E-13;
-2,52290845840433E-13;
-8,29241735675876E-13;
-2,21749368161823E-12;
-1,37588036769065E-12;
-2,21092334352125E-12;
-3,43243444014846E-12;
-3,58258258215309E-12;
-1,47797539874301E-12;
2,61908981822565E-12;
3,90103620030876E-12;
4,22241464166168E-12;
3,72525896709681E-12;
2,2821292057959E-12;
2,10481955369645E-12;
1,20775642734504E-12;
5,80028110361314E-13;
7,445865484416E-13;
5,74431787867803E-13;
2,42959748304469E-13;
-6,1884574101317E-13;
-8,9571202661267E-13;
-8,5547975332728E-13;
-1,1471181270276E-12;
-1,44049999553473E-12;
-2,64653563909599E-12;
-3,45384440718173E-12;
-2,02556886864091E-12;
1,67220489287887E-13;
1,41099494047203E-12;
2,61116569971991E-12;
3,7944829597052E-12;
3,33617503202059E-12;
2,14207967372545E-12;
1,05098857251079E-12;
1,09037007146997E-12;
1,63990894582666E-12;
5,60989943472099E-13;
6,27427279105218E-13;
9,81804969716683E-13;
-8,70737984141579E-14;
-7,89012071115843E-13;
-8,44893868650566E-13;
-1,27442382408564E-13;
-8,01589260768593E-13;
-1,76280729318928E-12;
-2,43789630378071E-12;
-2,89279763817711E-12;
-9,47342195312725E-13;
7,7402643688481E-13;
2,42892269846942E-12;
3,8213147614203E-12;
3,12002583095229E-12;
2,26148007745678E-12;
1,94653893009269E-12;
1,69147592998734E-12;
1,03053025136044E-12;
7,5571170673225E-13;
4,55037940581152E-13;
-3,28229568331329E-13;
-4,76807137806473E-13;
-4,82412685720691E-13;
-1,06769875440829E-13;
-9,12370995438407E-14;
-1,22770353319526E-12;
-1,82099734276394E-12;
-1,8212808144961E-12;
-2,03811440524662E-12;
-1,29060879240838E-12;
6,75914259072482E-13;
2,07811460062214E-12;
2,90655217409472E-12;
2,7703994853364E-12;
1,32542911579571E-12;
4,54205112189392E-13;
7,67338677563051E-13;
1,36262437383039E-12;
9,73302738387167E-13;
8,20893054247624E-13;
7,56510926045582E-13;
-1,90934529191995E-13;
-2,79463865096815E-13;
-1,20616414144544E-13;
-1,35156910050864E-13;
-5,66574691204715E-13;
-1,24942004054416E-12;
-1,80657340269609E-12;
-2,04964798111267E-12;
-7,61079221612637E-13;
5,46498234673372E-13;
1,98392502859998E-12;
3,35447477014395E-12;
3,22356518352183E-12;
1,835141097E-12;
2,71049535007834E-13;
1,1085547307532E-12;
1,82259957585669E-12;
6,46813871897405E-13;
1,85447285839637E-13;
2,93732598895725E-13;
1,0374953782331E-14;
-3,23119115101214E-13;
2,87567632638156E-13;
5,98461847430985E-13;
1,34714269051971E-13;
-1,05012103305668E-12;
-2,06772689674051E-12;
-4,91207513844146E-13;
4,49302019581252E-13;
4,45640219036286E-14;
1,24230899887389E-12;
2,01893413835977E-12;
1,85472011944451E-12;
2,0836963838651E-12;
1,82824537773309E-12;
1,47298091104132E-12;
1,0429885395579E-12;
-1,59460498465443E-14;
6,38162392152671E-13;
1,89197089649061E-12;
6,33451516247429E-13;
-3,87133576319791E-13;
-1,31250572223938E-13;
-3,57021343338606E-13;
-9,50679856137514E-13;
-1,41512607677431E-12;
-1,42714080339758E-12;
-1,81116680690436E-12;
-9,72112288848562E-13;
9,05025846857567E-13;
1,73295144337839E-12;
1,95721824809166E-12;
1,49212291574513E-12;
1,9098956121593E-12;
2,00555587005048E-12;
1,20539560030282E-12;
1,12967475766792E-12;
6,59997386524038E-13;
7,94674589410329E-13;
6,77442180172882E-13;
2,33015622038176E-13;
1,0681959392002E-13;
-4,25686618060033E-13;
6,86031504567401E-14;
-3,56790960491337E-14;
-2,79042782491826E-13;
4,30077216053593E-14;
-1,31737378186909E-12;
-1,11069821334224E-12;
1,13718030898889E-12;
1,35308811403823E-12;
1,27978148485335E-12;
1,7626026648878E-12;
1,22409673996145E-12;
1,31557756622884E-12;
9,89332727097254E-13;
1,77478040921076E-13;
7,7891710605639E-13;
4,88800345099461E-13;
1,44099007811149E-13;
2,53035364883993E-13;
-7,8623496510273E-13;
-2,23967678545008E-13;
-1,30988225917223E-13;
-1,29870010606158E-12;
-1,7929601066248E-13;
-1,40465502022382E-13;
-1,10923758402012E-12;
-1,40014468913036E-13;
5,06213109820852E-13;
8,69684031646448E-13;
1,36849816449891E-12;
1,09688687109961E-12;
8,4466256109209E-13;
4,76594910728268E-13;
4,96810635151593E-13;
1,07261578736132E-12;
1,01351215069615E-12;
6,86762585730999E-13;
3,48235883990268E-13;
2,60379420025483E-13;
3,05172339308052E-13;
3,44879089796616E-13;
1,29793851830559E-13;
-3,94908658208613E-13;
-3,26701217131616E-13;
-7,69272589419452E-13;
-4,30901298021746E-13;
2,79687259393924E-13;
-8,61497126522116E-14;
1,30726622910287E-12;
1,29880906766603E-12;
2,38181404342517E-13;
1,6035529436857E-12;
1,02453989027378E-12;
3,00081361881516E-13;
1,27879709679036E-12;
9,64759894037964E-13;
7,68237429784603E-13;
1,03834245341489E-13;
-5,39325973170599E-13;
-1,15111005680873E-13;
-3,15357118842173E-13;
6,19878811915826E-13;
9,7123489388942E-13;
-4,64939199575425E-13;
-3,32027360052003E-13;
-2,42521026215624E-13;
-8,14096944858686E-13;
-6,39000474397782E-13;
-1,34002945504229E-13;
5,16124455612719E-13;
1,5589348171347E-12;
1,86531000805067E-12;
4,60675878970653E-13;
3,97671300217205E-13;
1,20028196572425E-12;
4,00824689770246E-13;
-1,81902475515762E-13;
1,44440175716359E-13;
4,0944147668874E-13;
5,66044848872839E-13;
6,42598776473084E-13;
1,2908911033145E-13;
1,36992619110101E-13;
4,44970352871519E-13;
-2,24304245916415E-13;
-4,95525794207722E-14;
7,6935432712904E-14;
-2,4053362040895E-13;
4,36996853394853E-13;
9,80861139457643E-13;
1,19129634593167E-12;
4,57880101309741E-13;
5,28198464257421E-14;
9,74275632900178E-13;
8,31346441620919E-13;
3,430619164587E-13;
8,43878823876063E-13;
6,20215346227806E-13;
5,20228487488697E-13;
1,18463574194056E-12;
2,81652180140191E-13;
-6,60539292037993E-14;
2,67033077523623E-13;
-7,04096848616113E-13;
-8,3361421346678E-13;
-3,50449933088864E-13;
3,39321474446573E-14;
3,85279789517132E-13;
5,2052284374433E-13;
7,24375686470222E-13;
9,12748742464782E-13;
1,17425727294161E-12;
1,04080027970329E-12;
1,00519986972813E-12;
9,18267757975668E-13;
5,33364365395414E-13;
9,40238241038995E-13;
5,66413000325098E-13;
-2,00890293231201E-13;
7,17405323519538E-13;
5,43257092771358E-13;
-2,08863427120441E-13;
4,03270467966843E-13;
3,94509348140598E-14;
-4,0090364306629E-13;
-3,66552315441447E-14;
5,55314387307531E-14;
2,52618127907347E-13;
8,21962323142235E-13;
6,22213930085119E-13;
2,41274289807535E-13;
9,75330944464445E-13;
8,88018938706716E-13;
4,38210625787894E-13;
6,65756731885375E-13;
6,31528283825669E-13;
6,30768841868293E-13;
3,31667734274918E-13;
1,26757649090078E-13;
6,18077517326485E-13;
1,53970897813777E-14;
-9,01669083490323E-13;
2,70922004164384E-14;
3,78052138652334E-13;
-6,90282834316283E-13;
-8,31271632859975E-13;
-3,35406711713572E-13;
-3,51518327969475E-14;
1,99325412572681E-13;
2,33432567501457E-13;
2,04162597794804E-13;
5,09729641266045E-13;
6,23863520806127E-13;
1,42009024538168E-13;
8,09019448399454E-13;
1,2861919486283E-12;
4,84085924410795E-13;
6,7744457751601E-13;
5,35708604020429E-14;
-2,06411307285008E-13;
8,74111689784168E-13;
8,85612105057425E-13;
9,77556389573805E-13;
2,74798558316173E-13;
1,49540488372719E-13;
8,41066822694862E-13;
1,87391269310602E-13;
1,81811162437474E-13;
-3,5647463277085E-13;
-5,24205945384595E-13;
6,674715427053E-13;
2,04194920235951E-13;
3,71036314996957E-14;
-7,47521314620471E-15;
-5,57631250714145E-13;
9,9894019580934E-13;
1,82544477426069E-12;
7,1532998613574E-13;
7,68017444073328E-13;
1,05032195462088E-12;
1,72603614101453E-13;
3,92838827540229E-13;
4,03928906157735E-13;
-4,17862500233545E-13;
8,27713005496291E-13;
6,10087251672164E-13;
-3,976541358663E-13;
7,80690604375043E-13;
5,44202653065677E-13;
2,25816692776295E-13;
-1,30823945433433E-14;
-2,34409333627096E-13;
1,25325522943648E-12;
5,87779513842606E-13;
7,91765895645258E-14;
1,12845286230785E-12;
4,21556923397421E-14;
-1,6058656771609E-13;
6,09645745863143E-13;
3,02481762425069E-13;
5,9422734470287E-13;
8,69155487549968E-13;
6,6990862014683E-13;
3,53544061492101E-13;
1,65253475916562E-13;
9,06926194384757E-13;
9,3306358032348E-13;
-4,44033693371945E-14;
-5,52734818187655E-14;
2,13452280488534E-13;
4,06672707820613E-13;
6,8374412319432E-13;
-1,87976936705992E-13;
-4,3438767684369E-13;
6,14725806421987E-13;
3,04062238723195E-13;
-2,02743530747021E-13;
3,98193340957554E-13;
7,54666455430324E-13;
5,99361860183963E-13;
4,03036430021247E-13;
1,08076004661254E-14;
-1,04342279011143E-13;
7,10966313958382E-13;
8,2301585533485E-13;
1,11038304274667E-13;
1,07932044724339E-13;
2,88543896345961E-13;
5,01668030855518E-13;
6,0288878348242E-13;
-4,48783454302878E-13;
-5,00662734555864E-13;
7,16428782398026E-13;
6,03320753134728E-13;
8,66440781527403E-13;
9,55128935021976E-13;
2,73543942253128E-13;
8,76886464951163E-13;
3,21061203408185E-13;
-3,45676833465747E-13;
6,43615099866428E-13;
4,50430401730592E-13;
4,444320107295E-13;
8,91215310239502E-13;
4,11089518303026E-13;
1,18695802637406E-12;
1,40512256139172E-12;
1,18374856374976E-13;
2,05182430012499E-13;
4,20756810812757E-13;
1,55596037943084E-13;
1,234512648466E-13;
2,72469717724302E-13;
3,46163376113088E-13;
3,84693714048151E-14;
5,17662051831909E-13;
2,82706075339771E-13;
5,93498971768193E-13;
1,27604572581237E-12;
-9,19029595368439E-14;
1,19878427009987E-12;
1,70529330284888E-12;
-2,8968371400757E-13;
8,41217136190507E-13;
9,29932401491011E-13;
1,54274789638312E-13;
1,09361190123928E-12;
2,00347656450896E-13;
-1,13886529942263E-13;
1,28286050829474E-12;
3,88226562608235E-13;
-5,13623053001628E-13;
-1,90853137218906E-13;
-6,24304915822809E-13;
-1,40265761923046E-13;
2,64047726472179E-13;
-8,33605010437419E-14;
3,50600765052353E-13;
6,74678764588669E-13;
5,03327544464784E-13;
1,35699140727543E-13;
1,56118708837271E-13;
3,77375805879581E-13;
6,45011005496929E-13;
6,39094415055429E-13;
1,64424139631621E-13;
2,76301759282302E-13;
-6,1266843446845E-13;
-3,32575453266321E-13;
7,83654338285533E-13;
-2,19075416938157E-13;
9,16806388525906E-13;
1,6094589022214E-12;
2,0176777982291E-13;
6,0073261537543E-13;
1,16531129330962E-12;
1,3016837646602E-12;
1,03313793708406E-12;
5,50228082115373E-13;
2,35764250351819E-13;
-5,70472668078352E-13;
-1,30153964729463E-13;
5,74356925747919E-13;
-2,01407450226405E-13;
2,32826086699286E-13;
1,1448983292029E-12;
3,74001416486038E-13;
-1,45526683601316E-13;
-5,30889009705153E-13;
-3,68262773670073E-13;
6,41996843058741E-13;
6,46037524094441E-14;
-5,81958111947142E-13;
-2,74255824985267E-13;
-2,46699842747197E-15;
-8,59943440046996E-14;
-1,42737349669121E-13;
3,7567347119417E-13;
2,55625028259463E-13;
-1,30918883747134E-13;
-2,88448472340697E-13;
5,01255149764006E-14;
1,32655703023258E-12;
1,09636221831172E-12;
-2,48716512120374E-13;
5,68898438516496E-13;
5,30473491522707E-13;
-6,49655889803107E-13;
2,61024826667948E-13;
-1,75721343550647E-13;
-5,12324607289893E-13;
6,8824631640121E-13;
-1,40574763046971E-13;
-3,60614656360865E-13;
6,64333145290697E-13;
7,29313329877885E-13;
7,09896485383132E-13;
6,16320934620804E-13;
4,25197218490935E-13;
1,02319873498904E-12;
1,46550438046896E-12;
5,73728169955832E-13;
2,84337852971715E-13;
6,39137854531683E-13;
3,01442497944464E-13;
3,9242981352895E-13;
6,79604635731962E-13;
2,70775876156982E-13;
-2,3877329761697E-13;
2,12546614934892E-13;
6,71791513782306E-13;
-3,03150090725152E-14;
-3,62204753909626E-13;
1,49102751083169E-13;
3,44358771006852E-13;
-7,26612136729549E-14;
-2,14334956805951E-13;
3,67016323304341E-13;
3,60225159624654E-13;
2,77131339709844E-13;
4,79673403054992E-13;
3,67217064992893E-13;
6,80806544009729E-13;
5,85844724282218E-13;
6,30682899765866E-13;
1,19859759849325E-12;
7,92085947030405E-13;
-1,91317537302268E-13;
-3,02035027177007E-13;
2,01490992385297E-13;
1,20532433966494E-13;
-4,48200241291835E-14;
-3,62839028329999E-13;
1,11278898260833E-13;
5,52513968239299E-13;
-1,0518124724349E-13;
2,82743897852659E-13;
1,73105477091463E-13;
2,92434017147877E-13;
1,05604677246325E-12;
3,93686519776198E-13;
5,30763912140033E-13;
2,77740830007404E-13;
-6,99639356913059E-15;
1,25781912106702E-12;
7,13534729290659E-13;
3,56356239866219E-13;
9,06279302118124E-13;
9,05310580278545E-14;
-5,02701520533095E-14;
4,43287481119462E-13;
-3,22797103325697E-13;
-1,02839840767915E-12;
-3,28948976881933E-14;
2,8317845022751E-13;
-2,60051873211556E-13;
-3,76004136006881E-13;
2,87485625966077E-13;
8,940865385213E-13;
1,74420642524984E-13;
6,46648600643667E-13;
4,72790168078072E-13;
1,62897400581353E-13;
1,0719411309499E-12;
-2,12755790901737E-13;
-1,88492080611095E-13;
7,29100856788903E-13;
2,21892335681986E-13;
4,36380888792249E-13;
9,96421029793242E-14;
3,89485944391838E-13;
6,81845646885292E-13;
-7,55811100947472E-13;
-5,76491451514061E-13;
3,37780059158269E-13;
6,74081587183569E-14;
3,94096607221752E-13;
6,65591312620046E-13;
8,66215438944554E-13;
1,11481684557689E-12;
7,71630971364428E-14;
1,26479622648913E-13;
1,03587992888202E-12;
5,56380967585327E-13;
3,10639449891625E-13;
9,07988699275416E-13;
1,11148474010735E-12;
8,70922379582773E-13;
8,67086717426075E-13;
3,13628452224669E-13;
-8,42552639128948E-14;
6,10938303312888E-13;
1,3151016354451E-12;
1,05330541704231E-12;
2,25656634434847E-13;
1,3030457176289E-13;
2,80975543043285E-13;
2,95131904722865E-13;
-2,50101161687978E-14;
-7,51790388060146E-14;
7,56456452062867E-13;
1,36567658064239E-12;
1,31011403180946E-12;
7,82914544588764E-13;
7,063910187638E-13;
8,64231003047267E-13;
4,95577892025572E-13;
5,75596874715229E-13;
5,69229503713729E-13;
-2,26284642643114E-13;
-3,39205412823873E-13;
3,36980811263701E-13;
5,32993034904952E-13;
-1,08554092418342E-13;
-6,78740705372683E-14;
5,07154645052282E-13;
2,03081673363855E-13;
1,14995425871102E-13;
-1,95759471938325E-13;
-1,37815877453774E-13;
1,00240293478287E-12;
5,60383963760578E-13;
9,16539435744045E-14;
7,88640981893729E-13;
4,6287890093611E-13;
6,84374466695486E-13;
9,72509995186528E-13;
-2,0721127969722E-13;
3,00004409101912E-13;
1,05155913663599E-12;
-2,53902357726723E-13;
-9,35882200014499E-14;
6,68876475411905E-13;
5,26884580854119E-13;
1,20762775209406E-12;
1,20209129800489E-12;
4,91440429495808E-14;
-4,75792498954228E-13;
1,4575526549697E-13;
7,60531350302549E-13;
3,12521686400523E-13;
-4,87494452244709E-13;
-2,03460970221089E-13;
5,15168910204513E-13;
-1,16587706820277E-13;
-1,03693073562717E-14;
5,10440311612079E-13;
-3,41368855044594E-13;
-5,34303806217739E-13;
-2,44933480551821E-13;
5,27209941503356E-13;
8,47140741497936E-13;
2,55243478927094E-13;
2,9673801511983E-13;
4,43421312852964E-14;
5,11411420699065E-13;
9,93117765602322E-13;
8,02456776171187E-13;
1,13494863691378E-12;
4,13221589218983E-13;
1,03640642485566E-14;
3,09950726153688E-13;
4,25684082664779E-13;
8,8304421017166E-13;
2,09964779053195E-13;
-1,20999703504252E-14;
4,48660030263319E-13;
3,51165796524097E-13;
9,0161175907791E-13;
5,33365479813022E-13;
9,02620830778822E-15;
4,38816098053543E-13;
5,92816801979092E-13;
9,94004516716029E-13;
5,61012735204502E-13;
-7,35909232140476E-14;
4,60008935194285E-13;
6,69028342179878E-13;
9,74095944164327E-14;
1,4697306450937E-13;
7,65915721526615E-13;
7,15717099272732E-13;
1,10139928313874E-12;
5,3651390859442E-13;
-4,00896199903287E-13;
7,67468042240962E-13;
8,57839495500332E-13;
3,38602859212746E-13;
3,13699130571132E-13;
-1,62881160554343E-13;
3,32707770108315E-13;
6,38314335304105E-13;
5,82032060826013E-13;
4,91382220458458E-13;
-1,85734960244083E-13;
4,74002520669856E-13;
8,48072155958835E-13;
-3,23825716707666E-14;
7,99826766343955E-13;
1,27862969302338E-12;
2,43462951356041E-13;
6,24216713179784E-13;
8,01531764622375E-13;
2,37413541854507E-13;
8,76046376119959E-13;
6,38242825743495E-13;
-1,39400913914561E-14;
1,32063238692142E-13;
-3,62225398329824E-13;
-1,39304487878391E-13;
4,35733825052846E-13;
2,84632300368302E-13;
5,27102112459048E-13;
6,51595659531147E-13;
4,82306501727296E-13;
2,7859463153335E-13;
4,24564325021738E-13;
3,17037289677137E-13;
-7,04134906166933E-16;
5,78342749489755E-13;
2,46634383553088E-13;
-1,65442515748657E-13;
3,87072593185808E-13;
3,1637064009711E-13;
2,42114871778294E-13;
8,94654083535774E-13;
7,1979685106161E-13;
1,5656406150327E-13;
6,97495953910944E-13;
-9,27525503546829E-14;
-4,00260315815784E-13;
5,24452992468572E-13;
-2,50374326114288E-13;
1,47717301110593E-13;
7,85695401848607E-13;
4,33105249232449E-13;
5,92307030341014E-13;
6,14088572791801E-14;
3,50639636399002E-13;
4,85064842302481E-13;
2,51691712946121E-14;
7,51181048764307E-13;
8,52840450420885E-13;
8,51029327037422E-13;
1,05331677905474E-12;
3,99504907370482E-13;
3,97738122388694E-13;
9,13779263853957E-13;
3,32316689637274E-13;
3,07634527897642E-14;
3,94543775817451E-13;
3,49604078173671E-13;
9,51629854556565E-13;
7,68271629036474E-13;
-4,57559427722232E-13;
2,68613058024206E-13;
1,04181595658835E-12;
3,02839362601303E-13;
3,76488568727836E-13;
3,97693936878137E-13;
1,66855026663917E-13;
8,27350960077679E-13;
8,75043115924066E-13;
2,76680154700157E-13;
3,09144293492263E-14;
1,06840789491539E-13;
-3,3978840939676E-13;
-6,13243050800018E-13;
-6,06031856260259E-14;
3,08896499605678E-13;
7,20130180915495E-13;
6,67636612055227E-13;
5,76380679364762E-13;
7,54400589809763E-13;
5,90248028115586E-13;
4,89910654435201E-13;
4,43280034405701E-13;
2,20803823168305E-13;
-1,1492779167744E-13;
4,84912946131162E-13;
9,44903663334543E-13;
6,84817609942002E-14;
-1,59813372162322E-13;
5,13916025735853E-13;
7,54265950231451E-13;
9,43389178959248E-13;
1,01770622674053E-12;
3,57937949901868E-13;
-5,68799400469742E-14;
1,96728065290981E-13;
1,93714295290367E-13;
2,87439776620398E-13;
5,26168160589774E-13;
9,92589307160431E-14;
-3,33295883403887E-13;
3,624285344011E-14;
3,30201150974896E-13;
-3,10259708864417E-13;
-7,11148746037985E-15;
2,64873271894E-13;
-2,64645648472455E-13;
6,05216817828119E-13;
2,83673404448213E-13;
3,00047198406588E-13;
1,46357140584068E-12;
2,08784941560129E-13;
8,41926735214337E-14;
3,90451431752218E-13;
-2,8210753351878E-13;
5,2352039456543E-13;
2,81036220052115E-13;
-2,73809489409694E-13;
9,97008157750066E-14;
-1,02683513727812E-13;
-9,5616076553381E-14;
5,92511689658091E-13;
1,03090804050229E-12;
4,39201468030179E-13;
2,70730536028906E-13;
1,11929756548547E-13;
-3,74942747654989E-13;
4,43480499072536E-13;
4,70152635910842E-13;
-2,60452372638559E-13;
6,23081411694939E-13;
1,70998973274594E-12;
8,886017263909E-13;
9,73499845507932E-14;
3,6409491261365E-13;
1,76330092357339E-13;
9,52029272283786E-13;
1,25901278539461E-12;
4,81065940221691E-13;
4,81873022764003E-13;
1,37283349746064E-13;
4,77057036223775E-13;
8,57014345374116E-13;
1,91113947851585E-13;
3,70759726101468E-13;
7,21998772322907E-13;
5,25230132693631E-13;
5,17632260983119E-13;
5,24681537051791E-13;
4,36936433702476E-13;
5,35077031666778E-13;
4,94348549315461E-13;
3,49535422098269E-14;
-2,21145917923385E-13;
-5,18152656955694E-14;
-2,21218498733462E-14;
-2,81951945843035E-13;
-2,30605701676354E-13;
3,30808209225815E-13;
4,39921952257043E-13;
5,34323256361265E-13;
3,29865268553378E-13;
-1,2138574714329E-13;
7,52435853633447E-13;
1,04807007347917E-12;
5,36132015579986E-13;
2,3885138963728E-13;
3,43112728759894E-13;
4,28787122778182E-13;
-5,30062502849752E-13;
-1,23888208221574E-13;
4,80293481499674E-13;
2,31196088372493E-13;
1,42794575518438E-12;
1,06781077868323E-12;
-4,14482177209835E-13;
-1,27445659091838E-14;
8,50374586337458E-14;
3,39102616731677E-13;
5,9093829442193E-13;
-2,55076783216169E-13;
2,15582378265227E-13;
7,43702927135855E-13;
3,7806736804799E-13;
2,17503028312074E-13;
-5,83895810447321E-14;
2,70766911608645E-13;
5,17506495646588E-13;
4,2037416747434E-13;
1,63294043024224E-13;
-4,16412031533904E-13;
1,92447090934128E-13;
6,67108597329001E-13;
2,04367361272449E-13;
3,78633847793055E-13;
3,30528016655296E-13;
5,37267580505304E-13;
8,96766882570953E-13;
5,593753677386E-13;
9,56236431115463E-13;
7,23346628432943E-13;
3,59079303615757E-13;
7,81827456543623E-13;
2,47860178848071E-13;
5,91783707168775E-13;
1,3462731566161E-12;
6,07785023771112E-13;
7,56087881350147E-14;
4,74789187519526E-13;
-8,03745093791855E-14;
-5,92662504394643E-13;
7,37998398942332E-13;
9,20294764026392E-13;
2,18756345344458E-13;
3,20866083825077E-13;
4,26778868045359E-13;
-1,88538998147492E-13;
-9,37486808322526E-13;
-3,66046132937507E-14;
6,91313095529554E-13;
5,90647243859184E-13;
1,74333328580995E-13;
-2,3508104271935E-13;
3,5031097622376E-13;
1,06263925521803E-13;
7,68780404041271E-14;
5,77127533721524E-13;
-2,57623873254444E-14;
7,70646847836132E-13;
1,49829455752002E-12;
6,05106867582816E-13;
8,50959044385613E-13;
7,2843731151817E-13;
3,712230366748E-13;
1,10930056876791E-12;
3,53805403783525E-13;
-6,38049200315238E-13;
1,58986021599987E-13;
9,16178785940923E-13;
8,08286355737361E-13;
7,01528787509991E-13;
1,20568574288032E-13;
-2,79050681860539E-13;
3,83724856646961E-13;
2,54418605333829E-13;
3,85991006668908E-13;
6,25884158363909E-13;
-1,38656290387305E-13;
5,78799233156188E-14;
6,08021867301376E-13;
8,01245505403041E-13;
1,08195703239564E-13;
-5,13770385920657E-13;
4,20152264486621E-13;
7,74099627458652E-13;
8,89072139489314E-13;
1,0214887203831E-12;
2,58290377868706E-13;
7,52993122256741E-13;
1,18202473384587E-12;
1,36036255591667E-13;
4,95378300172152E-13;
1,14666540482426E-12;
1,05006556306103E-12;
1,43804094335981E-12;
1,10572651865242E-12;
5,77340735899234E-13;
3,74686830204007E-13;
5,32996337686694E-13;
8,87830814981089E-13;
1,72351143988758E-13;
-1,93070338742456E-13;
3,99456907562126E-13;
3,56088936013511E-13;
-5,26577844515346E-13;
-3,35098202283846E-13;
7,29354038163057E-13;
1,59406408243906E-13;
-5,56442489604256E-13;
2,36855367679509E-13;
7,11544078801611E-13;
-1,12561262976604E-14;
-8,7713295905366E-14;
5,41054692419606E-13;
-1,66304388870494E-13;
-5,01693395986042E-13;
3,01976426205158E-13;
3,79160938338575E-13;
3,32132479034706E-13;
3,26093502648301E-13;
1,3482704393749E-13;
1,20162181430754E-13;
1,81241725211218E-13;
8,29764036076352E-13;
1,08348221001336E-12;
3,16877526726599E-13;
4,27872453493037E-13;
5,61258613621519E-13;
-9,77019451287108E-14;
8,00418211753795E-13;
1,38741675474136E-12;
2,77683043596026E-13;
1,37751907778766E-13;
3,96269037363342E-13;
1,73999813394439E-13;
7,12316508009165E-13;
1,26224984671781E-12;
5,53810299507647E-13;
4,93841992435425E-13;
8,31291852260876E-13;
6,83185210354718E-13;
7,18225837386536E-13;
-1,08439260185664E-14;
6,84767603680156E-14;
5,05306378063934E-13;
5,01367584492257E-13;
1,1600386371244E-12;
6,72992334279602E-13;
1,30835913795643E-13;
2,90401785379721E-13;
-4,26983261243563E-13;
-3,27391491890671E-13;
7,24126355941797E-13;
1,11156310835568E-12;
1,00213127821288E-12;
8,24713644386297E-13;
5,33926417370888E-13;
4,55345788288997E-13;
4,64714134093699E-13;
1,03306210327751E-13;
-1,46580061401668E-13;
2,66765479999967E-13;
1,09331147852068E-12;
4,44167738078226E-13;
-7,01451211221442E-15;
1,2292034342604E-13;
-5,15579913777278E-13;
4,92482026988376E-13;
8,86517471504443E-13;
4,42109938459084E-13;
3,97019543818003E-13;
2,87163625985698E-13;
1,19095166597148E-12;
3,40676777483831E-13;
-1,09973410703325E-12;
-2,64104181215295E-13;
7,13919513730086E-13;
3,58604887565428E-13;
-3,47726067567996E-13;
-1,3080928083755E-13;
5,52083897293537E-13;
5,26639619884683E-13;
-6,90442724077111E-14;
5,00525115570265E-13;
6,94028784293691E-13;
-3,55488737506798E-13;
4,50503744311779E-13;
6,5646571001796E-13;
-3,19878429820156E-13;
5,87260327246478E-13;
4,25050683704728E-13;
-3,18426309235404E-13;
5,22793655138697E-13;
4,29385481967641E-13;
-1,02847935608795E-13;
9,08373411284177E-13;
8,72497968254869E-13;
-3,73822458358622E-13;
5,4074031472819E-13;
5,2756193136481E-13;
-1,04419326692379E-13;
9,36435201245301E-13;
3,60171250494423E-13;
9,26809008603501E-14;
7,24351962238406E-13;
8,62262089484024E-13;
7,62359974539222E-13;
4,46503549896707E-14;
8,77425697358946E-13;
9,91908464393497E-13;
-8,6496407568417E-14;
2,88012196529234E-13;
3,16802332197404E-13;
9,38017815155706E-13;
1,18690271380618E-12;
2,84218795991388E-13;
2,65133444057916E-13;
5,35122865696529E-13;
9,15139143497738E-13;
1,62160014465722E-13;
-5,21237202532922E-13;
-8,18131516592818E-14;
-8,48312903591635E-14;
6,93542415880796E-13;
1,21995558046994E-12;
3,71993668800118E-13;
6,79932107192606E-13;
1,26590061294879E-12;
4,30865569577857E-13;
5,01492304095595E-14;
5,48640432046198E-13;
5,91413053258483E-13;
5,45054990413614E-15;
1,08532405766816E-13;
7,5581135234956E-13;
1,30271520874071E-12;
2,05587046742609E-12;
1,35418017613241E-12;
1,20621223778284E-13;
4,40103042190907E-13;
5,1558211551403E-13;
3,50702469990339E-13;
8,59693233381395E-13;
3,36558970436043E-13;
-3,26387062131154E-13;
3,8641949918406E-13;
8,24940444469031E-13;
6,3382566161184E-13;
1,03057285812011E-13;
-2,41377664758364E-13;
1,82003676924179E-13;
1,13324959387379E-13;
3,20146859353783E-13;
5,78529505872291E-13;
1,63058141644482E-13;
6,26867909148979E-13;
7,49789927774574E-13;
7,36288591033036E-13;
1,03391030314906E-12;
6,32195748203062E-13;
8,3413100359246E-13;
1,02084656473032E-12;
5,47814583933265E-13;
5,94806124262868E-13;
7,02295024555707E-13;
2,24731314994163E-13;
2,74244834625458E-13;
5,19575829840504E-13;
3,87049615343132E-13;
2,98661960583973E-13;
5,45422779529257E-13;
1,06383738965304E-12;
2,59333393620606E-13;
1,94868916636607E-13;
7,62362655511794E-13;
-1,87121393559572E-13;
-1,45715912305234E-13;
3,49647682251243E-13;
6,08703281988079E-13;
5,89020562642668E-13;
-2,39566780808098E-14;
2,26207747678545E-13;
5,42912394365879E-13;
6,1823195256358E-13;
3,05244426748495E-13;
-2,84040622961822E-14;
6,11614254864558E-13;
4,90932412457726E-13;
3,4445257298276E-13;
8,22977686871751E-13;
3,51294468634264E-13;
2,6448334725298E-13;
8,18894737821347E-13;
4,59087976192988E-13;
3,49414277013799E-13;
1,13165155951592E-12;
5,58071737520465E-13;
3,64356017860865E-13;
9,84640587225202E-13;
1,06393241799731E-13;
7,06722624540104E-13;
1,00435318364342E-12;
-1,0723046488705E-13;
2,57197415450786E-13;
-1,37818055623995E-13;
5,55280936045116E-16;
7,30259305941829E-13;
1,04852102349506E-13;
2,14760222303293E-13;
4,9959408943726E-13;
3,9809548995537E-13;
-8,08038526333985E-14;
-5,63523750541977E-13;
-9,16927965620987E-14;
1,99168258075783E-13;
5,29278921629921E-13;
5,58951719894924E-13;
-1,39212918105788E-13;
1,55072519159949E-13;
8,88612351796538E-13;
9,30342334931066E-13;
9,40763799797549E-13;
4,97724099834265E-13;
1,51132942160224E-13;
4,50455920917473E-13;
2,3760785800877E-15;
6,51674425718515E-15;
4,44331993841767E-13;
3,98712019164119E-13;
8,43139954961767E-13;
6,25182654760897E-13;
1,48359205412719E-13;
9,02093579649034E-13;
1,10077544518211E-12;
2,48339969285248E-13;
3,16594182253681E-13;
2,88076932945193E-13;
1,62589413654193E-13;
4,88785275962639E-13;
-3,46516968105215E-13;
1,71245274004839E-13;
1,14955878252622E-12;
2,39762873157896E-13;
1,22464877431266E-13;
9,22043391642485E-13;
1,19350006518984E-12;
8,55885591408475E-14;
-7,44628346925438E-13;
1,9243908512942E-13;
6,48885216783807E-13;
-3,73957530139932E-14;
2,30434031927046E-13;
1,14067342350507E-12;
3,40908426202025E-13;
9,39562882665082E-14;
8,32823422353098E-13;
-2,11160656168248E-13;
-2,75526187090199E-13;
1,21352024189908E-12;
6,98066534546356E-13;
-5,64680788880182E-14;
5,77170687152217E-13;
-2,51075114929646E-14;
-8,30490072050535E-14;
8,62855822970511E-13;
3,99520950904557E-13;
-3,26006267932279E-13;
-1,03107180005938E-12;
-1,64953824390871E-13;
1,3645724710997E-12;
1,34353829853702E-12;
1,0721729051764E-12;
3,37978705046893E-13;
5,25716295566361E-13;
9,42073424804257E-13;
1,92388732807434E-13;
-1,4882415161056E-13;
-2,80820566157779E-13;
6,47124067661017E-13;
8,91460950946234E-13;
1,57496732070783E-13;
9,49401708677562E-13;
4,66519816522428E-13;
-5,17554177183532E-14;
6,42216121715961E-13;
6,13154315085172E-13;
1,12703977389649E-12;
6,12401519817953E-13;
3,56876944963964E-13;
9,45388882035512E-13;
-2,63610443586891E-13;
-3,61300752463663E-13;
4,29265835778934E-13;
5,2831250291535E-13;
3,83141982257515E-13;
-3,77286833268044E-13;
2,86686382936239E-14;
6,82707932680855E-13;
4,17873712044993E-13;
3,37748721190494E-13;
1,38694099689375E-13;
1,47803744324899E-13;
-1,09068003240943E-14;
1,62334950684412E-13;
1,13217619053018E-12;
1,3278513998392E-12;
9,0533400129985E-13;
-3,91696870993423E-14;
-1,58875329901124E-13;
7,83948533175137E-13;
9,4679197830602E-13;
8,31807921445599E-13;
3,06779613827087E-13;
3,29286616990153E-13;
6,3063910779721E-13;
-2,06902147884974E-13;
3,67235760835658E-14;
2,56017176048811E-13;
-5,19616666444731E-13;
-1,59530701685761E-13;
2,09066306895378E-13;
8,2106468579178E-13;
1,26838026808618E-12;
-1,08871850038194E-14;
-7,04541429686534E-15;
6,3691195380619E-13;
-3,22957944538224E-13;
-5,02872056823154E-13;
4,7073618303098E-13;
7,54771134929842E-13;
-6,43135936220524E-15;
-2,58818701885159E-13;
3,25529863671466E-13;
3,81361098087839E-13;
2,75853693264009E-13;
6,33952374724465E-13;
9,73977714236966E-13;
5,77125696351302E-13;
-1,44100215987641E-13;
1,14567718887476E-13;
5,45107889784131E-14;
-1,72076508515608E-13;
4,28098961226571E-13;
3,0423790845556E-13;
-1,17583736815937E-13;
-3,78185932559468E-13;
6,75965042413014E-13;
1,0083564605595E-12;
-1,41601854235604E-13;
5,45893153156971E-13;
-9,63846779441915E-14;
-6,58312230646198E-13;
2,65563776163513E-13;
5,17381150178547E-14;
8,01192548652818E-13;
9,46541011454456E-13;
2,97070340918147E-14;
1,44706391825327E-13;
7,92333428973945E-13;
8,18464822673065E-13;
1,39089641287149E-13;
2,7982566856625E-13;
2,40452754027455E-15;
-5,64709896750717E-13;
3,60284129253362E-13;
1,00428912339504E-12;
6,43154213880132E-13;
2,58223990160973E-13;
5,51372465081762E-13;
9,00398735970893E-13;
8,79830243736682E-13;
7,49360194595697E-13;
1,18353106264459E-13;
1,94698841784299E-13;
6,76251215569953E-13;
4,38689749419052E-13;
4,02008750082378E-13;
4,99356868862317E-13;
1,02498188000934E-13;
9,81999894275213E-13;
1,76163547282916E-12;
-6,50253240884077E-14;
-4,17685726748055E-13;
0,00933343404684729;
0,0226297298253105;
0,0163727372761857;
0,00943309617784523;
0,0121693917854751;
0,00702616733021867;
0,00563481712954861;
0,00458271005385608;
0,000840500091016931;
0,00103239237214647;
-0,00119043949574716;
-0,00199195265784278;
-0,00280713693533233;
-0,00455368131919436;
-0,00488732499934179;
-0,00585590070875346;
-0,00594121727193146;
-0,00618248832164097;
-0,00699357666836542;
-0,0079207035482554;
-0,00934888799386998;
-0,0102428887103877;
-0,0105184993943254;
-0,0101085231419915;
-0,00920766466509062;
-0,00843029680173176;
-0,00783043416837311;
-0,0074574714967688;
-0,00704805327848444;
-0,00641867706820135;
-0,0056754536326415;
-0,00495848727270644;
-0,00445308141414279;
-0,00409076741110425;
-0,00366382586829489;
-0,00302656743761871;
-0,00222823254365788;
-0,00157282907313371;
-0,00136107645921893;
-0,00166524557383874;
-0,00222572542171798;
-0,00258706177210072;
-0,00240676232073027;
-0,00165718471556095;
-0,000624734014848068;
0,000316669697605363;
0,000963663523437935;
0,00137586886892104;
0,00176513174809171;
0,0022784619315537;
0,002873711836532;
0,00337820905231694;
0,00366494227465424;
0,0037844255914784;
0,00392474763683266;
0,00423344806266063;
0,00465410314797448;
0,00492912948542261;
0,00478539611572703;
0,00416205590824093;
0,00329839411591935;
0,00260120493691735;
0,00238404675915976;
0,00267133447160336;
0,00320917063069437;
0,00366539555846645;
0,00385876826770036;
0,00384594464792853;
0,00381730502353232;
0,00390618887413038;
0,00407638930709414;
0,00417461995720272;
0,0040891481631356;
0,00386593851119814;
0,00367395077443415;
0,00364551935631905;
0,00373088376141476;
0,0037012562587286;
0,00331394893899441;
0,00251555483965952;
0,00151956437362061;
0,000688088782710327;
0,000299921507230303;
0,000376496335487334;
0,000692035009948093;
0,00095143238240238;
0,000993755270965918;
0,000869183490223965;
0,000746304649719885;
0,000742935836255355;
0,000826535917802248;
0,000860914881404449;
0,0007467754544317;
0,00052437674703987;
0,000342641814842737;
0,000317918804612335;
0,000405552501674185;
0,000402860404361794;
9,5119666175568E-5;
-0,00056518094887093;
-0,0107236164877148;
-0,0246910037826454;
-0,0187063544874096;
-0,0116223592940963;
-0,0139972387358857;
-0,00853592289745113;
-0,00701192127223256;
-0,00596902286067808;
-0,00223033989620619;
-0,00231727179430881;
8,97661344036274E-5;
0,00103463609700778;
0,00186474291526763;
0,00353260259833766;
0,00382392664437567;
0,00488786326929943;
0,0051665625426939;
0,00552145619942132;
0,00617835279677541;
0,00664177265171235;
0,00746064874641319;
0,00787759597672668;
0,00802158625577851;
0,00784053012515782;
0,00735462448665588;
0,00695105593305703;
0,00655991790483055;
0,00626843174535733;
0,00594145075915446;
0,0054846581232885;
0,00497855075657627;
0,00445879659192937;
0,00403463682773147;
0,00366783364136219;
0,0032633542893833;
0,00276323493131154;
0,00218226985135908;
0,00167054996177087;
0,00136622431398056;
0,00130576063874123;
0,00137147126985602;
0,00134804346768097;
0,00107699073179005;
0,000543583800584744;
-0,000116334502914887;
-0,000724583160250925;
-0,00118434703997923;
-0,00152244936110072;
-0,00184024513560494;
-0,00220794459609393;
-0,00260531817124098;
-0,00294924153660599;
-0,0031777686230698;
-0,00331523397730814;
-0,00345292230455919;
-0,00366309226925624;
-0,00391872199592707;
-0,00409377840175037;
-0,00405387359030935;
-0,00376838330078748;
-0,00335502044713579;
-0,00301538525381848;
-0,00290602835796744;
-0,00304040644749827;
-0,0032929096336842;
-0,003497926771652;
-0,00356466124932013;
-0,00352164921125184;
-0,00346521642113906;
-0,00346340006545893;
-0,00349852997876837;
-0,00349315078230738;
-0,00339050036418112;
-0,00321419526759533;
-0,00305115661460099;
-0,00297002121977957;
-0,00294586743900246;
-0,00286092459392703;
-0,00258939496315882;
-0,00210309155244783;
-0,00151283612783091;
-0,00100788060522889;
-0,000734996238268241;
-0,000706570813581858;
-0,000804732262794856;
-0,000874202719023501;
-0,000829829986062129;
-0,000698122803727605;
-0,000568858969366945;
-0,000505246883650132;
-0,000490307441163972;
-0,000451225008660113;
-0,00033454872896126;
-0,000161839331042858;
-1,36443030294762E-5;
4,66544132159195E-5;
4,29415642311145E-5;
8,55694747989634E-5;
0,000292250952136414;
0,000689730464580752;
0,00117541312251701;
0,0015738887591823;
0,00174942933656757;
0,00169131747985414;
0,00150982606973192;
0,00134983223814975;
0,00129097283935317;
0,00130920953793301;
0,0013218506320869;
0,00127090372471798;
0,00117271456957928;
0,00109530365406142;
0,00108867139109767;
0,00113332918320798;
0,00115522383418894;
0,00109623070332578;
0,000978922468824652;
0,000905712283331294;
0,000985677448377787;
0,001243773086043;
0,00158554303290338;
0,00184943190435394;
0,00191061458656486;
0,00175959519007715;
0,0014983414531153;
0,0012605678703893;
0,00111977160224583;
0,00105394594206859;
0,000987128154040919;
0,000866119300809217;
0,000706078702179751;
0,000569606170342263;
0,000502666785036842;
0,000487363046046506;
0,000455721296995721;
0,000354429511808198;
0,000204210372978571;
9,89339125455126E-5;
0,000138466950488576;
0,000345511935104804;
0,000633403626554056;
0,00085413551173059;
0,000893432897955311;
0,000742587387316302;
0,00049478354129394;
0,000272121619127862;
0,000141579696138251;
8,28694879976141E-5;
2,64722435985454E-5;
-7,63033802078085E-5;
-0,000211769230693022;
-0,00032300890562783;
-0,000368321706351919;
-0,000364219264361791;
-0,000372793466164653;
-0,000442732977763595;
-0,000555323120471781;
-0,000625342765438427;
-0,000562198639160999;
-0,000345503529927298;
-5,42358159572488E-5;
0,000177000838188741;
0,000244345290564055;
0,000139815373370755;
-5,21469028689338E-5;
-0,000220953272730786;
-0,00030605821252946;
-0,000326011717583341;
-0,000343916847756774;
-0,000403962757884335;
-0,000493856150410336;
-0,000562215372868282;
-0,00057145560771291;
-0,000536624095562254;
-0,000513919676148011;
-0,000547380098236731;
-0,000620159083074952;
-0,000655416110300085;
-0,000571530062418924;
-0,000350239367913851;
-6,28363663624281E-5;
0,000169348863901261;
0,000252779558798336;
0,000180302399447185;
2,79291272688026E-5;
-0,000104873118240359;
-0,000163699952413096;
-0,000165257795480895;
-0,00016624819540679;
-0,000206336749239768;
-0,000274461380235592;
-0,000324502689081433;
-0,000322751229536988;
-0,000282699343241548;
-0,00025469267976674;
-0,0002781359694998;
-0,000337890839247551;
-0,000365144786125562;
-0,000286869560295429;
-8,67513113924897E-5;
0,00950490674333193;
0,0230091499986288;
0,0168263603135339;
0,00982088891385031;
0,0124192412892797;
0,00715474358800784;
0,00570732908602847;
0,00464950331793979;
0,000901449847833591;
0,00105211485096132;
-0,00123741514279855;
-0,00209001185709053;
-0,00291065241937687;
-0,00462899084376182;
-0,00494545901301443;
-0,00594282653652691;
-0,00608939680072538;
-0,00636327279392036;
-0,0071135261212853;
-0,00787192085915575;
-0,00907996233187842;
-0,00979838726848421;
-0,010016829984604;
-0,00967357969659269;
-0,00890319046386064;
-0,00824149378982729;
-0,00769959134630616;
-0,0073399992729928;
-0,00694390548839501;
-0,00635888993888247;
-0,00568227997483376;
-0,00501792761329401;
-0,0045246777279306;
-0,00414460188720728;
-0,00370932371075771;
-0,00310387613906797;
-0,00236558790408296;
-0,00174471804402266;
-0,00148505646521097;
-0,00164620912094101;
-0,0020181947480569;
-0,00222979815971848;
-0,00200327569112456;
-0,00131575585156454;
-0,00040090139216281;
0,00043616776878158;
0,00102964167567005;
0,00142763939817387;
0,00180304031169901;
0,00227568850790433;
0,00281111891976026;
0,00326831443499999;
0,00354333926036426;
0,00367748827201285;
0,00382453055454177;
0,00410523246462474;
0,00447355338199281;
0,0047186988068372;
0,00461704543026233;
0,00411871188176354;
0,00341979585565906;
0,00285388175493645;
0,0026783103984859;
0,00291337788548763;
0,00335095104742987;
0,00371850997525948;
0,00386732799674361;
0,00384407313586623;
0,00380538440609429;
0,00386110112520983;
0,0039816611596993;
0,00404112386558617;
0,00394766428180165;
0,00373926581542418;
0,0035552695721045;
0,00350492936647269;
0,00354743871638114;
0,00349429807804883;
0,00314540209727679;
0,00245673349484485;
0,00160461753994877;
0,000888251609731836;
0,000538169988454142;
0,000572297212712964;
0,000804121194695654;
0,000989652291059186;
0,000995791160200413;
0,000864150095401656;
0,000734445623978429;
0,000704410940530302;
0,000747192983724994;
0,000749952949950494;
0,000630370509505547;
0,000421884430901213;
0,000248171418498355;
0,000205932574783652;
0,000258149461347236;
0,000236412194092635;
-3,78231201216791E-5;
-0,000604123816309366;
-0,0106396422739416;
-0,0245085724128918;
-0,0184908177317304;
-0,0114420102365508;
-0,0138871047950501;
-0,00848778372865285;
-0,00699403595879504;
-0,00595689800187071;
-0,00222385206587524;
-0,00233322503503703;
3,93785734194238E-5;
0,000957496252460639;
0,00178281629187043;
0,00346210981305284;
0,00375987180002649;
0,00480876598431716;
0,00505736994205382;
0,00539586032549418;
0,00608034435944373;
0,00662196424583251;
0,00754321261402544;
0,00804208472454225;
0,00821342100437702;
0,00800271006102649;
0,00745791150111814;
0,00700224909214824;
0,006585386808923;
0,0062885088025242;
0,00595621900152684;
0,0054801601758647;
0,00494483583919877;
0,00440222703529151;
0,00397339641566593;
0,00361534370209304;
0,00321549879907832;
0,00270229797337384;
0,00209585639859578;
0,00156996530852917;
0,00128770993551023;
0,00129097537661323;
0,00144031406054135;
0,00148376780198574;
0,00123486949958347;
0,000676935937850383;
-3,14373940511049E-5;
-0,000682591746470711;
-0,00116373355916006;
-0,00150662530640173;
-0,00182913160056007;
-0,00221288557091592;
-0,00263438449249788;
-0,00299724374697002;
-0,00322993024907493;
-0,00336065220532106;
-0,00349490048742007;
-0,00371592434220748;
-0,00399238635251884;
-0,00417912097753049;
-0,00412165629183615;
-0,00378503999794584;
-0,00330451458818299;
-0,00291112231130969;
-0,00278384196499047;
-0,00293766503047977;
-0,00322875291687124;
-0,00346793538592287;
-0,00355167715695001;
-0,00351246480769229;
-0,00345976574645849;
-0,00347068477803327;
-0,00352494080354559;
-0,00353456647277342;
-0,00343522291052834;
-0,00325360134158824;
-0,00308783577285691;
-0,00301521074636191;
-0,00300739336006438;
-0,00293158157264884;
-0,0026462469471544;
-0,00211985019800426;
-0,0014769488075329;
-0,000929780925913671;
-0,000642572769537099;
-0,000628872583042424;
-0,000756629264152136;
-0,000852300744484257;
-0,000820892587607109;
-0,000691979336105487;
-0,000565470945002162;
-0,000511540186926225;
-0,000511188537148893;
-0,000483540672053951;
-0,000369361218584203;
-0,00019257213918207;
-4,22654443515164E-5;
1,16163649166908E-5;
-4,43613400968088E-6;
3,1310703095795E-5;
0,000248428430099356;
0,000676147896021095;
0,00120151279326072;
0,00163186413686792;
0,00181843626004607;
0,00174968368768744;
0,00154646508700039;
0,00136722619101842;
0,00129887933409468;
0,00131510528040291;
0,00132574634512846;
0,00126770791103728;
0,00115883163436836;
0,00107302884938624;
0,00106450069297043;
0,00111202884806563;
0,001135373376031;
0,00107169203424588;
0,000945452276177152;
0,000867228734498722;
0,000954544089657139;
0,00123407800366283;
0,00160398680075797;
0,00189051910026718;
0,00195970018096523;
0,00180149836974113;
0,00152530779477125;
0,00127428520463449;
0,00112694910283129;
0,00105970145372044;
0,000991453296549267;
0,000865536445532411;
0,000698146689809919;
0,000555874004653224;
0,000487497288601081;
0,000473942601192489;
0,000443112749539352;
0,000338589553788849;
0,000182368268428688;
7,36667649324307E-5;
0,000117816572660876;
0,000338580369628677;
0,000644500586791655;
0,000879780969760981;
0,000924385620724665;
0,000769324694605885;
0,000512458343931916;
0,000281738574373247;
0,000147204558341908;
8,75760616545042E-5;
3,02404149538144E-5;
-7,55457675802179E-5;
-0,000215457297956848;
-0,000330236621818691;
-0,000376571552837283;
-0,000371670668284744;
-0,000379962850534462;
-0,000451848763017476;
-0,000567880156272136;
-0,000639921165523724;
-0,000574489400782276;
-0,000350710730133577;
-5,01154208748269E-5;
0,000188704300607349;
0,00025904724623143;
0,000152868709050574;
-4,30826653605521E-5;
-0,000215456908769831;
-0,000302333345035837;
-0,000322738766925183;
-0,000341124616241824;
-0,000402515989318783;
-0,000494325951554671;
-0,000564246142727443;
-0,000574110679864283;
-0,000539252919322996;
-0,000516679526881777;
-0,000550948064660373;
-0,000624940129106574;
-0,00066097976999402;
-0,000576755946901929;
-0,000354008955212412;
-6,46718997452577E-5;
0,000169176415570731;
0,000253647125251471;
0,000181710628000146;
2,96704335970028E-5;
-0,000102870901527608;
-0,000161565661163241;
-0,000163159761101154;
-0,000164222795380457;
-0,000204225986125134;
-0,00027210500686684;
-0,000322011267065613;
-0,000320525746768161;
-0,000281079384945506;
-0,000253533928060513;
-0,000276807923424621;
-0,000335880612826482;
-0,000362857004791689;
-0,000285871146538021;
-8,90219452067402E-5;
0,000164920487057191;
0,000369548282665271;
0,000443130700936502;
0,000379659262121897;
0,000245656735051358;
0,000127841465525991;
7,34974122994759E-5;
6,8087617777124E-5;
6,25106176821324E-5;
2,25617636582239E-5;
-4,20873456674326E-5;
-9,16206467111279E-5;
-9,70416787205036E-5;
-6,99645294828982E-5;
-5,3523680998898E-5;
-8,1334194820374E-5;
-0,00014033229601941;
-0,000171779236366146;
-0,000113581052184342;
4,79669314421538E-5;
0,000258676424063147;
0,000426795091342808;
0,000481945264787722;
0,000419049954735578;
0,000295470126819399;
0,00018587119629077;
0,000130925576995328;
0,00011813901855744;
0,000105352446672557;
6,32426419589456E-5;
1,51636528287428E-7;
-4,97552289669266E-5;
-6,16290045454102E-5;
-4,54221801552663E-5;
-3,80428182132747E-5;
-6,82105145724192E-5;
-0,000124719643009191;
-0,000157376693203161;
-0,000113196561235815;
1,94579448263154E-5;
0,00019433474369208;
0,000333244133683806;
0,000376296463655219;
0,000319234242673645;
0,000210886581184411;
0,000114717882661913;
6,52473751985506E-5;
5,18418064967871E-5;
3,87340659707193E-5;
1,08245930029285E-6;
-5,40326541648642E-5;
-9,769721369365E-5;
-0,00010891926003768;
-9,61410912189128E-5;
-9,05486465237268E-5;
-0,000116371074550415;
-0,0001641420411421;
-0,000191567512196957;
-0,000154072494010421;
-4,19362105869478E-5;
0,000105885205271076;
0,000223670585228502;
0,000261161238304556;
0,000214833639789827;
0,000125656468289792;
4,67892216937596E-5;
7,09182341916036E-6;
-2,36533980067419E-6;
-1,14882645275592E-5;
-4,10137326913905E-5;
-8,50247294488416E-5;
-0,000119424913384112;
-0,00012675724261358;
-0,000114079365037318;
-0,000107336865699866;
-0,000126649292797229;
-0,000164142106103801;
-0,000184743756815304;
-0,000151561480199181;
-5,66160789725957E-5;
6,78111241145164E-5;
0,00016739159920137;
0,000200661082172802;
0,000164767511376317;
9,35136079063304E-5;
3,06706031965151E-5;
-4,93198968060788E-8;
-6,01311504957807E-6;
-1,17801064171002E-5;
-3,4342761630056E-5;
-6,88350672444861E-5;
-9,55336311527623E-5;
-0,000100184506352513;
-8,85756006868952E-5;
-8,188175446508E-5;
-9,64823939859658E-5;
-0,000125940409098045;
-0,000141728824333083;
-0,000113911128373323;
-3,60736092625989E-5;
6,55646614424272E-5;
0,000147006008147779;
0,000174756447616679;
0,000146576074706532;
8,97884443327315E-5;
3,96803485218295E-5;
1,53186549903816E-5;
1,07574947669082E-5;
6,27483614703531E-6;
-1,17352718683901E-5;
-3,93508714810562E-5;
-6,07888770290676E-5;
-6,46778448338529E-5;
-5,56544443800606E-5;
-5,05890778462335E-5;
-6,24888300110425E-5;
-8,62087374691313E-5;
-9,91095024499959E-5;
-7,75083241243388E-5;
-1,63930396425407E-5;
6,34729329340804E-5;
0,000127378619357857;
0,000148989480972144;
0,000126613639396174;
8,17582474768175E-5;
4,20987307134238E-5;
2,25378962691736E-5;
1,84053418369179E-5;
1,4313569305177E-5;
-3,11554352846685E-7;
-2,23950550708134E-5;
-3,96810987215969E-5;
-4,33767830898937E-5;
-3,70893531156085E-5;
-3,38430747392031E-5;
-4,3634750319105E-5;
-6,24765037089711E-5;
-7,29868905699385E-5;
-5,70635179498567E-5;
-1,09434124594797E-5;
4,94741905633386E-5;
9,77523983166862E-5;
0,000113930110166819;
9,67985050693709E-5;
6,26840051724874E-5;
3,24883353840421E-5;
1,74100976207701E-5;
1,3910992593916E-5;
1,04518157840419E-5;
-8,52848795459047E-7;
-1,76835599155611E-5;
-3,09168586019388E-5;
-3,40484114726471E-5;
-2,97744291157812E-5;
-2,77135233311963E-5;
-3,5199729839153E-5;
-4,92731641665547E-5;
-5,72075931130791E-5;
-4,58372977489441E-5;
-1,25033745867027E-5;
3,11934532616232E-5;
6,61232559704296E-5;
7,79488284030824E-5;
6,58838924435658E-5;
4,16820872230679E-5;
2,02714520762526E-5;
9,58571145118442E-6;
7,0831619497467E-6;
4,61128195826796E-6;
-3,35146342916234E-6;
-1,51523385281915E-5;
-2,44230174479476E-5;
-2,66705041894769E-5;
-2,3790806638397E-5;
-2,24133009422096E-5;
-2,75369881849176E-5;
-3,71053096378004E-5;
-4,24737920298684E-5;
-3,4801586829749E-5;
-1,2394911686502E-5;
1,69099055647509E-5;
4,03763975041243E-5;
4,85844082362188E-5;
4,11154013266044E-5;
2,57271637771342E-5;
1,21318544766301E-5;
5,41485120721818E-6;
3,90470680994539E-6;
2,40169352204377E-6;
-2,55642448415461E-6;
-9,89811046121477E-6;
-1,56531409879654E-5;
-1,70773941062557E-5;
-1,5369786020041E-5;
-1,4561040937988E-5;
-1,76220121265793E-5;
-2,32809002318126E-5;
-2,64348935176438E-5;
-2,19924508233602E-5;
-9,093886675086E-6;
7,68806204155554E-6;
2,11540374726483E-5;
2,61389739848624E-5;
2,25417296034012E-5;
1,46656995612318E-5;
7,71750691079435E-6;
4,32447844248262E-6;
3,56740466611388E-6;
2,79374165010802E-6;
3,16094459531521E-7;
-3,29498159274295E-6;
-6,13364573130633E-6;
-6,95958510200562E-6;
-6,37100076331055E-6;
-6,16450098491752E-6;
-7,5690458595651E-6;
-9,98704352582006E-6;
-1,13541467606418E-5;
-9,79234509113455E-6;
-5,15461169416953E-6;
7,83179329495747E-7;
5,56158169383241E-6;
7,6547319712469E-6;
7,2319313832861E-6;
5,64513320142854E-6;
4,25485976324774E-6;
3,59222475875779E-6;
3,38013348005891E-6;
3,13640419896798E-6;
2,68425894600264E-6;
2,16722951109052E-6;
1,73552005240951E-6;
1,35204697032373E-6;
9,29468353927327E-7;
5,67343619842957E-7;
5,13344618945263E-7;
7,92694831117205E-7;
8,95962215814565E-7;
-1,78858387061908E-8;
-2,40301537947489E-6;
-5,67007642923397E-6;
-8,2749188663698E-6;
-8,67277247919966E-6;
-6,46747598147964E-6;
-2,79517298112358E-6;
4,65830034387175E-7;
2,08325888921066E-6;
2,32029226970856E-6;
2,51793537594605E-6;
3,76667404299611E-6;
5,85080419102514E-6;
7,44844732641095E-6;
7,45285227861281E-6;
6,2046708388781E-6;
5,38907556381477E-6;
6,4867427518737E-6;
9,04385708050938E-6;
1,04032518502389E-5;
7,45793687435873E-6;
-7,45598486223058E-7;
-1,16484306884604E-5;
-2,03772043342438E-5;
-2,28369705152496E-5;
-1,84445398835779E-5;
-1,04003682668191E-5;
-3,26644409620899E-6;
2,65660605457637E-7;
9,06311463391463E-7;
1,50271214156517E-6;
4,190582293098E-6;
8,45693718192742E-6;
1,17665080403707E-5;
1,21322850355056E-5;
1,02474154502834E-5;
9,09985035455388E-6;
1,11815672498333E-5;
1,56448422662913E-5;
1,80725646758053E-5;
1,35039636107969E-5;
5,78795823247871E-7;
-1,65340058219601E-5;
-3,02444509280502E-5;
-3,43798865021255E-5;
-2,82060657581467E-5;
-1,66030534632791E-5;
-6,31288351697011E-6;
-1,21062433782354E-6;
-2,22956644615682E-7;
7,16515537253645E-7;
4,58788698556871E-6;
1,06371762760157E-5;
1,5349951240788E-5;
1,60303716996345E-5;
1,36559219977933E-5;
1,22618508155487E-5;
1,51513211667415E-5;
2,11597607431193E-5;
2,44603179469688E-5;
1,86104353737178E-5;
1,92670958864423E-6;
-2,01360503511139E-5;
-3,78232020270946E-5;
-4,33099136126872E-5;
-3,57431742541419E-5;
-2,13363018896356E-5;
-8,55817662168205E-6;
-2,21927714527572E-6;
-9,58997478586057E-7;
2,50443194830058E-7;
5,05321290031006E-6;
1,25049781940063E-5;
1,83224317079437E-5;
1,92547211799246E-5;
1,65025638404772E-5;
1,49195277287566E-5;
1,84407216778755E-5;
2,56538247568691E-5;
2,96358201426083E-5;
2,27952697835736E-5;
3,20034484899503E-6;
-2,26981354417088E-5;
-4,34742636226284E-5;
-5,00312057351649E-5;
-4,14260435151533E-5;
-2,48962221652541E-5;
-1,02331472761424E-5;
-2,96148336332768E-6;
-1,50080374849333E-6;
-9,16584567273103E-8;
5,41362721765958E-6;
1,3925471607792E-5;
2,0578821717757E-5;
2,17046107760894E-5;
1,86724096434472E-5;
1,69505671205822E-5;
2,09469003987438E-5;
2,90627016064839E-5;
3,35571215763382E-5;
2,59851815077313E-5;
4,23284851902824E-6;
-2,4510065115001E-5;
-4,75836158127599E-5;
-5,49557509907064E-5;
-4,56192705106658E-5;
-2,75622892300816E-5;
-1,15412102517629E-5;
-3,59936517269573E-6;
-1,99614832789921E-6;
-4,43327031546594E-7;
5,5685385387682E-6;
1,48444218802519E-5;
2,21025669761048E-5;
2,33762519025496E-5;
2,01559443210118E-5;
1,83454762386258E-5;
2,26851713317198E-5;
3,14439465162997E-5;
3,63079437842053E-5;
2,82382786005625E-5;
4,99687781861328E-6;
-2,57132314100951E-5;
-5,03819606437687E-5;
-5,8337612385045E-5;
-4,85312464113989E-5;
-2,94620072160885E-5;
-1,25380907807173E-5;
-4,15028982780269E-6;
-2,45001658326802E-6;
-7,97734406900425E-7;
5,55385610882102E-6;
1,53391043881602E-5;
2,30037269522169E-5;
2,43886056414702E-5;
2,10632476497391E-5;
1,92105788562278E-5;
2,37812269161261E-5;
3,29588255773724E-5;
3,80697542361554E-5;
2,97072487085585E-5;
5,55981375793714E-6;
-2,63526370812746E-5;
-5,20035370397803E-5;
-6,03383377023276E-5;
-5,02859905479976E-5;
-3,06487805166291E-5;
-1,32151048846012E-5;
-4,57483589700708E-6;
-2,81658346429449E-6;
-1,10311607015194E-6;
5,44354675829358E-6;
1,55172821618421E-5;
2,34159269914151E-5;
2,48789183051722E-5;
2,15186665342144E-5;
1,96622478644297E-5;
2,43652340419009E-5;
3,37666011716278E-5;
3,90167108878349E-5;
3,05355654250813E-5;
5,98182156787123E-6;
0,00930695749082061;
0,0225771465173641;
0,0163116156218982;
0,00938208083334793;
0,01213820026763;
0,00701258138055587;
0,00562995670275575;
0,00457963062499142;
0,000839160644733445;
0,00103766894801398;
-0,00117499165135959;
-0,00196852184507058;
-0,00278219581879698;
-0,00453207806903344;
-0,00486755158938344;
-0,00583137835786943;
-0,0059072382487677;
-0,00614321415934475;
-0,00696275659322736;
-0,00791442091831887;
-0,00937505352736858;
-0,010295170585509;
-0,0105793739205578;
-0,0101593995884076;
-0,00923885336164559;
-0,00844399422206681;
-0,00783546296784873;
-0,00746072732283823;
-0,00704957292826165;
-0,00641361849086639;
-0,00566028844647285;
-0,00493538227245846;
-0,0044284461797579;
-0,00406940087756303;
-0,00364423836805937;
-0,00300225875240827;
-0,0021945544400902;
-0,00153389099201471;
-0,00133044443531437;
-0,00165878150765013;
-0,00225123388802521;
-0,00263832210932262;
-0,00246654335360906;
-0,00170720952562414;
-0,000655474834491083;
0,000303068280119655;
0,000958555897465399;
0,00137250076804257;
0,00176347089839766;
0,0022832525528715;
0,00288840970741126;
0,00340069757868293;
0,00368895782948632;
0,00380527987453574;
0,00394389337572675;
0,00425722605190782;
0,00468704530037931;
0,00496722988133739;
0,00481543773195749;
0,00416858969939304;
0,00327381435940936;
0,00255154655061405;
0,00232604535780926;
0,00262274012013205;
0,00317923916930448;
0,00365205855653333;
0,00385365462067789;
0,00384251678877418;
0,00381553534590211;
0,00391067166656733;
0,00409047041472508;
0,00419625619453226;
0,00411228906306371;
0,00388605619679566;
0,00369244600689108;
0,00366850807642779;
0,00376273559757038;
0,00373811030941931;
0,00334307099400825;
0,00252206313749327;
0,00149612704648474;
0,000640495511333842;
0,000244249670941849;
0,000329798388503059;
0,000663206532872048;
0,000938500123978344;
0,000988700103046966;
0,000865744375830102;
0,000744458644550873;
0,000747085779569429;
0,000839887960675566;
0,000881517518271728;
0,000768844501835101;
0,000543584096204582;
0,000360324425150983;
0,000339916201334;
0,000436035821114414;
0,000438146347308916;
0,000123061902515365;
-0,000558775650687514;
-0,0107457470472;
-0,0247361717603687;
-0,018759267264308;
-0,0116667949076583;
-0,0140247307469442;
-0,00854833500681031;
-0,00701686100239661;
-0,00597242870446011;
-0,0022322302533375;
-0,0023134673219207;
0,000102308917319433;
0,00105407125547233;
0,00188559312911462;
0,00355076957392734;
0,0038406745589596;
0,00490871603746731;
0,00519546530766381;
0,00555492793240588;
0,00620491455179574;
0,00664801144732707;
0,00743994353156953;
0,00783511990508778;
0,00797175276007059;
0,00779863143556599;
0,00732864631639784;
0,00693925442039689;
0,00655514098105843;
0,00626509725811459;
0,00593954465576252;
0,00548811260655816;
0,00499022968540651;
0,00447696963674414;
0,00405416303287946;
0,00368486636466122;
0,00327907847158004;
0,00278283060893997;
0,00220943636897196;
0,00170202625132283;
0,00139125577124931;
0,00131178020476992;
0,00135226815886399;
0,00130844199811013;
0,00103045895453787;
0,000504414573092166;
-0,000140672541176532;
-0,00073570730044624;
-0,00118892388618988;
-0,00152568164005911;
-0,00184214281275489;
-0,00220483887271629;
-0,00259453647058666;
-0,00293239191769846;
-0,00315963587583546;
-0,00329939844691624;
-0,003438282534506;
-0,00364483081414817;
-0,00389339838681636;
-0,00406442215014404;
-0,00403047770480666;
-0,00376262601442259;
-0,00337268085395459;
-0,00305200231144959;
-0,0029491210118559;
-0,003076725070132;
-0,0033155257250541;
-0,00350832738679585;
-0,00356900952939775;
-0,00352475467388526;
-0,00346708525370576;
-0,00346063672532134;
-0,00348866023209644;
-0,0034776566706406;
-0,00337379911679446;
-0,00319959252234806;
-0,0030376367452738;
-0,002953139815929;
-0,00292245015950033;
-0,0028337630703042;
-0,00256770039737492;
-0,00209763014191263;
-0,00152894335623495;
-0,00104146533217292;
-0,000774584856798549;
-0,000739978564235785;
-0,000825582389957334;
-0,000883850991111;
-0,000833928393573823;
-0,000701081857031367;
-0,000570681422451217;
-0,000502814789266003;
-0,000481348014912538;
-0,000437093018172439;
-0,000319289652720328;
-0,000148481032431249;
-1,25770229544134E-6;
6,21373205992615E-5;
6,44267159226734E-5;
0,000110504936599748;
0,000312212987501367;
0,000694871289759228;
0,0011608446211426;
0,00154333216707729;
0,00171334837546699;
0,00166082931331903;
0,00149075387103864;
0,00134095038528298;
0,00128713944478032;
0,00130641213281141;
0,00132008952963654;
0,00127301962006853;
0,00118077904979859;
0,00110808838297889;
0,00110250074476989;
0,00114545162266651;
0,00116648254934824;
0,00111031988868822;
0,000998481595141312;
0,000928427142337393;
0,00100390514611397;
0,00124857643747789;
0,00157247815916708;
0,00182185566214345;
0,00187799346737074;
0,00173199190563327;
0,00148103197947763;
0,00125245378353299;
0,0011162127782541;
0,00105132135205248;
0,00098544079763441;
0,00086793688083662;
0,0007132746793002;
0,000581076049493789;
0,00051509784328107;
0,000498274858435743;
0,000465872952676028;
0,000367148967130555;
0,000221876060448142;
0,000119464229596482;
0,000154983051923695;
0,000349967635935857;
0,000621790408409727;
0,000829455912442036;
0,000864181289323294;
0,000717798274762384;
0,000479198873100867;
0,000264765763732323;
0,000138299984844183;
8,04251023359788E-5;
2,48684918795372E-5;
-7,4764311766783E-5;
-0,000205406617271431;
-0,00031280739440752;
-0,000357242221412588;
-0,000354479396364827;
-0,000363715503056283;
-0,000431343596941857;
-0,000539496638687554;
-0,00060693584509251;
-0,000547351165192649;
-0,000341399873459071;
-6,44627008700409E-5;
0,000155105318548416;
0,000218338547504706;
0,00011774054308873;
-6,60632249600145E-5;
-0,000227569482448995;
-0,000309058616687845;
-0,000328271855039913;
-0,000345429472884009;
-0,000402681129737368;
-0,000488285024308825;
-0,000553224673741536;
-0,000561668857933735;
-0,000528006781754691;
-0,000505872009164309;
-0,000537268552078552;
-0,000606100164495684;
-0,000639051243002411;
-0,00055829182509003;
-0,000346487119091585;
-7,17523594815772E-5;
0,000150102424735706;
0,000229866181179618;
0,000160819013800215;
1,56099984155291E-5;
-0,000110775574463214;
-0,000166424497996846;
-0,000167332507118501;
-0,000167664248223149;
-0,00020529074581971;
-0,000269634840251295;
-0,000316656797879131;
-0,000314189057292531;
-0,00027514690351351;
-0,000247624081213711;
-0,000269240169589319;
-0,000325514223976218;
-0,000350724786013411;
-0,000275168158305943;
-8,33455109985027E-5;
0,000163784891809391;
0,000362671079974152;
0,000433631292827385;
0,000370760550230171;
0,000239045145458445;
0,000123355903727215;
7,00567921545463E-5;
6,49027123960098E-5;
5,96338836661044E-5;
2,05549581125741E-5;
-4,28432808761719E-5;
-9,12860049140528E-5;
-9,61029156524214E-5;
-6,87581596457481E-5;
-5,19874285557123E-5;
-7,91763108302483E-5;
-0,000137389738734962;
-0,000168200238697656;
-0,000109702562882944;
5,1850636388951E-5;
0,000262378529111173;
0,000430086191642733;
0,000484413128755054;
0,000420209660157828;
0,000295093922915431;
0,000184228706005591;
0,000128648075352913;
0,00011576248426652;
0,000102934046738221;
6,04280432376691E-5;
-3,33557692698311E-6;
-5,36636993150004E-5;
-6,52537875487724E-5;
-4,82162153849597E-5;
-4,02121645307224E-5;
-7,06308260220492E-5;
-0,000128049726236715;
-0,000161022958231037;
-0,000115098128717331;
2,17781271758357E-5;
0,000202033998466334;
0,000345011250697735;
0,000388770260687201;
0,000328832362030228;
0,000215780070577381;
0,000115530532826787;
6,40328399752844E-5;
5,02364948391397E-5;
3,67974299585748E-5;
-2,3026113970089E-6;
-5,96901917081045E-5;
-0,000105036161856248;
-0,00011624830619827;
-0,000102181693658313;
-9,57287075426996E-5;
-0,000122531463140199;
-0,000172621060722885;
-0,00020115994067007;
-0,000160739561725592;
-4,09146611194292E-5;
0,000116864399434008;
0,000242412664191247;
0,000281886613074533;
0,000231418426124343;
0,00013495586533531;
4,97121935511129E-5;
6,85129291824849E-6;
-3,2363944812325E-6;
-1,29299535785441E-5;
-4,47663434923593E-5;
-9,23598821912099E-5;
-0,000129476754717833;
-0,000137033751201706;
-0,000122708174997836;
-0,000114925354051311;
-0,000135820080086194;
-0,000176783748215317;
-0,000199156976709368;
-0,000162109524101519;
-5,66884611787476E-5;
8,13846583789118E-5;
0,00019171164699246;
0,000228008945666086;
0,000186980136539007;
0,000106388506948362;
3,53402982087188E-5;
5,50594957939916E-7;
-6,23683327930909E-6;
-1,27684845030032E-5;
-3,83331881388631E-5;
-7,74563447626018E-5;
-0,000107703228880539;
-0,000112776518948519;
-9,9247520872852E-5;
-9,1382248185751E-5;
-0,000108050812544348;
-0,000141899266321066;
-0,000159990239901772;
-0,000127581427232597;
-3,70892431686637E-5;
8,10859185305169E-5;
0,000175620039067592;
0,000207234724179285;
0,000173166456128561;
0,000105462273837707;
4,57390100556716E-5;
1,66086114244148E-5;
1,10742625431077E-5;
5,67539061321948E-6;
-1,58726630642844E-5;
-4,89313214728342E-5;
-7,45649339309838E-5;
-7,90385454882532E-5;
-6,78975029490738E-5;
-6,15704617556723E-5;
-7,59175817261962E-5;
-0,000104737720769451;
-0,000120356150148121;
-9,36257951111563E-5;
-1,82158463517596E-5;
8,03700761734915E-5;
0,000159148449955798;
0,000185274703335911;
0,000156472736366961;
9,95421601687617E-5;
4,92295031760594E-5;
2,43857349133647E-5;
1,91700465351837E-5;
1,4049189215932E-5;
-4,51119163432603E-6;
-3,26396979226783E-5;
-5,46041115253395E-5;
-5,901378935677E-5;
-5,04759518845747E-5;
-4,59126090242282E-5;
-5,84361211319396E-5;
-8,29014428457634E-5;
-9,6441066815935E-5;
-7,50150836365625E-5;
-1,34349715791417E-5;
6,72615140900587E-5;
0,000131692331059576;
0,000152871773802947;
0,000128962773839934;
8,19826792511349E-5;
4,04220856592654E-5;
1,97085501325338E-5;
1,50509226019086E-5;
1,04836026112049E-5;
-5,03206628795915E-6;
-2,83251975488441E-5;
-4,65750987767236E-5;
-5,05207835723428E-5;
-4,3919983100578E-5;
-4,05168360266502E-5;
-5,09359751262887E-5;
-7,09928851167397E-5;
-8,21771605739919E-5;
-6,50742923059648E-5;
-1,55296055508711E-5;
4,94594481864857E-5;
0,000101383966375743;
0,000118551766268144;
9,95189220059676E-5;
6,19800543812563E-5;
2,87754425673388E-5;
1,22421013880841E-5;
8,53518477621706E-6;
4,90509983120234E-6;
-7,4390578625853E-6;
-2,59595963916917E-5;
-4,04595104939788E-5;
-4,35956096301236E-5;
-3,83612043818795E-5;
-3,56421706271502E-5;
-4,38273801430112E-5;
-5,95972124541731E-5;
-6,83569165795503E-5;
-5,48457294442629E-5;
-1,58356839730637E-5;
3,53029186090149E-5;
7,62269842902043E-5;
8,99900616000519E-5;
7,54993474872454E-5;
4,65758927309836E-5;
2,10000807022868E-5;
8,34324397145056E-6;
5,60809292617781E-6;
2,92167528065809E-6;
-6,49769789715702E-6;
-2,06785021228068E-5;
-3,17671223415312E-5;
-3,41318158856897E-5;
-3,00825200941799E-5;
-2,79545009864062E-5;
-3,41428809444344E-5;
-4,60991921959052E-5;
-5,27171601208347E-5;
-4,24340731877652E-5;
-1,28449246093115E-5;
2,59095164540951E-5;
5,69714990915459E-5;
6,7614049776295E-5;
5,70561974442284E-5;
3,56782433723607E-5;
1,67686648674048E-5;
7,44543294465815E-6;
5,46418215259122E-6;
3,5031992209198E-6;
-3,43842505523183E-6;
-1,3890787827617E-5;
-2,20749795806463E-5;
-2,38731739599597E-5;
-2,0989679914193E-5;
-1,95035807823308E-5;
-2,40476616964431E-5;
-3,27550143784942E-5;
-3,7599964374905E-5;
-3,02832201202195E-5;
-9,12438264839754E-6;
1,85853736473284E-5;
4,08244461362618E-5;
4,85836670391313E-5;
4,13563884740984E-5;
2,64940508656728E-5;
1,33333250219846E-5;
6,83528991547536E-6;
5,41789763116674E-6;
4,0009124090954E-6;
-8,53192325249436E-7;
-8,11526760281217E-6;
-1,38266619989676E-5;
-1,51967261950972E-5;
-1,33984963453376E-5;
-1,25344527307775E-5;
-1,56946750573421E-5;
-2,16093917339577E-5;
-2,49480268174755E-5;
-2,02642468098138E-5;
-6,51005318355414E-6;
1,15131820749748E-5;
2,60061975137528E-5;
3,12036092233889E-5;
2,68374932677028E-5;
1,76187534660882E-5;
9,44116363915206E-6;
5,38786741275086E-6;
4,45329574218125E-6;
3,50660619877581E-6;
4,68751882766723E-7;
-4,01483398216869E-6;
-7,56672020256385E-6;
-8,54822894203905E-6;
-7,67134200687231E-6;
-7,32478758483279E-6;
-9,26230019316783E-6;
-1,27321128923506E-5;
-1,47372562350412E-5;
-1,22997355071477E-5;
-4,91786308986098E-6;
4,75941140584896E-6;
1,25801812602416E-5;
1,55791237616272E-5;
1,36938247121092E-5;
9,35792701652336E-6;
5,49809333781904E-6;
3,58014629858996E-6;
3,0947446473349E-6;
2,58772240563259E-6;
1,14735478348594E-6;
-9,11302087323776E-7;
-2,56904179268635E-6;
-3,17580907962172E-6;
-3,04794124253915E-6;
-3,10518395002859E-6;
-3,95690183821418E-6;
-5,29549308565099E-6;
-6,12117213931359E-6;
-5,56656010900119E-6;
-3,59626890114767E-6;
-1,02032192093393E-6;
1,12278565807707E-6;
2,25602359585269E-6;
2,49189213435433E-6;
2,32398767784111E-6;
2,15319138033563E-6;
2,06966287505801E-6;
1,98604203497297E-6;
1,87241662400229E-6;
1,80761555311579E-6;
1,82588152372322E-6;
1,79463587618793E-6;
1,52646101634181E-6;
1,04029814797676E-6;
6,59365823095322E-7;
7,41536653653707E-7;
1,21860759926528E-6;
1,40380089903005E-6;
3,83931835851258E-7;
-2,19810740075366E-6;
-5,60234719322108E-6;
-8,24577590430645E-6;
-8,69624802930118E-6;
-6,6943674843896E-6;
-3,37614542766064E-6;
-4,60432654084401E-7;
9,8953442842686E-7;
1,24018090119919E-6;
1,45400116087782E-6;
2,53814537221617E-6;
4,29164448746837E-6;
5,61965240419492E-6;
5,63596943506886E-6;
4,63946197035948E-6;
3,98916832783517E-6;
4,84797386555201E-6;
6,83454346180867E-6;
7,85996988795434E-6;
5,53257476292203E-6;
-8,29783784657031E-7;
-9,2014151476405E-6;
-1,5827482046824E-5;
-1,76130895524395E-5;
-1,41775350371433E-5;
-8,00300697422892E-6;
-2,55752967899316E-6;
1,44989094955425E-7;
6,62548304457096E-7;
1,13871184609562E-6;
3,16113525753385E-6;
6,33519539589755E-6;
8,77631990272665E-6;
9,02570163800741E-6;
7,61173526505955E-6;
6,74086700284775E-6;
8,23350364547724E-6;
1,14521446957578E-5;
1,31641035421806E-5;
9,77343340248511E-6;
3,34128639163849E-7;
-1,20822410359438E-5;
-2,19568886520959E-5;
-2,4846270555053E-5;
-2,02716264531478E-5;
-1,18046513036357E-5;
-4,32709179063512E-6;
-6,20098088617555E-7;
1,09589712220199E-7;
7,95479442096065E-7;
3,57211830464069E-6;
7,88877514900248E-6;
1,12269789616853E-5;
1,16692014127902E-5;
9,92783829846756E-6;
8,88674032037284E-6;
1,08908239903271E-5;
1,50977804477618E-5;
1,73639332493545E-5;
1,31360455137294E-5;
1,25929677898688E-6;
-1,43647506343025E-5;
-2,68203380381925E-5;
-3,05977734645782E-5;
-2,51411870278626E-5;
-1,48812305545367E-5;
-5,81214193385861E-6;
-1,31765155574997E-6;
-4,19778107661661E-7;
4,33512743812904E-7;
3,80389427245718E-6;
9,01819271642261E-6;
1,30636450337806E-5;
1,36659878135807E-5;
1,16808542524491E-5;
1,0517391004462E-5;
1,29260838718879E-5;
1,79057426270735E-5;
2,06097577895554E-5;
1,57482474495875E-5;
2,00673355034678E-6;
-1,60759087666136E-5;
-3,05143518732408E-5;
-3,49847129916222E-5;
-2,88727420712097E-5;
-1,726267058888E-5;
-6,99298423548615E-6;
-1,90342171031626E-6;
-8,76205777022127E-7;
1,06802641749978E-7;
3,92795575055738E-6;
9,82159541173291E-6;
1,44046980479924E-5;
1,51368193554716E-5;
1,29806666436311E-5;
1,17357672792914E-5;
1,44527296276549E-5;
2,00122232660504E-5;
2,3049058873626E-5;
1,77321242518588E-5;
2,63082600837039E-6;
-1,72490997665149E-5;
-3,31422946217075E-5;
-3,81334358923001E-5;
-3,15664991000511E-5;
-1,899798064073E-5;
-7,87386293274776E-6;
-2,36056659648913E-6;
-1,24010842943116E-6;
-1,62554532342553E-7;
3,98138481743793E-6;
1,03599761822455E-5;
1,53291173275442E-5;
1,61618683261484E-5;
1,38962268284485E-5;
1,26035193696585E-5;
1,55418485558776E-5;
2,150954112816E-5;
2,47846708323668E-5;
1,91663695436587E-5;
3,14614417129397E-6;
-1,79527865407909E-5;
-3,48387028348196E-5;
-4,01999327691417E-5;
-3,3353279464991E-5;
-2,01689758246725E-5;
-8,4935433668145E-6;
-2,70706209674039E-6;
-1,52589944610511E-6;
-3,85537495286794E-7;
3,96849013170012E-6;
1,06614084584665E-5;
1,58832224434397E-5;
1,6789931930443E-5;
1,44671438739474E-5;
1,31547921695922E-5;
1,62379126553354E-5;
2,24636189661343E-5;
2,58938971254282E-5;
2,01070801147458E-5;
3,54997776181378E-6;
-1,8266290536222E-5;
-3,57436115959895E-5;
-4,13430966828389E-5;
-3,43671076219423E-5;
-2,08624511490678E-5;
-8,89717439773921E-6;
-2,96728539921168E-6;
-1,75333560317445E-6;
-5,7743616612469E-7;
3,88949737820353E-6;
1,07495482214048E-5;
1,61089044720493E-5;
1,70663372038928E-5;
1,47312351120196E-5;
1,34233189384284E-5;
1,65852538666611E-5;
2,29397163659732E-5;
2,64534799865785E-5;
2,06120290108648E-5;
3,84601142148915E-6;
-1,82566837939545E-5;
-3,59801362044867E-5;
-4,17031961253712E-5;
-3,47247658031371E-5;
-2,11509379114743E-5;
-9,11825039146405E-6;
-3,15512445734248E-6;
-1,9317463453849E-6;
-7,43196768144573E-7;
3,75406758621043E-6;
1,06559541860682E-5;
1,60547598150459E-5;
1,704296857867E-5;
1,47334897643176E-5;
1,34503255814399E-5;
1,66348902242214E-5;
2,30081695357013E-5;
2,65443069459988E-5;
2,07444527564795E-5;
4,04730592529998E-6;
-1,79765458950077E-5;
-3,56529576314907E-5;
-4,14011398597485E-5;
-3,45258995018517E-5;
-2,10936597269685E-5;
-9,18037024707869E-6;
-3,27645781238748E-6;
-2,06315025922968E-6;
-8,81149817454645E-7;
3,5769668402554E-6;
1,04152081728418E-5;
1,5770715561164E-5;
1,67724569147626E-5;
1,45198723762574E-5;
1,32779811599681E-5;
1,64376609134115E-5;
2,2737238480053E-5;
2,62440059069296E-5;
2,0565470573627E-5;
4,16863241320292E-6;
-1,74716605288273E-5;
-3,48560326670334E-5;
-4,05462025337495E-5;
-3,3860753657166E-5;
-2,07442658769502E-5;
-9,10494565343244E-6;
-3,33679567708847E-6;
-2,14980175433853E-6;
-9,9043024435568E-7;
3,37079477908007E-6;
1,00578018012849E-5;
1,53011011316763E-5;
1,63014447199845E-5;
1,41308115889261E-5;
1,29431343340199E-5;
1,60381950186398E-5;
2,21873265143461E-5;
2,56214462229426E-5;
2,01288631507693E-5;
4,22151521458892E-6;
-1,67856984777664E-5;
-3,36769858638349E-5;
-3,9240110981299E-5;
-3,28139369076494E-5;
-2,01542584522932E-5;
-8,91428580727816E-6;
-3,34405009956231E-6;
-2,19666926568014E-6;
-1,07316464736654E-6;
3,14409313403383E-6;
9,60853751674205E-6;
1,46833252992435E-5;
1,56695317548731E-5;
1,36003853956702E-5;
1,2476724976737E-5;
1,54745812822456E-5;
2,14109032502953E-5;
2,47368755039098E-5;
1,94813850216138E-5;
4,2146767583014E-6;
-1,59596752318352E-5;
-3,21964600721347E-5;
-3,75762349142478E-5;
-3,14634063330147E-5;
-1,93717591591995E-5;
-8,63017825479934E-6;
-3,30696950594266E-6;
-2,20974604990592E-6;
-1,13268017546109E-6;
2,90324040509049E-6;
9,08853744844275E-6;
1,39499763679156E-5;
1,49114195990636E-5;
1,29584844245854E-5;
1,19059722006862E-5;
1,47805867186658E-5;
2,04547646778494E-5;
2,36442059213154E-5;
1,86649985605133E-5;
4,15613318563823E-6;
-1,50300317106741E-5;
-3,04863473355891E-5;
-3,56378820042753E-5;
-2,98787332302448E-5;
-1,84397059450746E-5;
-8,27202722918132E-6;
-3,23327650134055E-6;
-2,19424947742485E-6;
-1,17176193556077E-6;
2,65416283017767E-6;
8,51692958523203E-6;
1,31304671771441E-5;
1,40584855445789E-5;
1,22322871828068E-5;
1,12557440672695E-5;
1,39869654741022E-5;
1,93613141295297E-5;
2,23922357154732E-5;
1,7717955948147E-5;
4,054034933387E-6;
-1,40280801479259E-5;
-2,86094640128979E-5;
-3,34980901719342E-5;
-2,81208944510168E-5;
-1,73955720897212E-5;
-7,85653113460838E-6;
-3,12936246770102E-6;
-2,15436505263505E-6;
-1,19245423940323E-6;
2,40251200180326E-6;
7,9110334985462E-6;
1,22512228763916E-5;
1,31389148996019E-5;
1,14462925714032E-5;
1,05485248144015E-5;
1,31214072543258E-5;
1,81685255472935E-5;
2,10245936426274E-5;
1,66746221049639E-5;
3,91627252724232E-6;
-1,29806693337966E-5;
-2,66204414212918E-5;
-3,12205950917521E-5;
-2,62431643192471E-5;
-1,62721107196462E-5;
-7,39828915038285E-6;
-3,0008364896167E-6;
-2,09379852071711E-6;
-1,19660530034947E-6;
2,15316196307021E-6;
7,2859350709141E-6;
1,13353006467764E-5;
1,21773219121613E-5;
1,06219260119282E-5;
9,80399868789067E-6;
1,22081597194744E-5;
1,69096461471319E-5;
1,95794946176731E-5;
1,55651768919817E-5;
3,74997106825924E-6;
-1,19109507487963E-5;
-2,45666820013693E-5;
-2,88608278637062E-5;
-2,42919905755118E-5;
-1,50980313998046E-5;
-6,9103087946928E-6;
-2,85292819230717E-6;
-2,01613640095891E-6;
-1,18619691199225E-6;
1,90996342800028E-6;
6,65434368452082E-6;
1,04023415322734E-5;
1,11947377877191E-5;
9,77749678483462E-6;
9,03901037130768E-6;
1,12680470979252E-5;
1,56133101289711E-5;
1,80899112839413E-5;
1,44157112278937E-5;
3,56138391482922E-6;
-1,08387575505412E-5;
-2,24889496291014E-5;
-2,64665377910843E-5;
-2,23074925293245E-5;
-1,38982927477699E-5;
-6,4041002143843E-6;
-2,69048402382246E-6;
-1,92481619897189E-6;
-1,16327556788614E-6;
1,67588186934777E-6;
6,02683107079261E-6;
9,46888576882423E-6;
1,02089407759547E-5;
8,92851282722295E-6;
8,26786536506907E-6;
1,03188166018811E-5;
1,43039749286716E-5;
1,65840530090419E-5;
1,32486318287808E-5;
3,35606717406185E-6;
-9,78072760040525E-6;
-2,04217210586099E-5;
-2,40782310468729E-5;
-2,03237912667053E-5;
-1,26942132540177E-5;
-5,88962578236084E-6;
-2,5178362218409E-6;
-1,82296862028518E-6;
-1,12978760891211E-6;
1,45322021443195E-6;
5,41215459571024E-6;
8,54877423789762E-6;
9,23485991058698E-6;
8,088030369069E-6;
7,50265048150862E-6;
9,37549278422669E-6;
1,30023557043926E-5;
1,50858430562193E-5;
1,20830373246353E-5;
3,13900792308967E-6;
-8,75049691384213E-6;
-1,83936381256822E-5;
-2,17296736036916E-5;
-1,83694001965113E-5;
-1,15036863569281E-5;
-5,37533298139102E-6;
-2,33874864622667E-6;
-1,71336179723781E-6;
-1,08751087626043E-6;
1,24375372528416E-6;
4,81748032224102E-6;
7,65341878122161E-6;
8,28485349520667E-6;
7,26690253355304E-6;
6,7534477989162E-6;
8,45062899775599E-6;
1,17257603588997E-5;
1,3615289153434E-5;
1,0934994261069E-5;
2,91465432658873E-6;
-7,75897811892783E-6;
-1,64280301959623E-5;
-1,94485062029176E-5;
-1,64677384421613E-5;
-1,03414850556258E-5;
-4,86829604639302E-6;
-2,15647695729631E-6;
-1,59843670229584E-6;
-1,03807318743438E-6;
1,04876281259118E-6;
4,24850289540031E-6;
6,79201173051257E-6;
7,36892517210822E-6;
6,4739467490864E-6;
6,02849192776157E-6;
7,55449907482621E-6;
1,04883508603045E-5;
1,21887878557736E-5;
9,81776209483877E-6;
2,6869041777197E-6;
-6,81469111593248E-6;
-1,45434834640823E-5;
-1,72568741318207E-5;
-1,46376560420388E-5;
-9,21959130789029E-6;
-4,37436574089439E-6;
-1,97383305086084E-6;
-1,48035802428636E-6;
-9,82986401352618E-7;
8,69063731309277E-7;
3,70957914021933E-6;
5,97172767762655E-6;
6,49493198523891E-6;
5,71612072874746E-6;
5,33431429744402E-6;
6,69529012820073E-6;
9,30143736034836E-6;
1,08194620146182E-5;
8,74203839170579E-6;
2,45911379474726E-6;
-5,92404558631073E-6;
-1,27543639933768E-5;
-1,51720254876051E-5;
-1,2893920677033E-5;
-8,1474934965418E-6;
-3,89829948040104E-6;
-1,79322805738624E-6;
-1,36103739925301E-6;
-9,23647325516735E-7;
7,05074269597489E-7;
3,20387672938063E-6;
5,19793961996525E-6;
5,66881978321884E-6;
4,99872453074588E-6;
4,67593388468454E-6;
5,87932419042522E-6;
8,17376714593224E-6;
9,51749836456744E-6;
7,71621616185738E-6;
2,23413885496687E-6;
-5,09158875670932E-6;
-1,10712906768876E-5;
-1,3206845739499E-5;
-1,12476565852871E-5;
-7,13243805915266E-6;
-3,44385443909332E-6;
-1,61668754536792E-6;
-1,24213183910955E-6;
-8,61333517947049E-7;
5,56870631880508E-7;
2,73353347553093E-6;
4,47444692418504E-6;
4,89485349353348E-6;
4,32560386991459E-6;
4,05703605266512E-6;
5,1112808945394E-6;
7,1118345460751E-6;
8,29048955438953E-6;
6,74665212488011E-6;
2,01438541138152E-6;
-4,32023797561086E-6;
-9,50158463243005E-6;
-1,1370377739609E-5;
-9,70677541976022E-6;
-6,17968986830002E-6;
-3,01389492707707E-6;
-1,44588574310554E-6;
-1,12505945943518E-6;
-7,97186353051777E-7;
4,24263681201153E-7;
2,29980097157973E-6;
3,80368267177913E-6;
4,17584269443434E-6;
3,69933503145234E-6;
3,48013529189518E-6;
4,39439794379327E-6;
6,1201484844761E-6;
7,14374101226578E-6;
5,83790177590483E-6;
1,80184404861565E-6;
-3,61150506280359E-6;
-8,04970219697461E-6;
-9,66831557969226E-6;
-8,27637558485517E-6;
-5,2927677985112E-6;
-2,61048694397756E-6;
-1,28216411365022E-6;
-1,01100494052962E-6;
-7,32219700848818E-7;
3,06834882236686E-7;
1,90317264537262E-6;
3,18690671470705E-6;
3,5133337023543E-6;
3,12139448773131E-6;
2,94673936334339E-6;
3,73066114267045E-6;
5,20149429829256E-6;
6,08057377479697E-6;
4,99294120281212E-6;
1,59812416516456E-6;
-2,96570317847017E-6;
-6,71763822993588E-6;
-8,10346663834154E-6;
-6,95913086039056E-6;
-4,47368560782309E-6;
-2,2350009378025E-6;
-1,12657293534911E-6;
-9,00951740760925E-7;
-6,67323977450076E-7;
2,03991272691589E-7;
1,54350187674968E-6;
2,62437052662869E-6;
2,9077873915506E-6;
2,59231329143633E-6;
2,45748234991231E-6;
3,12097091608803E-6;
4,35716074694743E-6;
5,10258409652672E-6;
4,21338101769589E-6;
1,40449128835871E-6;
-2,38214765478338E-6;
-5,50530331265396E-6;
-6,6761889906847E-6;
-5,75565619754955E-6;
-3,72316390538063E-6;
-1,88820222099702E-6;
-9,79903979231426E-7;
-7,95690163310494E-7;
-6,03271343067276E-7;
1,14993730394269E-7;
1,2201027604058E-6;
2,11548104647252E-6;
2,35876025687092E-6;
2,11182523698149E-6;
2,01225490337405E-6;
2,56530928110198E-6;
3,58717316688366E-6;
4,20990776448436E-6;
3,49966039062593E-6;
1,22189481193027E-6;
-1,8593308361597E-6;
-4,41086782475315E-6;
-5,38478194997269E-6;
-4,66481350620822E-6;
-3,04082756159773E-6;
-1,57034140150159E-6;
-8,42710478607579E-7;
-6,95841054416927E-7;
-5,40726179575832E-7;
3,89999902309267E-8;
9,31860163577364E-7;
1,65895060093501E-6;
1,86504484908049E-6;
1,67899728998059E-6;
1,61033089482759E-6;
2,06288551900489E-6;
2,89049200565094E-6;
3,40144500758902E-6;
2,85122185637743E-6;
1,05100751836879E-6;
-1,39507839838332E-6;
-3,43107342637505E-6;
-4,22584958341541E-6;
-3,68403565798875E-6;
-2,42539473962379E-6;
-1,28122893808382E-6;
-7,15346506020201E-7;
-6,01868276112044E-7;
-4,80242002913923E-7;
-2,49091776460897E-8;
6,77303141481681E-7;
1,25292735746078E-6;
1,42482720094728E-6;
1,29235612446491E-6;
1,25047757090653E-6;
1,6122780432151E-6;
2,2652014878995E-6;
2,67508189166011E-6;
2,26669108948696E-6;
8,9225597400478E-7;
-9,8669463968383E-7;
-2,56150855327909E-6;
-3,19461956807738E-6;
-2,80957846919801E-6;
-1,87483234196643E-6;
-1,0203034674104E-6;
-5,97980615927702E-7;
-5,14096831969363E-7;
-4,22278093855609E-7;
-7,76956482831504E-8;
4,54704970105939E-7;
8,95116789279063E-7;
1,03580171315652E-6;
9,49998256705726E-7;
9,31055421433477E-7;
1,2115487786457E-6;
1,70867763081072E-6;
2,02788605421021E-6;
1,74401658191773E-6;
7,45850642900501E-7;
-6,31084573195015E-7;
-1,79687245559924E-6;
-2,28524749526231E-6;
-2,03677436023683E-6;
-1,3865113173907E-6;
-7,867074297612E-7;
-4,90630505613513E-7;
-4,32723660357971E-7;
-3,6719617984727E-7;
-1,20342659240021E-7;
2,62136960814848E-7;
5,82889450676442E-7;
6,95293885506408E-7;
6,4968326073237E-7;
6,5010595972125E-7;
