-5,55902293309058E-9;
-1,58189367146184E-8;
-2,02185174164959E-8;
-1,80779273152928E-8;
-1,22737702532385E-8;
-6,86268822770752E-9;
-4,19858210111807E-9;
-3,73137330237222E-9;
-3,18687559871039E-9;
-8,96089780910985E-10;
2,74072190409284E-9;
5,82280486274467E-9;
6,88991405318293E-9;
6,39788668585743E-9;
6,37823238941636E-9;
8,50540481512237E-9;
1,22402529149981E-8;
1,47619949407417E-8;
1,29198109018875E-8;
5,75776972456816E-9;
-4,38575911150861E-9;
-1,31660279161056E-8;
-1,70087175526784E-8;
-1,53108045242357E-8;
-1,04892219836805E-8;
-5,97082670303528E-9;
-3,75063541288532E-9;
-3,37254860119892E-9;
-2,91997080526956E-9;
-9,8561227296389E-10;
2,09813451528625E-9;
4,73263342494368E-9;
5,67737773066955E-9;
5,31155142851621E-9;
5,34544656764726E-9;
7,18769929268671E-9;
1,03923613193663E-8;
1,25886416938685E-8;
1,11177211640927E-8;
5,16135524872909E-9;
-3,3390565781444E-9;
-1,07535969245197E-8;
-1,40749385687815E-8;
-1,27732919112072E-8;
-8,84473698499744E-9;
-5,13699150200883E-9;
-3,32012950775213E-9;
-3,02269949880781E-9;
-2,65592123779184E-9;
-1,04758316254847E-9;
1,53110587816065E-9;
3,74965876802772E-9;
4,57928639024882E-9;
4,32683120445807E-9;
4,40314354229307E-9;
5,98086888274516E-9;
8,69364926211702E-9;
1,05844978621699E-8;
9,44912663243702E-9;
4,58853673074627E-9;
-2,41520925536266E-9;
-8,57787690199969E-9;
-1,14145019929045E-8;
-1,04637204000181E-8;
-7,33891234249647E-9;
-4,36461853113395E-9;
-2,9110494492533E-9;
-2,68496976689799E-9;
-2,39446921204945E-9;
-1,08245374506311E-9;
1,03361087015388E-9;
2,87372632887152E-9;
3,59414784034973E-9;
3,43897875822774E-9;
3,55065376952038E-9;
4,88211234197152E-9;
7,14553954495849E-9;
8,75410771243211E-9;
7,91430200236817E-9;
4,04197450388389E-9;
-1,60693355019021E-9;
-6,63291531076775E-9;
-9,02260476501079E-9;
-8,37751828481848E-9;
-5,97056487941378E-9;
-3,65360142831407E-9;
-2,52611774208027E-9;
-2,36432425594728E-9;
-2,1415477283315E-9;
-1,09613868122372E-9;
6,02344312047793E-10;
2,09853526527609E-9;
2,71787852177346E-9;
2,64609854349564E-9;
2,78556375095762E-9;
3,89285966926033E-9;
5,74542219178238E-9;
7,09364504430007E-9;
6,51405687999511E-9;
3,52460748197349E-9;
-9,08679397854914E-10;
-4,90882637528452E-9;
-6,88793637431254E-9;
-6,50953349027295E-9;
-4,73923081194232E-9;
-3,0058324632593E-9;
-2,16709024756361E-9;
-2,06021929603379E-9;
-1,89797966111341E-9;
-1,09197458876598E-9;
2,32777884654782E-10;
1,41922118391967E-9;
1,94415850000621E-9;
1,94353294009019E-9;
2,1032258227751E-9;
3,00625998539978E-9;
4,4895904798774E-9;
5,60091829495817E-9;
5,24744960094076E-9;
3,04066912217239E-9;
-3,10975926689068E-10;
-3,39576857570645E-9;
-5,00252947181299E-9;
-4,85159441249931E-9;
-3,63849126698642E-9;
-2,4178117183369E-9;
-1,83270532259771E-9;
-1,77307953202968E-9;
-1,66517059929564E-9;
-1,07167299076461E-9;
-7,87147443213285E-11;
8,3153916928539E-10;
1,26928711721428E-9;
1,32568722724215E-9;
1,50188880805488E-9;
2,22189559102827E-9;
3,37194213223315E-9;
4,26939013945186E-9;
4,10999430284196E-9;
2,5893256885626E-9;
1,93322404509596E-10;
-2,08039250713805E-9;
-3,35253245566852E-9;
-3,39283204430008E-9;
-2,66382794389116E-9;
-1,89016361606432E-9;
-1,52617331134734E-9;
-1,50875573574359E-9;
-1,44619796121098E-9;
-1,03741946390502E-9;
-3,37866343021099E-10;
3,26459944012194E-10;
6,85476334279196E-10;
7,91766311478027E-10;
9,77042605995852E-10;
1,5315821101505E-9;
2,38804807785488E-9;
3,09177885159028E-9;
3,09750150563615E-9;
2,17339211542767E-9;
6,10265130974496E-10;
-9,49572097482912E-10;
-1,92250077427852E-9;
-2,1221405675778E-9;
-1,80770530306453E-9;
-1,42069474568167E-9;
-1,2473062902171E-9;
-1,26328592218489E-9;
-1,24045262947586E-9;
-9,93891587531385E-10;
-5,49047438127415E-10;
-1,00359725124531E-10;
1,86109853694483E-10;
3,31626637505789E-10;
5,22692962810509E-10;
9,30711225409293E-10;
1,52867916502675E-9;
2,06097995706439E-9;
2,20230698258695E-9;
1,79160879765544E-9;
9,50738380467103E-10;
1,00380307521204E-11;
-6,98275261335564E-10;
-1,02918971593458E-9;
-1,06488978962299E-9;
-1,00485388924626E-9;
-9,94279181125496E-10;
-1,03887985562001E-9;
-1,04959787792501E-9;
-9,41469312431994E-10;
-7,16762050642175E-10;
-4,54539225011781E-10;
-2,31110904631074E-10;
-5,65855682692677E-11;
1,33990730078358E-10;
4,14299186993638E-10;
7,86538706428915E-10;
1,16552980973074E-9;
1,42008521205287E-9;
1,44473074523407E-9;
1,21893787831796E-9;
8,11025771065611E-10;
3,36441995188529E-10;
-9,75204020271711E-11;
-4,27873442749362E-10;
-6,42420174171039E-10;
-7,65554964006206E-10;
-8,33551141972521E-10;
-8,72019869078382E-10;
-8,82686974377702E-10;
-8,46723010002961E-10;
-7,44784878099248E-10;
-5,79743429079554E-10;
-3,81706480685264E-10;
-1,9173399449297E-10;
-2,53657891874637E-11;
1,51849554628598E-10;
3,98179523085561E-10;
7,42807660705421E-10;
1,13199126203159E-9;
1,42525604996723E-9;
1,46963250160768E-9;
1,19746613156542E-9;
6,83572574191765E-10;
1,12500688876383E-10;
-3,28965967510972E-10;
-5,63332996651387E-10;
-6,50281800058362E-10;
-7,10622301299628E-10;
-8,19086234520418E-10;
-9,41552524186098E-10;
-9,75919179204284E-10;
-8,61607208048101E-10;
-6,48160356297749E-10;
-4,62297533746709E-10;
-3,91446405346913E-10;
-3,80609293723932E-10;
-2,49718543528193E-10;
1,64447960069604E-10;
8,50878438138325E-10;
1,57499312010288E-9;
1,99941001321656E-9;
1,90167094104754E-9;
1,32794279150339E-9;
5,64748158695644E-10;
-5,93587547794118E-11;
-3,84167762196097E-10;
-4,85801363013165E-10;
-5,64499330274319E-10;
-7,53952726783496E-10;
-1,00677285585314E-9;
-1,1539690883758E-9;
-1,08464049024698E-9;
-8,62117196490172E-10;
-6,83000611218935E-10;
-6,9425405880099E-10;
-8,22038685949025E-10;
-7,91014709680468E-10;
-3,24038306975241E-10;
6,03525715256086E-10;
1,67653521847499E-9;
2,41172728049771E-9;
2,46115595241809E-9;
1,8485422492862E-9;
9,36929916623136E-10;
1,67086681197567E-10;
-2,28109433087094E-10;
-3,39626577784257E-10;
-4,33058248356617E-10;
-6,87443634767188E-10;
-1,04556663748282E-9;
-1,28622894966739E-9;
-1,25486251644213E-9;
-1,028258990644E-9;
-8,5817508277213E-10;
-9,37739370810174E-10;
-1,18176022139576E-9;
-1,23372882403383E-9;
-7,29904104544925E-10;
3,84617610926157E-10;
1,73644852992753E-9;
2,72144241999444E-9;
2,8949486991699E-9;
2,25751518407053E-9;
1,23269753856436E-9;
3,54598543014741E-10;
-9,29664547049897E-11;
-2,1112086147337E-10;
-3,15102552866609E-10;
-6,20382603943135E-10;
-1,06164310888584E-9;
-1,37735892418537E-9;
-1,37848350893759E-9;
-1,15129032670665E-9;
-9,91455431484579E-10;
-1,1280456176163E-9;
-1,46513358393673E-9;
-1,587150179309E-9;
-1,06037975934421E-9;
1,95272020743982E-10;
1,7592438879536E-9;
2,94077373683844E-9;
3,21686426220574E-9;
2,56716275116954E-9;
1,46406799390302E-9;
5,08259001084099E-10;
2,23889156171501E-11;
-9,96979536314012E-11;
-2,10844491755772E-10;
-5,54480126489694E-10;
-1,05896971114494E-9;
-1,43356938285364E-9;
-1,46263000798759E-9;
-1,23817092208193E-9;
-1,08922780934701E-9;
-1,27082784711975E-9;
-1,6813685134271E-9;
-1,86091025091142E-9;
-1,32271996104012E-9;
3,24651025691751E-11;
1,75299638346784E-9;
3,08037684475722E-9;
3,43687537255514E-9;
2,79021191447395E-9;
1,63737787321495E-9;
6,29404477039624E-10;
1,20176717096189E-10;
-4,70085630009339E-12;
-1,19727905941902E-10;
-4,90211324422448E-10;
-1,04134722858857E-9;
-1,45842218053836E-9;
-1,51096434182698E-9;
-1,29234660752035E-9;
-1,1545668582447E-9;
-1,37259771682124E-9;
-1,83852695981558E-9;
-2,06382694795863E-9;
-1,52377301015291E-9;
-1,05230491674734E-10;
1,71919492393797E-9;
3,15123765242922E-9;
3,57191694996504E-9;
2,9354416772523E-9;
1,75953742978463E-9;
7,22536411952731E-10;
1,99037393719133E-10;
7,67581845725285E-11;
-4,02313501856338E-11;
-4,29103163487771E-10;
-1,01050801986154E-9;
-1,45861705070409E-9;
-1,52930874131807E-9;
-1,31908002004262E-9;
-1,19343945093203E-9;
-1,43790746119582E-9;
-1,94503872065766E-9;
-2,20617488331078E-9;
-1,67197699974094E-9;
-2,20603808837253E-10;
1,66585138923943E-9;
3,16545651214647E-9;
3,63338258651756E-9;
3,01444756792528E-9;
1,83615385210325E-9;
7,91498457864271E-10;
2,6464469681502E-10;
1,44028444684419E-10;
2,73591108675929E-11;
-3,70850715128601E-10;
-9,69743933355371E-10;
-1,4354129434833E-9;
-1,52117364952808E-9;
-1,32188383305456E-9;
-1,20768178676344E-9;
-1,47254310073794E-9;
-2,00645393038559E-9;
-2,29219128793578E-9;
-1,77280289094469E-9;
-3,16471798275755E-10;
1,59587546149593E-9;
3,12980128849519E-9;
3,63154555873147E-9;
3,03827943202185E-9;
1,87358459932354E-9;
8,36989739051517E-10;
3,15996603859041E-10;
1,99092788803691E-10;
8,40407885738646E-11;
-3,15395948830955E-10;
-9,19544882837459E-10;
-1,39508545482257E-9;
-1,4929396922327E-9;
-1,30559601500547E-9;
-1,20249066961096E-9;
-1,47949239192308E-9;
-2,02859681736076E-9;
-2,33254379566159E-9;
-1,83268062003468E-9;
-3,92261826452722E-10;
1,51382458640762E-9;
3,0546963903428E-9;
3,57660060004459E-9;
3,01316671829813E-9;
1,87891609281622E-9;
8,64426503243456E-10;
3,54973641777835E-10;
2,42149802952179E-10;
1,30816893422054E-10;
-2,63577247891479E-10;
-8,65143861244808E-10;
-1,34168952504708E-9;
-1,44654446602987E-9;
-1,27201092897672E-9;
-1,18111118191986E-9;
-1,46516570275099E-9;
-2,01863878800598E-9;
-2,33286945909963E-9;
-1,856033513532E-9;
-4,50381518979006E-10;
1,42137277136737E-9;
2,94594807584701E-9;
3,4784427233336E-9;
2,94933837547058E-9;
1,85680770045591E-9;
8,74212081217645E-10;
3,82823236813131E-10;
2,76555940512588E-10;
1,68490075629809E-10;
-2,16209343117439E-10;
-8,04853791143148E-10;
-1,27619512097069E-9;
-1,38771111237943E-9;
-1,22574471697738E-9;
-1,14458575971328E-9;
-1,43114094785857E-9;
-1,9815274665859E-9;
-2,30011309215693E-9;
-1,85125716257457E-9;
-4,95003163622605E-10;
1,3234718888642E-9;
2,81280223581813E-9;
3,34661937378752E-9;
2,85266124051524E-9;
1,81052458430381E-9;
8,71742164268277E-10;
4,01637690938348E-10;
3,01136040782336E-10;
1,9896638352467E-10;
-1,72356606496144E-10;
-7,42801635059081E-10;
-1,20334266815806E-9;
-1,31697815920322E-9;
-1,16810153880927E-9;
-1,09970668810262E-9;
-1,38240287119336E-9;
-1,92086575217663E-9;
-2,2408485363013E-9;
-1,82040367302908E-9;
-5,24420790841668E-10;
1,22129335580804E-9;
2,65931684350992E-9;
3,18638539616046E-9;
2,73052785688045E-9;
1,74631675107729E-9;
8,56415230354315E-10;
4,12052264357053E-10;
3,183431316622E-10;
2,22732791620722E-10;
-1,32721902470076E-10;
-6,80984018026283E-10;
-1,12358331281357E-9;
-1,23930249177465E-9;
-1,10487037318936E-9;
-1,04433401361948E-9;
-1,32195417653459E-9;
-1,84408452387574E-9;
-2,15826636742506E-9;
-1,76845443465254E-9;
-5,42214802709529E-10;
1,11767035336432E-9;
2,49276855600435E-9;
3,00666836743204E-9;
2,5886300581254E-9;
1,6682287575348E-9;
8,31618507893007E-10;
4,1442582479518E-10;
3,28423569262111E-10;
2,38562201503135E-10;
-9,70481022502633E-11;
-6,17827688227792E-10;
-1,04150932733769E-9;
-1,1552992397988E-9;
-1,03456697533592E-9;
-9,84160598065849E-10;
-1,25162392502173E-9;
-1,75153216079158E-9;
-2,05783792583409E-9;
-1,70058871006231E-9;
-5,51071844596797E-10;
1,01251055593151E-9;
2,31543854795281E-9;
2,81373524134404E-9;
2,43315628396726E-9;
1,57776830516182E-9;
7,99113528974107E-10;
4,10010823204632E-10;
3,316398199313E-10;
2,48938555634676E-10;
-6,67474603859409E-11;
-5,55845032360162E-10;
-9,56514919843182E-10;
-1,06877594923302E-9;
-9,59973385929423E-10;
-9,17881498636369E-10;
-1,17460010839763E-9;
-1,65057117399462E-9;
-1,9459223441611E-9;
-1,61889581507641E-9;
-5,49987937422841E-10;
9,10966544845477E-10;
2,13383489477034E-9;
2,60851648555502E-9;
2,26659617599193E-9;
1,47939997104961E-9;
7,59803601261885E-10;
4,03030047879843E-10;
3,32003045852955E-10;
2,54337544194449E-10;
-3,84225888416112E-11;
-4,94339986561483E-10;
-8,7076394472192E-10;
-9,79615477976803E-10;
-8,83307071949957E-10;
-8,49061061917307E-10;
-1,09329919028474E-9;
-1,54139333826016E-9;
-1,82324881466405E-9;
-1,5290602067325E-9;
-5,4278555848693E-10;
8,12313688501112E-10;
1,95107223495763E-9;
2,40054664340991E-9;
2,09517476762172E-9;
1,37636511972596E-9;
7,16505225993486E-10;
3,89039088804557E-10;
3,25291386824168E-10;
2,56073439321329E-10;
-1,33267928620367E-11;
-4,36203922865145E-10;
-7,86237061367036E-10;
-8,90609617500105E-10;
-8,07452691683654E-10;
-7,80141203657188E-10;
-1,00903748352547E-9;
-1,42785895810206E-9;
-1,69451504019042E-9;
-1,4299639475355E-9;
-5,27994834494783E-10;
7,16856981212588E-10;
1,76952921634236E-9;
2,19162483432502E-9;
1,92024114522336E-9;
1,26946535063291E-9;
6,70894946820205E-10;
3,73172356560491E-10;
3,1634548533034E-10;
2,53929695744864E-10;
6,35899751043827E-12;
-3,81481178992397E-10;
-7,04829388610954E-10;
-8,03976462339738E-10;
-7,30709395499194E-10;
-7,11129230578274E-10;
-9,25622368940732E-10;
-1,31284194985377E-9;
-1,56231618122767E-9;
-1,3280458197515E-9;
-5,10094546291617E-10;
6,26120723068478E-10;
1,59007476082083E-9;
1,98345227258735E-9;
1,74759310448519E-9;
1,16248316858572E-9;
6,22828737535823E-10;
3,55681350707396E-10;
3,05081782553259E-10;
2,48426661596863E-10;
2,24509511249657E-11;
-3,31013538149603E-10;
-6,251717227093E-10;
-7,18880495198642E-10;
-6,57732024540993E-10;
-6,42811084222775E-10;
-8,4060972909793E-10;
-1,19695054348168E-9;
-1,42929952942642E-9;
-1,22221699723404E-9;
-4,84948512548206E-10;
5,41344749778502E-10;
1,41772607159131E-9;
1,78199054796141E-9;
1,57641623308985E-9;
1,05577064615533E-9;
5,73315039243002E-10;
3,34033160465771E-10;
2,90256681562844E-10;
2,40480158339919E-10;
3,8528060756752E-11;
-2,81117230620277E-10;
-5,5002082493877E-10;
-6,37563648361638E-10;
-5,86162875228951E-10;
-5,76050405139272E-10;
-7,58026964358631E-10;
-1,08326868276482E-9;
-1,2972942029584E-9;
-1,11780994540533E-9;
-4,59262715023309E-10;
4,62439127398445E-10;
1,25260541607448E-9;
1,58712672454133E-9;
1,41098863338292E-9;
9,5049591755789E-10;
5,23118593692836E-10;
3,11894321280628E-10;
2,74166127528311E-10;
2,30297427660409E-10;
4,89593473693158E-11;
-2,36805574774964E-10;
-4,78542272171359E-10;
-5,60196089709772E-10;
-5,16718571769601E-10;
-5,11607208357491E-10;
-6,77608407727162E-10;
-9,72045896594314E-10;
-1,16848769390515E-9;
-1,01320252862289E-9;
-4,3191280412825E-10;
3,88439881021923E-10;
1,09639155860747E-9;
1,40019236357263E-9;
1,25243750922284E-9;
8,5020098186043E-10;
4,74407388754406E-10;
2,89343799568235E-10;
2,56596542296272E-10;
2,18442017666823E-10;
5,91736507431359E-11;
-1,95044890990576E-10;
-4,11949229699E-10;
-4,86842355965444E-10;
-4,52077082732256E-10;
-4,50743534758734E-10;
-6,00819278512532E-10;
-8,65024277501381E-10;
-1,04354511963168E-9;
-9,12656591860906E-10;
-4,01977608617211E-10;
3,2207892810796E-10;
9,48929543149371E-10;
1,22402167180481E-9;
1,1010381477683E-9;
7,52234358133704E-10;
4,26197597965611E-10;
2,66415512973143E-10;
2,38774376519367E-10;
2,05224235671227E-10;
6,49166685115395E-11;
-1,59149513071634E-10;
-3,50962094772237E-10;
-4,19019685533117E-10;
-3,91053951803251E-10;
-3,92455006363342E-10;
-5,27390748187196E-10;
-7,62725076212728E-10;
-9,23724890675427E-10;
-8,14334234624268E-10;
-3,71152760905331E-10;
2,61608197912E-10;
8,12048664944557E-10;
1,05767384403672E-9;
9,58195266832537E-10;
6,6124128556E-10;
3,80619474533979E-10;
2,42392539504616E-10;
2,20227095759042E-10;
1,93078961249949E-10;
7,05304332050475E-11;
-1,25487199017817E-10;
-2,93697516933555E-10;
-3,55425442754562E-10;
-3,34208568210034E-10;
-3,38771276131585E-10;
-4,58341149633682E-10;
-6,66553820667241E-10;
-8,11224632347623E-10;
-7,20161558385237E-10;
-3,40502805105888E-10;
2,06088508265344E-10;
6,8565680963864E-10;
9,03433760222285E-10;
8,23660383904043E-10;
5,7328576712578E-10;
3,36239906516568E-10;
2,19776519447488E-10;
2,01473399564711E-10;
1,7810086701374E-10;
7,34914467786271E-11;
-9,47013396263933E-11;
-2,41114417724059E-10;
-2,97088031504812E-10;
-2,82342566114163E-10;
-2,88691714120355E-10;
-3,93818893598792E-10;
-5,75532674572237E-10;
-7,03023575012703E-10;
-6,30468463303019E-10;
-3,09523542621825E-10;
1,57581281266219E-10;
5,70654964364509E-10;
7,63000189157589E-10;
7,01078652174159E-10;
4,93009431048705E-10;
2,94304105927512E-10;
1,96106626162836E-10;
1,82611825721382E-10;
1,63813918003176E-10;
7,46202562216031E-11;
-6,84033896085397E-11;
-1,9437781860397E-10;
-2,44393589997384E-10;
-2,34177284042548E-10;
-2,42216972088174E-10;
-3,34527553641325E-10;
-4,9200544333853E-10;
-6,04219269486008E-10;
-5,46831516468271E-10;
-2,79011645614435E-10;
1,14033026037105E-10;
4,64891083427786E-10;
6,32426063449833E-10;
5,87547735858654E-10;
4,17691193720776E-10;
2,54711990367581E-10;
1,75072532675751E-10;
1,64208385431897E-10;
1,49622382466968E-10;
7,5025185579218E-11;
-4,52225720420627E-11;
-1,52144233506454E-10;
-1,96249920468341E-10;
-1,8907554292164E-10;
-1,9941475002989E-10;
-2,79858322469538E-10;
-4,1417309284207E-10;
-5,12228982823853E-10;
-4,68376186337235E-10;
-2,49266325216375E-10;
7,59224973999236E-11;
3,70478980048465E-10;
5,14842832179969E-10;
4,84155641212299E-10;
3,49961538008521E-10;
2,18041811395517E-10;
1,5396478446E-10;
1,46517998563734E-10;
1,35207419945755E-10;
7,50443234233879E-11;
-2,52355123098725E-11;
-1,15483586015202E-10;
-1,53411052088028E-10;
-1,50173888437072E-10;
-1,60598278452485E-10;
-2,29417006345767E-10;
-3,43386913080714E-10;
-4,28409487205896E-10;
-3,97529278217298E-10;
-2,20729092705903E-10;
4,38042373679766E-11;
2,85489630778581E-10;
4,08437472425629E-10;
3,89948498648406E-10;
2,86187238182847E-10;
1,834550385177E-10;
1,34980483198783E-10;
1,29543529003806E-10;
1,20494021423709E-10;
7,29093778693504E-11;
-7,74525002872285E-12;
-8,13428313233756E-11;
-1,14942294245827E-10;
-1,15647825735477E-10;
-1,26573687296277E-10;
-1,84596759418013E-10;
-2,78620935060861E-10;
-3,50619682072687E-10;
-3,31154476340534E-10;
-1,94710271004504E-10;
1,53108064922551E-11;
2,11290315531481E-10;
3,13475297993895E-10;
3,04923752942822E-10;
2,29964428603728E-10;
1,52925395150624E-10;
1,16989147419357E-10;
1,14600994845252E-10;
1,07668178531884E-10;
6,9731261316075E-11;
6,09640142532039E-12;
-5,25817781976776E-11;
-8,10998012020536E-11;
-8,43938755625559E-11;
-9,59657294367312E-11;
-1,44262796226344E-10;
-2,20726647109286E-10;
-2,8127109186369E-10;
-2,70970987152579E-10;
-1,68610191653372E-10;
-7,93667291325363E-12;
1,44387076523861E-10;
2,29587370304301E-10;
2,31221651489957E-10;
1,79002385480221E-10;
1,24688388008476E-10;
1,00078568349643E-10;
9,91008334277781E-11;
9,53749221087296E-11;
6,65958547072597E-11;
1,7761674896065E-11;
-2,71876560038364E-11;
-5,16873957331163E-11;
-5,77902802065583E-11;
-6,88102799310089E-11;
-1,07811901907561E-10;
-1,68811980079084E-10;
-2,1813052687119E-10;
-2,16312797419573E-10;
-1,45542162180234E-10;
-2,77726459830136E-11;
8,75115503169774E-11;
1,56378912851463E-10;
1,65428600634444E-10;
1,34384054643438E-10;
9,89493436301048E-11;
8,37424202987087E-11;
8,45027531886117E-11;
8,21055636510891E-11;
6,31085802008504E-11;
2,77701068415567E-11;
-6,82062093763451E-12;
-2,56736967549719E-11;
-3,31309495263777E-11;
-4,50486762300742E-11;
-7,58160575328632E-11;
-1,23432476014018E-10;
-1,63383042261222E-10;
-1,67794699121684E-10;
-1,24170907699644E-10;
-4,37482066283887E-11;
3,85541629327251E-11;
9,25182312388014E-11;
1,08434743870963E-10;
9,45249386980258E-11;
7,60508724506262E-11;
6,96138233519846E-11;
7,19024682740627E-11;
7,16139779021794E-11;
5,92242328840116E-11;
3,60556028736598E-11;
1,16226078393696E-11;
-5,01010314735435E-12;
-1,40383546407835E-11;
-2,48022349609358E-11;
-4,81256072124749E-11;
-8,33741922220974E-11;
-1,14865601835597E-10;
-1,24586852567633E-10;
-1,02298527958487E-10;
-5,55340730097865E-11;
-3,0018730879376E-12;
3,76342128166579E-11;
5,72230727279976E-11;
6,02011045212021E-11;
5,58983621713664E-11;
5,52008358086949E-11;
5,98574845619716E-11;
6,05109119546463E-11;
5,41446833590067E-11;
4,21694324181576E-11;
2,66020219142795E-11;
1,28304628721119E-11;
3,26561178490746E-12;
-7,48386247668648E-12;
-2,50295117264058E-11;
-4,85839151753047E-11;
-7,22463602570122E-11;
-8,5895245661049E-11;
-8,39573748114031E-11;
-6,6519837344374E-11;
-3,80865553788162E-11;
-9,20865743352653E-12;
1,45522112750541E-11;
2,99977185098397E-11;
3,83373754459723E-11;
4,46526858048504E-11;
4,80468473283486E-11;
5,05877672675385E-11;
5,09744942632534E-11;
4,57027376061436E-11;
3,83319364112522E-11;
2,87445005837855E-11;
1,73939751013326E-11;
7,52911907719026E-12;
-3,5207076679192E-12;
-1,84185075448245E-11;
-3,55774974445369E-11;
-5,3454861803332E-11;
-6,77693865861251E-11;
-7,31293885074973E-11;
-6,64932038682584E-11;
-4,67686342123932E-11;
-2,06276986858809E-11;
3,98842202298082E-12;
2,28737081845279E-11;
3,36056884796712E-11;
3,85325350939446E-11;
4,1756340748784E-11;
4,60826756638308E-11;
4,91877184186493E-11;
4,75012515602404E-11;
4,05302797065776E-11;
2,95669846365703E-11;
1,94733371875582E-11;
1,2752310991002E-11;
6,68223905453325E-12;
-4,04677409867894E-12;
-2,42606583412564E-11;
-5,24226007807525E-11;
-7,8643663810269E-11;
-8,93421845645361E-11;
-7,91033656654624E-11;
-5,1688291335499E-11;
-1,6922042114147E-11;
1,03091399020046E-11;
2,453492218838E-11;
2,94290742222015E-11;
3,35982020386134E-11;
4,28102604256618E-11;
5,0702675305169E-11;
5,46311496814057E-11;
5,07525871220059E-11;
3,84023380151504E-11;
2,96687624278451E-11;
2,72016276531977E-11;
2,74371927769822E-11;
2,22056712974694E-11;
-9,39541508294381E-13;
-3,98015503177701E-11;
-8,13826092200458E-11;
-1,07882398681329E-10;
-1,04557840317201E-10;
-7,46803784418017E-11;
-3,49489119050511E-11;
-1,60356399682973E-12;
1,6778047258204E-11;
2,1927955055363E-11;
2,61178765908997E-11;
3,79196724813763E-11;
5,16050627433985E-11;
5,86480892594675E-11;
5,64299732963959E-11;
4,72526603373952E-11;
3,84842793518638E-11;
3,87248489217985E-11;
4,60366446449329E-11;
4,49240433393319E-11;
2,01466075578366E-11;
-2,80163183599071E-11;
-8,28768807919323E-11;
-1,20678896469586E-10;
-1,236093028089E-10;
-9,35891522587158E-11;
-4,92784725931416E-11;
-1,15727997661696E-11;
8,97201705444504E-12;
1,60304172211987E-11;
2,00516225189533E-11;
3,22469694843161E-11;
5,11936654143802E-11;
6,35518626626558E-11;
6,33222208628382E-11;
5,25163843184745E-11;
4,35544974482889E-11;
4,81721168728876E-11;
5,97070364136081E-11;
6,18821271176635E-11;
3,7417506214136E-11;
-1,64729934721142E-11;
-8,18507289671285E-11;
-1,30010341935326E-10;
-1,38067755507462E-10;
-1,0828675597487E-10;
-6,05678786341175E-11;
-1,8874623440539E-11;
2,39574172665873E-12;
8,48698979131367E-12;
1,38096230095037E-11;
2,92590912706166E-11;
5,09675336363796E-11;
6,53442795872667E-11;
6,56105080181512E-11;
5,58858128647059E-11;
4,9267493247302E-11;
5,51822006467296E-11;
6,95192668957728E-11;
7,5617479226664E-11;
5,15561433839971E-11;
-7,83618915545739E-12;
-8,08945448195478E-11;
-1,35674276983805E-10;
-1,49326782552547E-10;
-1,19790464785634E-10;
-6,92851534595122E-11;
-2,60776744786967E-11;
-2,49159338720652E-12;
4,53982226926324E-12;
8,80948185591331E-12;
2,45737941819954E-11;
4,78818188966398E-11;
6,49319796377661E-11;
6,78432833207331E-11;
5,797146032958E-11;
5,13864000230022E-11;
6,03359396628433E-11;
7,83973181092788E-11;
8,67422888287952E-11;
6,17026503595423E-11;
-3,03548460709455E-13;
-7,74456105431344E-11;
-1,38975887776868E-10;
-1,56213868803011E-10;
-1,26362711499784E-10;
-7,50366012549132E-11;
-3,03224729430004E-11;
-7,04794565935863E-12;
-6,74654404540816E-13;
4,52431703582783E-12;
2,1580876655161E-11;
4,7446910058894E-11;
6,58703849656672E-11;
6,89029635744812E-11;
5,97349173431394E-11;
5,26871513834465E-11;
6,26912572221307E-11;
8,36076265678081E-11;
9,34689926353097E-11;
6,99352525304733E-11;
6,29759713336054E-12;
-7,54060449749067E-11;
-1,3840503158247E-10;
-1,57671091599078E-10;
-1,31016695560958E-10;
-7,96799523564629E-11;
-3,37866639529859E-11;
-1,05085839936938E-11;
-5,03637047491864E-12;
6,49244752546777E-13;
1,77906408759583E-11;
4,38914566714682E-11;
6,42396114577377E-11;
6,72466102325363E-11;
5,92591403831257E-11;
5,40034188470227E-11;
6,46551620765934E-11;
8,83665400827422E-11;
9,94355734891776E-11;
7,55788768050846E-11;
1,28156662835617E-11;
-7,07009349782761E-11;
-1,37228781270848E-10;
-1,58252368798754E-10;
-1,32731124640432E-10;
-8,17979443910101E-11;
-3,65449999147659E-11;
-1,36128183682994E-11;
-7,5484176844735E-12;
-2,47721282460636E-12;
1,49858122862566E-11;
4,12893743613572E-11;
6,14844669428483E-11;
6,60261047296571E-11;
5,89760426275218E-11;
5,46665887895812E-11;
6,57274789714277E-11;
8,90774265477311E-11;
1,01838328010373E-10;
7,95137922068332E-11;
1,61437147524491E-11;
-6,6764694198295E-11;
-1,3335554224514E-10;
-1,56748007787685E-10;
-1,31374002398133E-10;
-8,13573393156972E-11;
-3,84900177784776E-11;
-1,59831770665033E-11;
-1,07626142950257E-11;
-5,73182179854926E-12;
1,24835090878381E-11;
3,85667914039973E-11;
5,89005155546248E-11;
6,39840553913233E-11;
5,74794806422536E-11;
5,29821862591499E-11;
6,50797704650857E-11;
9,02173567014906E-11;
1,02837382414223E-10;
8,16482347257717E-11;
2,05501972364742E-11;
-6,23132387541568E-11;
-1,28720014203997E-10;
-1,52029656966736E-10;
-1,29665789169077E-10;
-8,16869000864141E-11;
-3,89625321375888E-11;
-1,73800904388102E-11;
-1,20013618288724E-11;
-7,46421606554954E-12;
9,50183686931165E-12;
3,59313363879254E-11;
5,67726606167072E-11;
6,19885438607342E-11;
5,49648187188726E-11;
5,13746993835925E-11;
6,38825305280358E-11;
8,81132478613802E-11;
1,02748872659128E-10;
8,23255381348412E-11;
2,22432037840065E-11;
-5,68505973475402E-11;
-1,22564766186775E-10;
-1,46636304282164E-10;
-1,2510669412734E-10;
-7,99956017761406E-11;
-3,89809105431359E-11;
-1,81080890561169E-11;
-1,43615166183309E-11;
-9,30234613619978E-12;
7,73651938303748E-12;
3,21747791854683E-11;
5,27817482105112E-11;
5,79739894878933E-11;
5,1605341027031E-11;
4,9059202631276E-11;
6,14310043512129E-11;
8,60511722125263E-11;
1,00231531826431E-10;
8,16038707038417E-11;
2,61372241181237E-11;
-5,11453433965644E-11;
-1,15905637882298E-10;
-1,38857129327198E-10;
-1,19865767368818E-10;
-7,79385760809468E-11;
-3,83208022961715E-11;
-1,98295098348911E-11;
-1,63894017576497E-11;
-1,0529373063434E-11;
5,84748671528847E-12;
2,98235141287579E-11;
4,89050807086444E-11;
5,45223220185787E-11;
4,94140244485231E-11;
4,67091585362935E-11;
5,9601540615329E-11;
8,34466029673517E-11;
9,74333493145136E-11;
7,99550726840958E-11;
2,61210238828614E-11;
-4,67457972225501E-11;
-1,07706302518788E-10;
-1,31807572866483E-10;
-1,1544761219869E-10;
-7,50231329738978E-11;
-3,78531208877954E-11;
-1,97132345560212E-11;
-1,53672297459434E-11;
-1,10080366586391E-11;
3,9268279946297E-12;
2,70448973438846E-11;
4,56338711553804E-11;
5,06829464891295E-11;
4,56666788109182E-11;
4,38590889000839E-11;
5,65126319350758E-11;
7,91070883181497E-11;
9,28466343918174E-11;
7,81301888425018E-11;
2,70962538105977E-11;
-4,30640460430167E-11;
-1,00566809742285E-10;
-1,23474498862377E-10;
-1,08141277048191E-10;
-7,12516822155755E-11;
-3,67830261209112E-11;
-1,95072156456704E-11;
-1,69610908050027E-11;
-1,30115838955189E-11;
1,81662799632708E-12;
2,369540925226E-11;
4,16360265616005E-11;
4,73917583828888E-11;
4,32529849834242E-11;
4,16704774696934E-11;
5,39522801503836E-11;
7,49394750972807E-11;
8,84873726366304E-11;
7,48389393183976E-11;
2,66470487739676E-11;
-3,79731082284034E-11;
-9,27720626455127E-11;
-1,15244090109725E-10;
-1,00044803407566E-10;
-6,58696158933622E-11;
-3,53790205807651E-11;
-1,97906198597782E-11;
-1,65099006547112E-11;
-1,32084875356786E-11;
5,97182595916919E-13;
2,14956914952866E-11;
3,78602649481418E-11;
4,36166985647727E-11;
4,02731511953081E-11;
3,81957665503452E-11;
4,93095627451366E-11;
7,03358967581796E-11;
8,32927267677787E-11;
7,0206606938619E-11;
2,69184784726654E-11;
-3,30564222680453E-11;
-8,50809801431569E-11;
-1,06101911181304E-10;
-9,27546241060319E-11;
-6,18628697477277E-11;
-3,34693088601612E-11;
-1,92825119517118E-11;
-1,65245560891313E-11;
-1,30758892041417E-11;
-6,58455633159295E-13;
1,86898587341813E-11;
3,45070669553043E-11;
3,90104806583968E-11;
3,57919606287586E-11;
3,47867868277603E-11;
4,55601498514249E-11;
6,55868708234153E-11;
7,77593414186044E-11;
6,69459804062758E-11;
2,74450345278311E-11;
-2,86745297272382E-11;
-7,67192254814668E-11;
-9,75625454646456E-11;
-8,56790553319306E-11;
-5,68660315927079E-11;
-3,14596471850223E-11;
-1,78866167760528E-11;
-1,55158511543769E-11;
-1,36946987505722E-11;
-2,18785811157428E-12;
1,63709940275665E-11;
3,09213244901178E-11;
3,55361341092286E-11;
3,38022397907691E-11;
3,33793503631192E-11;
4,22052845976871E-11;
5,99323432519373E-11;
7,15203757001768E-11;
6,11742728457068E-11;
2,54749782000792E-11;
-2,56121425533211E-11;
-6,95849965281026E-11;
-8,77475332911003E-11;
-7,79040488457755E-11;
-5,22400373515802E-11;
-2,91757710994921E-11;
-1,75656234486966E-11;
-1,51436509706663E-11;
-1,25931292545853E-11;
-1,94914857999973E-12;
1,32349756432298E-11;
2,61466776676687E-11;
3,1742253271681E-11;
3,00713882804779E-11;
2,93034625730724E-11;
3,8806779704677E-11;
5,62988794656625E-11;
6,64768132351726E-11;
5,70841602526789E-11;
2,44533449276159E-11;
-2,16475495966287E-11;
-6,09004312862982E-11;
-7,87999481062335E-11;
-7,12459342968383E-11;
-4,80125326658571E-11;
-2,68777015242909E-11;
-1,62721900920401E-11;
-1,38160440578966E-11;
-1,23582993796487E-11;
-3,72843839967628E-12;
1,13339340151813E-11;
2,40330203965753E-11;
2,83674035048984E-11;
2,60091452045765E-11;
2,65144454984899E-11;
3,5457598500592E-11;
4,97710099179511E-11;
6,0511388706595E-11;
5,3250468204427E-11;
2,38729843704664E-11;
-1,73577868345154E-11;
-5,38082602008022E-11;
-6,98184285822511E-11;
-6,31411090289508E-11;
-4,34035105870346E-11;
-2,43465589210614E-11;
-1,50564026328654E-11;
-1,33298226057611E-11;
-1,16043121799765E-11;
-3,96647950533864E-12;
9,5822253551656E-12;
2,08462678166763E-11;
2,42750379217973E-11;
2,35892075246055E-11;
2,33818614783044E-11;
3,10050531996864E-11;
4,58669474978274E-11;
5,45937143983258E-11;
4,84356092926143E-11;
2,25177459726395E-11;
-1,52951852004936E-11;
-4,68189920956919E-11;
-6,18809221739807E-11;
-5,6681123623565E-11;
-3,83754434094335E-11;
-2,13549364072449E-11;
-1,36777292348217E-11;
-1,28387984625769E-11;
-1,08788948716059E-11;
-3,94227486698346E-12;
7,46268198865137E-12;
1,76623762366929E-11;
2,12401748385552E-11;
2,0878554751395E-11;
2,09503597837811E-11;
2,72442047601111E-11;
4,07857115377141E-11;
4,91330288539062E-11;
4,29971409646113E-11;
2,13278483041221E-11;
-1,15981763803841E-11;
-4,06355689376289E-11;
-5,36725031233567E-11;
-4,93510158566949E-11;
-3,40928546529851E-11;
-1,98555830651708E-11;
-1,29108815715576E-11;
-1,15773800662501E-11;
-1,03006573051451E-11;
-4,71473205830226E-12;
5,49814501436153E-12;
1,54716952541586E-11;
1,86981966070481E-11;
1,72544328781796E-11;
1,78002365838702E-11;
2,40572325733372E-11;
3,49068133367926E-11;
4,37982994915339E-11;
4,0034410193259E-11;
1,94202924417493E-11;
-8,98410288585107E-12;
-3,43917158119134E-11;
-4,68880447140488E-11;
-4,23950515930109E-11;
-2,95840475751595E-11;
-1,76844613368353E-11;
-1,12940099663227E-11;
-1,06447697216688E-11;
-9,5110297922503E-12;
-4,00585407811211E-12;
4,29940503954636E-12;
1,25268591629316E-11;
1,59450281914806E-11;
1,50618512710654E-11;
1,61670457919381E-11;
2,16502663464251E-11;
3,10665600575537E-11;
3,887610165826E-11;
3,56528049886096E-11;
1,8586462053452E-11;
-6,869994941329E-12;
-2,94905320088352E-11;
-3,98261459672356E-11;
-3,69925301074633E-11;
-2,57631217132464E-11;
-1,49023371297433E-11;
-1,11220278921385E-11;
-1,06996885628904E-11;
-8,9212138991209E-12;
-4,41785215561817E-12;
3,32367607203253E-12;
9,88777710803755E-12;
1,34513588109241E-11;
1,38347792730864E-11;
1,30766379451879E-11;
1,85818843227821E-11;
2,79981724450349E-11;
3,36586489187359E-11;
3,10132859662108E-11;
1,67141896234652E-11;
-4,61030916630371E-12;
-2,39291710528341E-11;
-3,4025794615073E-11;
-3,17675369715323E-11;
-2,20745150070898E-11;
-1,33031431099549E-11;
-1,00511181316488E-11;
-1,00603093628454E-11;
-8,54411617396928E-12;
-4,15808582431496E-12;
1,76164104142495E-12;
7,40320917934888E-12;
1,0979094563256E-11;
1,11425374627723E-11;
1,15079557345694E-11;
1,58524594707713E-11;
2,31096169465712E-11;
2,92861754795229E-11;
2,67322809202596E-11;
1,46806083532746E-11;
-2,48757569067044E-12;
-1,92161213124678E-11;
-2,71242573651196E-11;
-2,63476883769133E-11;
-1,94956570672043E-11;
-1,16244985308007E-11;
-8,66138063127194E-12;
-7,91450323730898E-12;
-7,71848719151478E-12;
-4,71926055611086E-12;
1,82353855150675E-12;
6,74810947322842E-12;
8,3241810136912E-12;
7,68095906034265E-12;
8,58938838810878E-12;
1,29276185222575E-11;
1,96774521223277E-11;
2,49184876232475E-11;
2,36477823964542E-11;
1,40225479042696E-11;
-1,37725759110103E-12;
-1,50938146126626E-11;
-2,24127640475685E-11;
-2,21227817471378E-11;
-1,57280449165575E-11;
-9,87260983851793E-12;
-7,28698954821629E-12;
-6,84118785185846E-12;
-6,92340119258232E-12;
-3,84279911724959E-12;
5,00842337142791E-13;
4,53403026229922E-12;
7,83881689791516E-12;
7,71613076734201E-12;
7,9383095180421E-12;
1,11714778814875E-11;
1,69271586687489E-11;
2,1373081120069E-11;
1,93110330657863E-11;
1,17719041951728E-11;
3,01041910735847E-14;
-1,17508880811551E-11;
-1,78930474540263E-11;
-1,75913659984256E-11;
-1,32483070250851E-11;
-8,97806960361351E-12;
-7,4573929363103E-12;
-7,1500815968354E-12;
-5,98911939426576E-12;
-3,44839998297484E-12;
1,11111893352958E-12;
3,87226698699131E-12;
4,29838322753134E-12;
5,2001930765415E-12;
6,27077128833976E-12;
9,32192689445697E-12;
1,40184211037449E-11;
1,79733779348432E-11;
1,74360675193695E-11;
1,09365557952973E-11;
1,11760882850642E-12;
-9,01742409869655E-12;
-1,39035660202014E-11;
-1,34791502735983E-11;
-1,12672526579749E-11;
-7,39586522998095E-12;
-5,05683574326433E-12;
-5,81294607680382E-12;
-5,37455993090729E-12;
-3,37186113923802E-12;
-9,67256860473747E-13;
2,27909646174718E-12;
3,56656137393715E-12;
3,55669329815501E-12;
4,83480837142759E-12;
6,92943738307942E-12;
1,07244995698711E-11;
1,46669294456854E-11;
1,44474350696262E-11;
1,00394347995032E-11;
2,79498061192428E-12;
-5,92938931110946E-12;
-1,10014233052827E-11;
-1,09406277392048E-11;
-8,62945770584087E-12;
-6,11854812310667E-12;
-5,21385719583962E-12;
-5,02148308291415E-12;
-4,74813806947279E-12;
-4,24730734201836E-12;
-1,62851081727614E-12;
2,27067920864366E-12;
3,36935751990708E-12;
2,54887461770017E-12;
3,84136505026003E-12;
6,18928977104144E-12;
8,75369788320187E-12;
1,14954279465664E-11;
1,16602589535605E-11;
8,62457335309644E-12;
2,83023517378719E-12;
-3,60955892488781E-12;
-6,64794678387467E-12;
-7,33622048670331E-12;
-6,8735727790475E-12;
-5,29104362089448E-12;
-4,62312153757043E-12;
-4,22964865498475E-12;
-3,73172512784027E-12;
-3,52055334635544E-12;
-2,55340961860847E-12;
-3,31178951908568E-13;
1,23650664422888E-12;
1,05579629111621E-12;
2,13532799691741E-12;
3,98694291042088E-12;
5,88875655993423E-12;
8,70618773393747E-12;
8,84848532943996E-12;
6,31417841575217E-12;
2,8396331697451E-12;
-1,43997160873875E-12;
-4,7659093580339E-12;
-5,55687172869306E-12;
-4,03438526936386E-12;
-3,316974965287E-12;
-3,22259636901704E-12;
-3,00279596783385E-12;
-3,53972128137471E-12;
-2,58165043726521E-12;
-1,64487101185323E-12;
-1,2976608679834E-12;
2,192664607584E-13;
5,15400141888933E-13;
1,19762426490394E-12;
3,29324910856781E-12;
4,56758662268226E-12;
6,33768663791995E-12;
7,10916536975701E-12;
5,66646636852711E-12;
4,04690201824088E-12;
8,52714095812894E-13;
-2,51598908326971E-12;
-2,8994724586614E-12;
-2,71708709118561E-12;
-3,08605728939939E-12;
-2,58006546067841E-12;
-2,65331541739404E-12;
-3,5258806001875E-12;
-2,88549308788263E-12;
-1,7982798559286E-12;
-1,18673298199547E-12;
-1,03393629033688E-13;
3,07168272332195E-13;
5,21257855449307E-13;
1,59421236215435E-12;
2,47068589030153E-12;
4,16398493320088E-12;
5,88356769872051E-12;
4,9881254512462E-12;
3,83979145917847E-12;
2,74136458064108E-12;
7,15480530286465E-13;
-2,12328061118567E-13;
-1,00217106168568E-12;
-1,34902779877327E-12;
-1,43142553612899E-12;
-2,26050648048357E-12;
-2,17263083651431E-12;
-2,52208438439483E-12;
-1,83206410460692E-12;
-2,91616126236029E-13;
-1,10861436755898E-12;
-8,01541118201697E-13;
1,74617694465781E-13;
7,64010405684429E-13;
2,11622277864641E-12;
2,69470403820709E-12;
3,86874750380498E-12;
4,65703612515925E-12;
4,21398930746728E-12;
3,60244278514109E-12;
2,64209149879604E-12;
1,02652240505794E-12;
-1,09282723598545E-12;
-1,5650777661335E-12;
-1,70996431403137E-12;
-1,78038846950283E-12;
-1,5089728269423E-12;
-2,73209639128034E-12;
-2,39455282816244E-12;
-1,12627403753012E-12;
-1,74591288634147E-12;
-1,65803484929143E-12;
-1,80310606322194E-13;
1,58785108637961E-13;
-8,12921651796762E-14;
9,57663287892969E-13;
2,12742212718911E-12;
3,58440592320367E-12;
4,87513833215928E-12;
4,3261366925555E-12;
3,35533074598101E-12;
2,09124742939044E-12;
2,93919921084938E-13;
-6,69891752944383E-13;
-6,19896082729432E-13;
-1,17423522174256E-12;
-2,38010697189204E-12;
-2,03042365512776E-12;
-1,54922558373253E-12;
-1,95496946765311E-12;
-1,79895538648005E-12;
-1,21960017162013E-12;
-1,03737124599627E-12;
-9,6569213592586E-13;
-4,68780345678879E-13;
-1,32567605173639E-13;
1,32786498388304E-12;
3,18444564914838E-12;
4,51656624525111E-12;
5,42546571335561E-12;
4,16414719865833E-12;
3,32585334206785E-12;
2,83987754274231E-12;
6,55712784911252E-13;
-8,17094384087913E-13;
-1,2795197929443E-12;
-1,10755677458339E-12;
-1,32048236466461E-12;
-2,49569101405086E-12;
-2,67836141889531E-12;
-2,19886306848914E-12;
-1,92904815769903E-12;
-1,41377182186596E-12;
-6,9196908794107E-13;
-1,1742014863127E-12;
-2,17032160706636E-12;
-4,32731377970378E-13;
2,15926071147351E-12;
3,36460280593404E-12;
5,01880834824654E-12;
5,97940388368141E-12;
4,14736699420155E-12;
1,71298124500561E-12;
9,93698540683883E-13;
-2,86005022895297E-13;
-9,26955043089113E-13;
4,73804568932524E-13;
-6,53967459125547E-13;
-2,55241644145391E-12;
-2,42319540948257E-12;
-2,04676172358546E-12;
-1,52974228416835E-12;
-9,77822633295484E-13;
-1,47427501413104E-12;
-2,759716065726E-12;
-2,08128821217134E-12;
-4,46399666383305E-13;
1,35994743272477E-12;
4,63478039155536E-12;
6,12478127496476E-12;
6,08995677895695E-12;
5,75231699112714E-12;
2,65252802908733E-12;
1,55565366680587E-13;
4,50857160492097E-13;
5,78575077958672E-14;
-2,25864993022999E-13;
-9,03746550187578E-13;
-2,15643982095721E-12;
-2,08120788066892E-12;
-2,42813959893691E-12;
-1,66529301746323E-12;
-1,35964691465934E-12;
-2,23372043352707E-12;
-1,47114922534143E-12;
-2,18574464794804E-12;
-2,0154931920722E-12;
1,05898382001285E-12;
3,66363507044345E-12;
6,25809952631746E-12;
7,4942910866934E-12;
5,2162313342426E-12;
2,55383295383677E-12;
1,3421443132054E-12;
-5,45616376630931E-13;
-7,47662154400948E-13;
6,15501445012701E-13;
-3,27972014731666E-13;
-1,82832226100618E-12;
-3,06097545936619E-12;
-2,91065895704945E-12;
-1,45885982524546E-12;
-1,73064908453209E-12;
-2,73408419458554E-12;
-3,05491365015991E-12;
-2,28733863528225E-12;
-1,36218586097378E-12;
3,00986088836293E-13;
3,78409154100437E-12;
6,09274633652065E-12;
6,62842180440616E-12;
6,01935466060474E-12;
3,81301892678343E-12;
1,72287815591623E-12;
5,81833120291203E-13;
-2,23015669553851E-13;
-4,58118387033947E-14;
-2,53786624830152E-13;
-1,91371133031736E-12;
-2,85690568543051E-12;
-3,20991923203843E-12;
-2,74287857946647E-12;
-2,28414127424156E-12;
-3,17148177635504E-12;
-2,98726469965799E-12;
-2,8594161249242E-12;
-2,73144064431523E-12;
-2,77023543195147E-13;
3,07411426744374E-12;
6,5287188081701E-12;
8,01998902492673E-12;
6,23957083116125E-12;
3,60094980261426E-12;
1,27952755926173E-12;
5,21646507644535E-13;
6,83887655882758E-13;
6,94530799608885E-14;
-3,88909751251881E-13;
-1,57621991997069E-12;
-2,64697590645836E-12;
-2,58169277878506E-12;
-3,37909962552545E-12;
-3,04210427055766E-12;
-1,7780851704893E-12;
-2,87790781376078E-12;
-3,65283265974008E-12;
-2,04889723920212E-12;
3,25711021464924E-13;
3,39318458492794E-12;
6,31853274233447E-12;
6,88689144949812E-12;
5,79600415176125E-12;
4,8424736637394E-12;
2,61025912695002E-12;
3,30469414871848E-13;
6,73260092812165E-13;
6,24011077886097E-13;
-5,21909423293944E-13;
-1,45463841779532E-12;
-2,53922299779755E-12;
-2,77389956197414E-12;
-2,8268649579056E-12;
-1,91531048293561E-12;
-1,69483721398258E-12;
-3,88412541426037E-12;
-4,00234394602958E-12;
-2,70218231053008E-12;
-3,07165072240653E-13;
4,32039294076505E-12;
7,48154876162659E-12;
7,59101774124647E-12;
5,59747338437867E-12;
3,9058027999429E-12;
2,69613483655231E-12;
1,49784793966996E-12;
1,40611982757614E-12;
7,14663965012801E-13;
-5,64221867389306E-13;
-1,36277884172906E-12;
-2,34050158035579E-12;
-2,75219735595179E-12;
-2,33704120402293E-12;
-1,80970610805885E-12;
-2,02300265678279E-12;
-3,53870332012882E-12;
-4,31568347899354E-12;
-3,28338779020294E-12;
-1,19534963714037E-12;
2,62832285924034E-12;
6,26451633764565E-12;
7,54391249795008E-12;
5,90814495259189E-12;
3,27998791769658E-12;
2,47654249805769E-12;
8,46103869208062E-13;
1,62010075333896E-13;
1,03057650869848E-12;
-5,62003323885578E-13;
-1,75279552085515E-12;
-1,83632321199685E-12;
-2,0841735305117E-12;
-1,56080074147419E-12;
-1,90550267383523E-12;
-3,07449470438478E-12;
-3,64358907378157E-12;
-4,16501224491314E-12;
-3,30559235323563E-12;
-4,62615918201523E-13;
2,24105144145902E-12;
5,07040991154535E-12;
7,3609230842666E-12;
6,32609613220328E-12;
3,81379259586363E-12;
2,49510233770279E-12;
1,96336078452389E-12;
1,61180929465611E-12;
8,03294174888689E-13;
7,78811997067198E-14;
-8,19352465857174E-13;
-1,93158383521512E-12;
-2,55238627880726E-12;
-2,67766719703065E-12;
-1,75027985237939E-12;
-1,93247852608541E-12;
-4,00386347823757E-12;
-4,46683541856935E-12;
-3,0288930331879E-12;
-1,39461991317896E-12;
2,25369534427274E-12;
5,90868477173854E-12;
6,32017735266021E-12;
6,01633524176768E-12;
4,45454719011518E-12;
2,0334574421683E-12;
1,53145647649595E-12;
1,47214895184151E-12;
8,22611805509391E-13;
1,33362664031993E-13;
-3,58280102661481E-13;
-1,77033475151788E-12;
-2,8548360495611E-12;
-1,48473739389689E-12;
-1,29519630875888E-12;
-2,63543169268903E-12;
-2,82204547746295E-12;
-3,4519696624857E-12;
-3,30566238481896E-12;
-9,17630085051339E-13;
2,31714214375422E-12;
5,08968431267325E-12;
6,34127063104489E-12;
5,84778875055604E-12;
3,41560463090779E-12;
1,92203600086075E-12;
1,12496279442495E-12;
4,04867212052066E-13;
1,56806877081433E-12;
2,16091932262583E-13;
-9,68834218579468E-13;
-3,34951554909024E-13;
-2,16373840095663E-12;
-2,09966287670307E-12;
-1,46278921376E-12;
-2,83635253277166E-12;
-2,87569670612537E-12;
-3,25984169263515E-12;
-3,74440602871676E-12;
-1,01187597341986E-12;
2,8937499362196E-12;
4,78123791842777E-12;
5,63512728086028E-12;
5,30530820385536E-12;
3,12078907825406E-12;
1,67689260262162E-12;
1,66720545784243E-12;
1,56542746152125E-12;
1,18085418797948E-12;
3,01948776899015E-13;
-1,11075701568841E-12;
-1,7594481169637E-12;
-1,71595881710855E-12;
-1,19009261338861E-12;
-1,10388761996718E-12;
-2,61008380190882E-12;
-3,43130227951127E-12;
-3,81420967637858E-12;
-3,54519917753695E-12;
-1,38331174233355E-12;
1,12359564769341E-12;
4,12161002500732E-12;
5,36542806870863E-12;
4,71662293977816E-12;
3,94247605203086E-12;
2,25816833680721E-12;
1,50046781406869E-12;
1,47510219347819E-12;
1,48424638678547E-12;
1,07403494231882E-12;
-5,25902561058475E-13;
-1,23194285582138E-12;
-1,12140193799282E-12;
-7,62534542607706E-13;
-5,41457540410082E-13;
-1,91625181532385E-12;
-3,43082508679316E-12;
-3,57924805385985E-12;
-3,07638058000806E-12;
-8,40494490217321E-13;
2,6039771818225E-12;
3,88129640347635E-12;
4,36518613666912E-12;
5,13846179475275E-12;
3,44485694139204E-12;
1,46597054296426E-12;
1,77983361160015E-12;
1,33380001672654E-12;
6,31471194071259E-13;
4,66822326634625E-13;
-5,94848360374238E-13;
-6,59063351639828E-13;
-1,24812352584341E-12;
-1,65610650868457E-12;
-7,94855544262732E-13;
-2,20495581797598E-12;
-3,62225131049421E-12;
-3,26803223504114E-12;
-2,86314324175644E-12;
-1,55853470809917E-12;
1,30705217154708E-12;
3,73927693209448E-12;
4,97277171472455E-12;
4,76799596838494E-12;
3,16114572310461E-12;
2,2250048551805E-12;
1,3451944019759E-12;
9,19311150718431E-13;
1,16521395313498E-12;
2,29236402051399E-13;
-6,36830654367949E-13;
-1,08650364751623E-12;
-1,00099848274418E-12;
-8,07756808855109E-13;
-1,6096748537803E-12;
-1,47020586883224E-12;
-2,03494903255261E-12;
-3,32658566398801E-12;
-2,00110273489956E-12;
-1,69963403091608E-13;
1,53898007866706E-12;
3,51191717656537E-12;
4,6442538602594E-12;
4,56495900169915E-12;
2,98213742761388E-12;
1,89169327256938E-12;
1,23598193231568E-12;
8,42750465256067E-13;
1,55979982927752E-12;
8,81473983326933E-13;
-4,17549692951919E-13;
-7,3496740139732E-13;
-1,15524191397872E-12;
-7,46093459390474E-13;
-8,64171381304708E-13;
-2,24461760326165E-12;
-2,70395683810698E-12;
-3,15197549095746E-12;
-3,11886946924311E-12;
-1,3669487886773E-12;
4,93043898763033E-13;
2,31203581518974E-12;
3,99179873187807E-12;
3,67254289072432E-12;
2,14661509753873E-12;
1,78057893932975E-12;
1,82317076322152E-12;
1,40635833787367E-12;
1,42200211539756E-12;
1,15070274376599E-12;
-8,74105415976432E-14;
-7,95013460638339E-13;
-7,5058070281417E-13;
-7,89562216213634E-13;
-1,35750578699531E-12;
-1,76180261244612E-12;
-1,71850140475952E-12;
-2,28351820357228E-12;
-1,62877116377882E-12;
-4,00337048532959E-13;
2,29384911083001E-13;
2,32925712059043E-12;
4,19343623718015E-12;
3,80514409959149E-12;
2,16243523023874E-12;
1,64121467411516E-12;
1,44668622368081E-12;
4,61769934538923E-13;
1,25932734718856E-12;
7,92651548264825E-13;
-1,04521279128299E-12;
-3,86250648119994E-13;
-3,24208618907681E-13;
-7,92596102468057E-13;
-2,70872199985454E-13;
-2,79987063600432E-13;
-1,05063787806418E-12;
-1,8713356516606E-12;
-1,55155386050472E-12;
2,83275210071607E-14;
1,38121018478419E-12;
2,25270901376028E-12;
3,1741680730813E-12;
2,64768907002446E-12;
2,29064142777043E-12;
2,67003094324933E-12;
1,68184415831419E-12;
1,08277480383558E-12;
1,15743617742575E-12;
9,57976505902327E-13;
2,60911893520683E-13;
-9,23240841977221E-13;
-8,49436489121074E-13;
-1,323862761129E-13;
-6,59278743740755E-13;
-1,04276051182272E-12;
-4,10733013692124E-13;
-1,13844636075126E-12;
-2,03078220787426E-12;
-2,87637891126047E-13;
1,25079351436026E-12;
2,16458753606969E-12;
2,73917610569982E-12;
1,66878164433012E-12;
2,20689996438934E-12;
1,85072698760704E-12;
-4,88648390396684E-13;
1,10715303453661E-13;
7,01119497452499E-13;
6,47087437761083E-13;
1,18542613564479E-12;
-2,71805230934967E-13;
-4,1802264130392E-13;
6,36469787898151E-13;
-5,01845846750063E-13;
-3,79031888709037E-13;
-4,23005926127871E-13;
-1,75191696892484E-12;
-9,25066006210502E-13;
9,87756657640052E-14;
1,1150991700295E-12;
1,93749402639101E-12;
2,46581093164281E-12;
2,66219097283182E-12;
1,0894568894258E-12;
8,60234643932743E-13;
1,04945814533114E-12;
6,17941983874158E-13;
1,17044988826232E-12;
3,50237835454733E-13;
-1,24988774427686E-13;
8,0372562185822E-13;
-2,30385290574102E-13;
-7,59911482086121E-13;
4,31656765697584E-13;
-3,37907088096154E-13;
-1,62067265794645E-12;
-1,34711502239167E-12;
-8,59780508105406E-13;
-2,06818519320267E-13;
4,88516998070948E-13;
1,13864505887663E-12;
2,15791894584027E-12;
2,057993697005E-12;
1,07422238892182E-12;
9,10461650851641E-13;
1,02833834195402E-12;
8,9327718485129E-13;
7,65383065243241E-13;
4,61504936709776E-13;
4,46004989324291E-13;
7,26524476924792E-13;
-1,25897333904972E-13;
-9,00776073673059E-13;
-4,80847161149785E-13;
-4,55381083037563E-13;
-8,11539867904874E-13;
-1,46430108439082E-12;
-1,90104911218696E-12;
-5,7597753973789E-13;
8,1544662673177E-13;
1,16206642083071E-12;
1,97486498741969E-12;
2,23400284989705E-12;
1,20461650655317E-12;
4,4275150987743E-13;
5,341459213626E-13;
7,32081861846434E-13;
4,27418455434624E-13;
6,16832419347799E-13;
1,84167587505198E-13;
-4,77876105078814E-13;
5,13545560747055E-13;
2,27247798811546E-13;
-4,00539985932869E-13;
-1,78180555841954E-13;
-9,48587575641988E-13;
-1,20037214801692E-12;
-9,20690819486691E-13;
-7,41085615466751E-13;
3,89301930529869E-13;
1,42836750978836E-12;
1,47945976209665E-12;
2,30220155387311E-12;
1,91917300406421E-12;
4,11742224339592E-13;
1,41500553507532E-12;
1,81199442927596E-12;
2,94641461415651E-13;
-3,82158848555023E-13;
4,42267014299894E-13;
4,70278145398889E-13;
-1,07725519157465E-12;
-2,01944349120535E-13;
7,49967545224377E-13;
-7,89574694801869E-13;
-3,81022190435433E-13;
6,15419279545695E-13;
-2,56013986596723E-13;
-5,21084078909961E-13;
3,83291411830151E-13;
1,5022010351185E-12;
1,2893201781547E-12;
6,65699837018809E-13;
1,12024586777645E-12;
7,98413940953159E-13;
1,07469164565434E-12;
1,26569817222859E-12;
1,55365977548299E-13;
7,06029649075705E-13;
8,87270826964967E-13;
7,41844171285673E-13;
1,27898499370705E-12;
1,50809734759032E-13;
-4,55803840379833E-13;
-1,41282953013643E-13;
-2,25542119553174E-13;
-3,61835154031435E-13;
-1,0139916050804E-12;
-9,5453326241491E-13;
-1,98802759243404E-13;
4,84300823247156E-13;
1,33136184124811E-12;
1,64684546239969E-12;
1,33256738042155E-12;
3,83722886216219E-13;
-5,7093480489145E-14;
5,13551414224641E-13;
7,57248923021944E-13;
6,91053123347275E-13;
4,94578217762744E-13;
1,06103003770311E-13;
-2,45950839140243E-14;
2,03431008796835E-13;
-4,3625637117118E-14;
-3,6086472305442E-13;
-3,79560260627617E-13;
-5,60509912776239E-13;
-5,03430601047566E-13;
-2,51495679641366E-13;
5,09748634902531E-13;
1,20962346263689E-12;
7,40912602743067E-13;
2,42840319826521E-13;
6,59776997657999E-13;
6,89909708670414E-13;
1,00027877768588E-12;
1,39126704504999E-12;
1,63619271258542E-13;
-3,42184353229605E-13;
1,21428754171928E-13;
3,20072247694051E-13;
3,90078974075141E-13;
3,33604365239942E-13;
7,09702427154428E-13;
4,50441137156355E-13;
-6,38177032213719E-13;
-5,678942175749E-13;
3,33032322539197E-14;
9,78610749845655E-15;
1,57002528687333E-13;
9,38243958309183E-14;
7,04737294315138E-13;
8,42223356896497E-13;
-1,23221802707167E-13;
7,27196025611053E-13;
1,16920829776774E-12;
6,61136876905374E-13;
1,27197124086811E-12;
1,44965877422588E-12;
6,07980557831415E-13;
2,12659304316211E-13;
4,91921107564609E-14;
-4,85605079677017E-13;
1,70753135913198E-13;
3,5363778650285E-13;
-2,84076720935824E-13;
-9,05173675398176E-14;
-1,37269152157213E-13;
1,6760840285398E-13;
8,21587510130335E-14;
1,87197767221293E-14;
9,87944029355019E-13;
1,44968714665915E-12;
1,14407926039291E-12;
2,17828317308258E-13;
4,8990947904172E-13;
1,00368510961209E-12;
5,36559322605643E-13;
1,00319469467617E-12;
7,32918539149922E-13;
1,21015316642434E-13;
4,12473527822491E-13;
-7,4546444344144E-16;
-3,28098546224573E-13;
-2,46495940955039E-13;
-6,38844426802767E-13;
-8,53612766859209E-13;
-6,32422860861347E-13;
-5,47938529817979E-14;
6,28985523412538E-13;
4,30159340622183E-13;
2,85292677243718E-13;
5,65257897839165E-13;
6,18782943190636E-13;
9,63748560678451E-13;
8,53407613625218E-13;
6,73320824465173E-13;
6,6318100183377E-13;
3,33074200624882E-14;
-1,41243556102082E-13;
9,36369585537799E-14;
4,84896989844036E-13;
4,83720057540169E-13;
3,99515966554768E-13;
9,46361153590211E-13;
7,38593520356494E-14;
-3,04511950854375E-14;
5,84380557475624E-13;
-7,18186976066265E-14;
5,51683329778488E-13;
4,05102647059929E-13;
-1,43548874440035E-13;
-1,88301324384489E-13;
-3,65748605406464E-13;
2,1094243090894E-13;
1,12344909497787E-14;
6,38216599177097E-13;
7,38671615817669E-13;
5,0431574931288E-13;
7,12757102917678E-13;
-6,56862100326925E-13;
1,41506324277735E-14;
7,6419461576325E-13;
2,3164685189503E-13;
2,51477628374837E-13;
-4,29391916697654E-13;
-6,85435037877903E-14;
3,89644461103221E-13;
7,711243758771E-13;
9,8004213638099E-13;
2,08522949595521E-13;
7,44101813826119E-13;
4,08757461463692E-13;
-1,56755066636249E-13;
4,39679144131419E-13;
2,21399136087842E-13;
4,96339099461427E-13;
5,01485764081249E-13;
4,05989111636295E-13;
6,88879544051118E-13;
9,71986827964837E-15;
-3,74287981937536E-13;
1,95622480231418E-13;
9,51466352647572E-13;
8,19420407130497E-13;
1,93357293894647E-13;
-1,99882752930583E-13;
-1,13342790475168E-13;
1,58639827642876E-14;
-3,74823010155678E-13;
-1,24104800865288E-13;
3,21939368452473E-13;
6,18894034934606E-13;
8,22962557857128E-13;
1,62681068966367E-14;
-4,09781495895066E-13;
3,01811315293677E-13;
8,01383806758994E-13;
8,50646181921727E-13;
5,37595576192446E-13;
5,91661262243074E-13;
8,3483055363101E-13;
2,64509706683007E-13;
6,89995101211887E-13;
9,43772052984325E-13;
2,87566906557426E-14;
5,66464045372031E-13;
3,19687930162339E-13;
-6,67129595147981E-13;
1,09380706383984E-13;
6,87490666632545E-13;
8,30494669083059E-13;
6,52923521897261E-13;
1,1831989298231E-13;
5,40090713912451E-13;
7,49720086874478E-13;
1,04240311172469E-13;
2,72951699386673E-13;
9,49403056159931E-13;
2,93029561429385E-13;
-3,91249517825882E-14;
1,0526062065462E-12;
5,05212101777917E-13;
2,89126795274512E-13;
1,28633095564548E-12;
5,42208395658671E-13;
2,09271435526509E-13;
1,09806621839574E-13;
-1,60241186029093E-13;
-1,74193573170934E-13;
-6,65551059734583E-13;
1,07644776157502E-13;
3,20108940842348E-13;
1,83046739191535E-14;
9,36162721557754E-13;
7,66435799438619E-13;
3,70172793111863E-14;
-2,86949905008869E-13;
1,38683748215062E-14;
9,86689489369626E-13;
1,3310472038398E-12;
1,19431076516358E-12;
2,30865598344536E-13;
-1,76649688072497E-13;
6,7386656915333E-13;
4,86039542235107E-13;
-1,41307736210992E-13;
1,52906958392702E-13;
8,68242265883769E-13;
8,46139535251249E-13;
2,88749843740898E-13;
1,18577597660762E-13;
-2,28670499337779E-14;
-4,06220298551398E-13;
-2,63864484232043E-13;
1,69598888383061E-13;
1,85079439635829E-13;
-5,9572110341263E-14;
-4,45432677781207E-13;
-1,07211087939966E-13;
1,34100843992426E-13;
3,58239368121923E-13;
1,02677948086584E-12;
9,63951608288249E-13;
7,7390452872877E-13;
3,60975172184809E-13;
6,42621758878864E-13;
8,04823943881648E-13;
2,08309634315321E-14;
8,57472719336414E-15;
-6,1805622218003E-13;
-4,09508244976178E-13;
5,74907011122571E-13;
-1,32793029161984E-13;
3,69264961547389E-13;
9,85556667616705E-13;
1,69080736224883E-13;
5,7735906517903E-13;
5,19243521756396E-13;
-9,55945976263723E-14;
-5,98411215032405E-14;
-1,42855697773295E-13;
8,07093259546572E-13;
1,19970815183757E-12;
2,50336037399015E-13;
-6,53696148046309E-15;
6,4619271389077E-13;
8,38963184065362E-13;
1,05230982825932E-13;
1,306324459934E-13;
1,34039910398973E-13;
1,47319328925638E-13;
6,83433001047639E-13;
1,99447816592917E-13;
2,00071250870275E-13;
3,42301212385172E-13;
8,99700138557646E-14;
4,19025648426463E-13;
2,53089720653712E-13;
1,2840320107394E-12;
1,41199169790041E-12;
-3,82966519892522E-13;
6,10745432744281E-13;
9,62537262036206E-13;
-3,24756571953817E-13;
8,73636705649314E-15;
4,62135032542134E-13;
4,91988957339526E-13;
3,35212305153319E-13;
4,018405378757E-13;
2,60275992224447E-13;
1,17712401832807E-13;
-1,11981881004658E-13;
-3,26059977790359E-13;
5,04024737553072E-14;
1,65056673983461E-13;
5,4573430972475E-13;
7,19745435672599E-14;
-5,66025029619347E-14;
5,75342158443409E-13;
4,74588304923844E-13;
9,7032353129496E-13;
2,33966154970672E-13;
-2,37864321018761E-13;
1,51102616721304E-13;
-1,88840784670705E-13;
7,97175410982015E-13;
6,6468648850089E-13;
1,32991933795532E-13;
8,50749414712229E-13;
-5,8668770238903E-14;
-1,21635961507439E-13;
8,52848836048233E-13;
3,37014728456762E-13;
3,16298103084761E-14;
-1,29550383585421E-13;
-2,58887429441646E-13;
1,69026016298764E-13;
5,1622607113294E-13;
6,89479948379038E-13;
3,58925547441021E-13;
7,45179113388573E-13;
1,03384698497881E-12;
3,1373792474536E-13;
1,0524894345567E-12;
1,19691747683461E-12;
4,22791670522658E-13;
5,65566020954143E-13;
5,21148525906148E-13;
8,18692707530238E-13;
-4,2991995587392E-14;
-7,59642337577581E-13;
-1,14297481059916E-13;
3,63494030613558E-14;
8,63862323099387E-13;
4,65218300136592E-13;
-2,21740344392433E-13;
3,19792710281722E-13;
-1,49296980118315E-13;
1,94915728536803E-13;
7,149481968179E-13;
2,29985628903088E-13;
6,47471298769573E-13;
8,60156846222583E-13;
6,88146860606475E-13;
6,46189388241991E-13;
-1,85032566575632E-14;
6,13950226002582E-13;
8,44915786849177E-13;
1,45843781075729E-13;
5,90417147991121E-13;
-1,1778816192252E-13;
-2,28968734625561E-13;
-1,03250875823405E-13;
-2,07311180820113E-13;
1,1010660200877E-12;
4,17754541010717E-13;
-1,36920864685997E-14;
9,17717158230387E-13;
1,29104395688997E-13;
-1,79607236655145E-13;
3,95561158234034E-13;
6,3690992515878E-14;
3,25471868438147E-13;
9,9210396487495E-13;
7,92570127140481E-13;
5,06618629801914E-13;
4,83153522014091E-13;
1,10249800039384E-12;
1,16708459640069E-12;
5,77231657474821E-13;
4,76845354609169E-13;
-3,05636294880148E-14;
2,59121938574903E-14;
4,31105896892144E-13;
4,82031572600032E-13;
1,1731287582338E-12;
4,68727255477065E-13;
3,37683825679362E-14;
1,00122309830081E-12;
4,78723682885226E-13;
5,82067226512554E-13;
9,07285072711167E-13;
4,14882170379402E-13;
5,20690602070374E-13;
4,08388333345847E-13;
5,74293492342497E-13;
7,76483496081581E-13;
5,65316083710629E-13;
3,71470376700948E-13;
2,05667186868444E-13;
6,9794370717205E-13;
9,02421054302982E-13;
3,37600028038752E-13;
8,57995174620693E-13;
8,09344990670072E-13;
-9,32744148784668E-15;
9,01516781940057E-13;
9,74918212096297E-13;
6,00081923126705E-13;
2,592540896205E-13;
-3,13991317416983E-13;
3,84707348996296E-13;
4,15473813664356E-13;
9,33371157423016E-13;
4,01335935588456E-13;
-9,10149850253464E-14;
1,40086845919864E-12;
5,9547178567467E-13;
1,25295337234926E-13;
-3,12872652333704E-13;
-5,80271523452385E-13;
1,13406492495244E-12;
2,86362278085568E-13;
-4,28339289568179E-13;
8,15569019738386E-13;
4,75682655251781E-13;
-1,76824881218981E-14;
3,94616966836663E-13;
5,54271607949737E-13;
6,03031727160327E-13;
1,1315219973933E-13;
-2,72588360825715E-13;
4,12515844258189E-13;
7,382069980539E-13;
7,3435026136861E-13;
7,35008259083958E-13;
2,6428285571454E-13;
8,40482969712355E-13;
8,55898128359773E-13;
-6,27611086137962E-13;
3,77201069858752E-13;
1,04030766070628E-12;
-2,88183129036129E-13;
4,23523359573704E-13;
5,31452987639855E-13;
3,16749903908991E-14;
1,18066300018254E-12;
1,09178721902212E-12;
5,82559587202398E-13;
7,31079242795855E-13;
8,28342797038434E-13;
1,30138363019862E-12;
7,09495556856451E-13;
5,58634695818538E-13;
1,14822646877937E-12;
6,36425527036451E-13;
7,12690613256176E-13;
7,79118550670732E-14;
-9,63683155373812E-13;
-4,00995617946778E-13;
-1,08124537399297E-13;
3,56664345110306E-13;
6,98082981804189E-13;
7,57494581999913E-13;
1,07274872796295E-12;
2,32297265693101E-13;
-2,04063621244232E-13;
-1,30104994140031E-13;
5,16904120839936E-13;
1,30598719818334E-12;
1,23247564135013E-13;
-2,87798446506685E-13;
7,39361817144591E-14;
2,1836792106739E-14;
3,44160939320789E-13;
-1,40650767370672E-13;
1,93943426189248E-13;
1,25852331633135E-12;
7,22042669281275E-13;
3,33864385532149E-13;
2,3885800899647E-13;
-2,2929165976797E-13;
9,54341227542543E-13;
1,40136591039406E-12;
1,76246656789298E-13;
1,93210191505551E-13;
5,32357979607266E-13;
5,5072883326573E-13;
6,15575206412255E-13;
7,02267301411507E-13;
3,06760242911853E-13;
8,97731764811682E-14;
6,69725629561305E-13;
1,08045948083557E-12;
6,25608632378774E-13;
-5,34590745390672E-13;
-9,77087256965529E-14;
2,40510480729682E-13;
-5,48943646238351E-13;
-4,1845618755723E-13;
1,97432855726601E-13;
5,35309673550586E-13;
-2,34945071765071E-13;
-2,4409158526883E-13;
4,39502627262585E-13;
9,59594672274771E-14;
2,21335775319497E-13;
3,7040748525416E-13;
2,21262694765882E-13;
4,13406484709861E-13;
1,39602611005959E-13;
1,90285940880479E-13;
4,73758717610206E-13;
2,42102816959066E-13;
4,63726792671968E-13;
9,00726355057639E-13;
1,07788755099919E-12;
6,68053963199186E-13;
-4,34309565905596E-15;
-1,8564435475422E-13;
1,79603883065419E-13;
8,23271531049438E-13;
6,0390821953085E-13;
2,49207721232593E-14;
8,32472586061749E-13;
1,08373664677782E-12;
-1,60978570716464E-13;
-3,38902193189411E-13;
3,30785247118081E-13;
1,34412215125579E-12;
1,21170797677316E-12;
4,01062138443133E-13;
1,45418941105167E-12;
1,07894198678505E-12;
-2,08088556873968E-13;
3,04606374002239E-13;
-2,08104117523727E-14;
-5,88764014640458E-13;
-1,50320568620266E-15;
2,86282804816336E-14;
3,49823786094258E-13;
1,96044217779651E-13;
-6,63168202947785E-13;
5,89075756225012E-13;
6,99701804074706E-13;
-5,39196648740504E-14;
8,45234094263546E-13;
7,79151812090178E-13;
3,95105801075848E-13;
-7,33776770983049E-14;
4,10224497832502E-13;
9,45520352079653E-13;
-3,4507545449431E-14;
4,3794438772274E-13;
3,24718180932524E-13;
-3,9913189151593E-13;
2,26200909177305E-13;
1,06894233080555E-12;
1,52686653812304E-12;
2,37931046436189E-13;
-4,07462457168872E-14;
5,80985301600381E-13;
-3,66748318611583E-13;
1,86923541147313E-13;
8,26738553635645E-13;
5,20838771977197E-13;
9,46541735639745E-13;
5,08782148766827E-13;
7,44018158268762E-13;
1,17798119868492E-12;
5,94144377865044E-13;
1,95690867773071E-13;
-4,5085486802045E-13;
5,57957159145896E-13;
1,56629896841466E-12;
6,48328165966919E-13;
9,70402376081164E-13;
1,2688818980759E-12;
4,77135207174861E-13;
8,10727672516144E-13;
3,44713546372376E-13;
6,93709131928576E-14;
1,49635302472365E-12;
1,20456894175854E-14;
-1,39047795054343E-12;
7,20663173370204E-13;
9,2089523539097E-13;
-3,88627763050554E-13;
-3,30488713478351E-13;
1,65803599498314E-13;
6,21968132184926E-13;
1,82369043498913E-13;
-1,54486283442239E-13;
-4,45526154261566E-14;
-8,75194113316789E-16;
6,13757274295181E-13;
7,26936820039452E-13;
5,98739298172883E-13;
5,19351489673317E-13;
5,4911417812653E-14;
3,78231372351346E-13;
5,96307443656124E-13;
4,18026036639267E-13;
1,12527650951496E-12;
5,0722734883729E-13;
-3,25228496909418E-13;
5,9726285234907E-13;
4,4976920428882E-13;
2,10566884735472E-13;
3,86808117592185E-13;
1,64127199575828E-13;
7,14338385408584E-13;
4,75920977147802E-13;
-1,93268225674959E-13;
4,02658125133583E-13;
1,87705114412147E-13;
-4,11703200732263E-13;
6,82498894869728E-13;
9,2746593142975E-13;
3,10092691859737E-13;
4,38172936316151E-13;
4,88739280990333E-13;
4,80107978944456E-13;
8,69909486227452E-14;
2,22538055791611E-13;
4,90936766815315E-13;
3,81231495586358E-13;
8,79594975112488E-13;
-3,47117210994506E-14;
-8,35812008385349E-13;
4,83993176575116E-13;
8,0858261678238E-13;
2,21571215824494E-13;
6,24931517692659E-13;
1,16449891880836E-12;
7,00782509803461E-13;
6,03829112254828E-13;
1,03687284994708E-12;
2,12435548056646E-13;
-2,89009736256453E-14;
6,53548443431146E-13;
1,90721829923893E-13;
-1,75197484666896E-13;
-7,47458832948552E-14;
-6,1705624938888E-14;
1,30965173004589E-13;
-2,52922427274659E-13;
1,7894159656685E-13;
1,15550535557762E-12;
5,66630393722486E-13;
-8,91066964307081E-14;
2,10507579126029E-13;
3,22131750873557E-13;
2,41694163353749E-13;
4,58975189394292E-13;
3,99257994410367E-13;
5,98472400634894E-13;
6,55099323465848E-13;
-5,42573451604732E-14;
1,42226704358473E-13;
9,80042038918898E-13;
9,13735102667794E-13;
6,77176692899594E-13;
6,28503771617699E-13;
3,65896098225577E-13;
7,86117744898238E-13;
7,98117773391019E-13;
-1,79663083018962E-14;
1,98485530239965E-13;
7,30174899978499E-13;
6,81997309861317E-13;
7,9497058938203E-13;
8,41139160586585E-13;
4,0088460522334E-13;
3,60225175666991E-13;
9,83277800603748E-13;
1,7771373883458E-13;
-1,09558753965458E-12;
-5,52867864330409E-13;
1,91935683916432E-13;
5,46784128780023E-13;
1,5373514996726E-14;
-2,94625792322926E-13;
4,93218470241555E-13;
5,86317262113252E-14;
-3,62331844179664E-13;
-1,10198528510408E-13;
4,13162491027789E-13;
1,36322075581023E-12;
5,13067634906898E-13;
-5,83731880446998E-13;
5,10529997656307E-14;
9,14436664354227E-14;
2,1450271192086E-13;
9,70456453811927E-13;
5,18166341440344E-13;
1,06932442545873E-14;
4,77983838541075E-13;
6,20309933075689E-13;
3,86690929918225E-13;
3,82577883020379E-13;
-1,95185307383159E-13;
1,11230179137304E-13;
1,04576042742871E-12;
5,38401781387301E-13;
6,7641090502954E-13;
5,5742786348993E-13;
-2,62616253713118E-13;
6,96797124908029E-13;
1,14427963900454E-12;
8,9301665592893E-13;
8,26779214263562E-13;
-2,07144295919347E-13;
-8,89299039098241E-14;
7,8391364456258E-13;
4,01714905097137E-13;
-1,13777929283122E-13;
4,15814708595875E-13;
1,01405378852597E-12;
1,8811220157655E-13;
-2,01651614625928E-14;
7,90031935811845E-13;
2,68096518554859E-13;
1,45533121459177E-13;
5,60978180356306E-13;
-9,68849771841347E-14;
1,98346077558332E-13;
1,06602950672204E-12;
6,60996019482296E-13;
1,49159308231323E-13;
4,57284437675522E-13;
8,31124606694896E-13;
1,20168914289915E-12;
7,22246160829547E-13;
1,98141184402005E-13;
1,23910723958402E-12;
3,64227804224589E-13;
1,79313372215195E-14;
1,75286673501498E-12;
7,05304074003163E-13;
1,20944603090154E-13;
5,02076118199807E-13;
2,85311326256537E-13;
1,17469266237901E-12;
1,04473327045253E-12;
2,50270401962242E-13;
5,04768940169721E-15;
1,69936383150479E-13;
3,73801656465159E-13;
1,20132611117975E-13;
6,09427671682103E-13;
7,63294394076138E-13;
-1,13704627840302E-14;
1,90848681728278E-13;
2,83930422275971E-13;
6,73742298787692E-13;
1,26707409528344E-12;
-1,72358852485124E-13;
-4,76517687774481E-13;
3,92278430612113E-14;
5,88581529539606E-14;
8,962119012808E-13;
2,45738816701706E-13;
-4,77398904848717E-13;
-1,17913772481467E-13;
3,90493871406207E-13;
1,23251972646348E-12;
2,49032442864529E-13;
-6,59675340065258E-13;
1,86042028210292E-13;
3,58424462191461E-13;
8,07969548190649E-13;
5,51988888378708E-13;
-6,91864679425088E-13;
-1,5589830453458E-13;
5,85083304335628E-13;
5,96697239504405E-13;
1,73989835258812E-13;
-1,43154344290961E-13;
5,4589151370633E-13;
6,86678066158034E-13;
6,18625083502709E-13;
7,77357393704171E-13;
2,40887259200697E-13;
3,21608921578785E-13;
7,02604100371354E-13;
4,72880127816199E-13;
1,15212042649845E-12;
8,98915353459327E-13;
-6,81004351596413E-13;
-1,43637793560487E-13;
6,9532619087083E-13;
4,87500902079652E-14;
5,77625676611451E-14;
3,75741246581497E-13;
6,19309729984293E-14;
3,58456849274374E-13;
4,81302160643684E-14;
-6,74975224808634E-13;
-4,96152194969751E-14;
-1,57652614488809E-14;
2,59108085131587E-13;
8,38462177556976E-13;
5,68077717576467E-13;
2,7161279814958E-13;
-5,84941653937193E-13;
-5,96030146640338E-14;
6,16968969334095E-13;
-2,51957722515061E-13;
-7,79825183976007E-14;
3,75220809462968E-13;
4,65457518093043E-13;
3,66956843280461E-13;
4,99453068115976E-13;
1,34835256919683E-12;
1,22596406844958E-12;
7,21974277549367E-13;
7,4234153133282E-13;
4,42718487853908E-13;
2,85160716972091E-13;
3,08097505902287E-13;
2,93638237063338E-13;
9,19300522580127E-13;
1,18861869331704E-12;
5,48422531009245E-13;
5,60639033415117E-13;
4,53803996612106E-13;
4,80414265073652E-14;
4,25035292666917E-13;
-4,73396711407762E-14;
1,21821143944942E-13;
9,0163631439272E-13;
2,15268682005918E-13;
4,44012921946709E-13;
9,15579753546995E-13;
4,77439466146371E-13;
8,85750575385587E-15;
1,39330667301635E-13;
5,92238352607485E-13;
-1,44736506885479E-13;
-3,34276756585115E-13;
2,61358896274767E-13;
3,67824796490598E-13;
-9,95895476956289E-14;
-4,91037022277008E-13;
5,34941812197419E-13;
6,50277672802088E-13;
4,44006557756966E-13;
1,03644623201253E-12;
3,53226837484196E-13;
5,39929720725296E-14;
4,64390457268719E-13;
4,72600230693059E-13;
3,76281582161442E-13;
3,79964229941088E-13;
9,72915021655071E-14;
-1,29402763962501E-13;
6,05456405341272E-13;
9,61785746236468E-13;
6,81660737704636E-13;
5,26516691487435E-13;
4,30051415945362E-13;
1,57498188798605E-13;
7,56527658115323E-14;
3,0203233939724E-13;
3,58382528904151E-13;
8,41043636420324E-13;
9,79755762170144E-13;
9,64094498666512E-13;
7,8972641060214E-13;
-3,49649127780899E-13;
3,41790495499973E-15;
6,71613157593426E-13;
5,08636242858502E-14;
3,27724700512736E-13;
9,34682609855259E-13;
5,86971099641487E-13;
-1,28213937399245E-13;
3,80128389470263E-13;
9,1198221325782E-13;
-8,64732653492989E-15;
-7,73235531423886E-14;
-9,96635800534698E-14;
-1,12221286686311E-13;
7,34794267872472E-13;
-2,21266515952775E-13;
-5,0787932086866E-13;
3,46364606615955E-13;
7,07889497084312E-14;
4,69350447218046E-13;
2,60221266855167E-13;
4,41418413322378E-13;
1,10606937415217E-12;
4,13998422281981E-13;
6,03148674611179E-13;
6,66045844967558E-13;
4,02886632273967E-13;
2,92162976130096E-13;
6,54582707238457E-14;
-1,4455065975964E-13;
-3,57932576888054E-13;
6,19343895548309E-13;
8,65365987163099E-13;
3,07991582215908E-13;
5,52211471730191E-13;
8,21601745580594E-13;
5,43659475642852E-13;
-2,24685210416377E-13;
7,30444924084169E-14;
1,17840149071505E-12;
6,06399022757521E-13;
5,08730348088896E-14;
6,06620876824533E-13;
-1,76266778581161E-13;
-5,00830734834542E-13;
3,54331801012996E-13;
3,56053670336747E-13;
3,69947075611262E-13;
4,92114009217754E-13;
4,53355418608123E-13;
2,50410817647645E-13;
-1,92380470268123E-14;
7,21621460434499E-13;
3,73295716372202E-13;
-4,29427128734111E-13;
6,15127348518064E-13;
6,21329390315083E-13;
6,06612070277409E-13;
6,416146088356E-13;
-5,02259096502802E-13;
8,39206842734655E-14;
7,67161076505857E-13;
6,84973338707127E-13;
6,12785280687386E-13;
1,96849468056073E-13;
1,4668069434427E-13;
-7,8522984501816E-14;
1,78823910863561E-13;
8,33360779546315E-13;
1,2367454157253E-13;
-2,0451248125092E-13;
1,05238110886395E-12;
7,81271786721691E-13;
1,22853607231868E-13;
7,40845848320156E-14;
-5,72074722348745E-13;
2,63408529824411E-14;
2,66844687710315E-14;
-3,18931773859392E-13;
5,1578821790475E-13;
5,60490571536178E-13;
2,2063333537235E-13;
7,39903701772845E-14;
5,69201627767142E-14;
1,869936115417E-13;
5,1774909240069E-13;
5,12797455731478E-13;
2,05745981951055E-13;
5,50096281894527E-13;
6,27217479400084E-13;
4,60447670982081E-13;
2,98927065448345E-13;
-2,05411757866096E-13;
6,72694940859302E-14;
1,95050881977201E-13;
-6,70362631223689E-14;
4,72300302646209E-13;
2,80239183273974E-13;
2,0720195631579E-13;
6,68990742376047E-13;
-1,79864867569711E-13;
-7,86659928615304E-13;
-3,68010250607257E-13;
6,33543596425072E-13;
1,03548603033776E-12;
-1,06049310432525E-14;
2,76315961505098E-13;
1,01065457300413E-12;
3,72324713325943E-14;
3,67053243458584E-13;
1,62451088368766E-12;
8,99476404610078E-13;
1,46673862589907E-13;
2,95520044402765E-13;
1,79102851283976E-13;
9,68602818577828E-13;
1,17066273975315E-12;
1,47723935038853E-14;
1,20076801067106E-13;
5,26817092071104E-13;
2,1699969956566E-13;
3,81966063359442E-14;
-1,9690295546007E-13;
1,46814614993002E-13;
8,39713803700706E-13;
1,16303691440178E-13;
2,58575598544277E-13;
1,15546518435225E-12;
2,92348925461446E-13;
4,7560319009149E-13;
7,99008833528353E-13;
3,12117951998893E-13;
8,77035527582997E-13;
4,34448537032257E-13;
-5,7589092365469E-14;
7,36643262833381E-13;
3,47218738346594E-13;
4,6088120904044E-13;
1,00341441629132E-12;
-1,65394720641226E-13;
2,31508239250534E-13;
1,17433718619318E-12;
5,23843732449262E-13;
4,58431825062845E-13;
6,81307909459754E-13;
4,54908736874868E-13;
2,92186531182142E-13;
3,94746975565793E-13;
3,6617344804548E-13;
7,34598175634385E-13;
7,90832380258089E-13;
3,80425592662427E-14;
-2,61521165054586E-14;
-3,40452548129394E-13;
1,11915640393764E-13;
5,63816842753823E-13;
3,98441017889364E-15;
1,01854768952941E-12;
8,0965110503017E-13;
-1,07183750396925E-13;
5,91029688542949E-13;
1,64523915121152E-13;
-3,50058554475762E-13;
-2,52201426871236E-13;
-2,05751826753877E-13;
2,47493977782363E-13;
2,90603808163188E-14;
-1,92302636016288E-13;
3,96069820281121E-13;
1,1126665838362E-12;
4,54444938736245E-13;
-7,09168740308411E-13;
-7,30499232566323E-17;
6,09300754945096E-13;
5,8568928606061E-13;
6,43261646329048E-13;
4,10304108268981E-13;
6,0123043748326E-13;
3,74175017854752E-13;
3,03287590251555E-13;
1,25724624678803E-12;
8,69237840684353E-13;
1,10187037829889E-13;
2,8721375873643E-13;
-6,41776020358271E-13;
-2,79869941567099E-13;
1,05035351510322E-12;
6,32263349573635E-13;
5,51413466342827E-13;
4,07515916305339E-13;
3,07371529090425E-14;
4,32757382055595E-14;
2,3858882427177E-13;
7,26319344192172E-13;
9,99335766482072E-14;
2,22033427326039E-13;
1,14212503699113E-12;
1,61401649088541E-13;
-1,92466647175423E-13;
2,32786489127371E-13;
-1,26775064207345E-13;
-1,51310148619532E-14;
1,01480608776833E-13;
3,60710389499633E-13;
5,15691301347074E-13;
-1,60022202778781E-13;
-2,27270944418611E-13;
7,96871008120872E-13;
1,09197695834497E-12;
1,72498899261592E-13;
-9,35427650707145E-14;
6,52152579765079E-13;
8,4024304793725E-13;
1,31828494729343E-13;
-3,2874168322052E-14;
-6,14277037460243E-14;
-2,04610468385217E-13;
-2,1588137855145E-13;
-2,86238459537458E-13;
4,25476802733151E-13;
8,59295216746099E-13;
8,25523669205757E-13;
3,90848831372522E-13;
8,10563455667359E-13;
1,63453841753767E-12;
1,43369051545211E-13;
2,19603580255313E-13;
9,19595565438945E-13;
7,60220600532631E-14;
6,80679479103189E-13;
7,30728488955353E-14;
-4,84046555978587E-13;
7,79792151399039E-13;
3,20327211230295E-13;
-1,75308886960864E-13;
2,65424800806222E-13;
6,45277095215743E-13;
6,00671389188309E-13;
-1,63270594026235E-13;
5,86770779839229E-13;
7,80405205563763E-13;
-1,94048984989496E-13;
5,63667626137608E-13;
4,70410354241965E-13;
-1,00627762203047E-13;
3,81436008806597E-13;
5,64774021316905E-14;
8,46334397477289E-14;
1,1510370796653E-13;
-2,59953817574324E-13;
7,28811556919957E-13;
7,6380966451933E-13;
1,16220288776442E-13;
8,85443695797731E-13;
7,79586156576952E-13;
3,38453717490274E-13;
6,37429199684748E-13;
5,87708428606475E-13;
5,3876028835375E-13;
3,31708372462657E-13;
2,36926218165871E-13;
8,93633077519292E-13;
5,81813797339376E-13;
-5,64372987868933E-14;
5,22924246360097E-13;
6,78208387878462E-13;
1,02047277009766E-12;
5,90183322062907E-13;
-5,05136747563358E-13;
7,41616175698073E-13;
7,22597139904096E-13;
-5,30755933208111E-13;
6,26147462561194E-13;
1,03361347350643E-12;
5,91935140193073E-14;
5,71251434752528E-13;
1,22125378068863E-12;
4,16763274702711E-13;
1,58475209641162E-13;
5,42469147791092E-13;
3,34364649488928E-13;
5,27159830850999E-13;
5,40429940912044E-13;
4,09668127940486E-13;
7,4952237728363E-13;
8,49629459843622E-13;
7,33593996660833E-13;
2,30258261053745E-13;
1,48476212844254E-13;
4,00124169235547E-13;
5,89194879981019E-13;
6,30634654890288E-13;
5,32624189369947E-13;
8,45362167319656E-13;
8,76967615690986E-13;
9,36184025204816E-13;
3,34905065816126E-13;
-1,16073767595613E-13;
6,37268559797443E-13;
5,64785731053555E-14;
-3,27637218940309E-13;
7,47641806716522E-13;
7,25505936657061E-13;
4,65838443538103E-13;
4,8017214654111E-13;
-2,41111269115293E-14;
6,05783048231881E-13;
9,33165698069804E-13;
-2,03978180756373E-13;
9,14769264169895E-14;
6,7070760097345E-13;
-1,4729537200859E-13;
-9,91265296085092E-14;
2,91481823358897E-13;
4,83028023610409E-14;
3,50935195182059E-13;
2,7294583112803E-13;
3,25288852363783E-14;
2,78923839359238E-13;
-2,84541337656285E-13;
-4,97664056382981E-13;
1,57698599202075E-13;
1,98721808971929E-13;
2,64290619462518E-13;
2,47356330033305E-13;
-4,0797293906466E-13;
-5,49009850862275E-13;
-2,52864804155162E-13;
2,68893746680173E-13;
7,11448156551381E-13;
1,03819265207811E-12;
8,61334949398693E-13;
6,22994525714394E-14;
5,26018983052219E-13;
2,56331708330812E-13;
-1,15108316578266E-13;
8,97966015522109E-13;
2,74147656911594E-13;
5,60835636061668E-13;
1,3086282337724E-12;
3,360187538363E-13;
9,44879177398511E-13;
1,02446265143428E-12;
-5,18906673941005E-13;
-4,67436922596887E-13;
3,92055736222592E-13;
6,11749803124151E-13;
2,88854006980446E-13;
4,65707181702035E-13;
9,85122166251628E-13;
4,77764178887575E-13;
-1,61764222902749E-13;
2,54351608984492E-13;
1,26131437166302E-12;
1,26373531988013E-12;
7,94823845515756E-13;
6,68095069336301E-13;
4,59566293311522E-13;
1,25755409830815E-12;
1,31978520171089E-12;
5,30999825648122E-13;
3,53946806221696E-13;
1,61740407159284E-13;
7,75516941317654E-13;
5,18612534117098E-13;
2,77396350814722E-13;
8,04627653366924E-13;
4,52357215548741E-13;
7,34868326310639E-13;
1,56574088231098E-13;
-1,40806974077592E-13;
5,72963867858251E-13;
4,4095837365153E-13;
7,95559487240436E-13;
1,91732814264965E-13;
-1,65386454020036E-13;
4,30224568774834E-13;
1,61842399593199E-13;
5,16370210088485E-14;
2,76700757654621E-13;
4,35283292605765E-13;
1,42422529367625E-13;
3,78142357763793E-13;
2,05485420350252E-13;
-1,91306088109544E-13;
5,59015638112083E-13;
6,97773375588349E-13;
6,70092542027081E-13;
5,84628427920096E-13;
1,8283919468587E-13;
-2,13668593615202E-13;
-9,7961744050245E-15;
5,19300759348555E-13;
3,96414304921927E-13;
1,06669956713203E-12;
9,03410915432997E-13;
-7,4000101554367E-14;
3,71926202932083E-13;
2,37209739961038E-13;
-1,34249839228646E-13;
5,7527291947392E-13;
4,7325736358826E-13;
1,33458202107957E-13;
8,86255909120879E-13;
6,53956689224422E-13;
7,91910510579355E-14;
1,31248008286439E-13;
-3,80095427706873E-13;
2,73369502172459E-13;
1,21137918736849E-12;
8,82796570178483E-13;
9,43606144868547E-13;
7,7452784436113E-13;
3,32791122890291E-13;
2,59530307168728E-13;
3,86262500510258E-13;
6,71754083896354E-13;
7,46547978596071E-13;
1,00181698298086E-12;
5,35559020405918E-13;
5,13155933462035E-14;
4,66192137598528E-13;
9,03227537255458E-14;
1,7212332312823E-13;
5,40274888627067E-13;
6,93913374454223E-14;
3,58049309797595E-13;
7,05880357311798E-13;
7,1339844602112E-13;
2,86609831739077E-13;
-1,83366130739863E-13;
3,88146602684703E-14;
4,75670649365287E-13;
5,36566201470329E-13;
-7,13100832706531E-14;
8,75701530547258E-13;
1,09441805871888E-12;
-3,80598100491648E-13;
-1,02061966981646E-13;
2,75389987708121E-13;
5,60185088803302E-13;
8,6999970128775E-13;
4,31126559200913E-13;
5,86947553807023E-13;
6,75457542527425E-13;
7,7775274766815E-13;
9,34861095769699E-13;
1,91300592884711E-13;
6,10835062636184E-14;
6,2399747758838E-13;
6,91199483142958E-13;
8,15941972610931E-13;
6,59964225283179E-13;
5,36561984867037E-13;
7,44819533350279E-13;
5,75348179425012E-14;
-1,84524117912773E-13;
2,27753336616606E-13;
5,81773355623695E-13;
1,06158002260622E-12;
3,31273018763026E-13;
5,06850172586622E-14;
3,59534344917304E-13;
3,57282158137625E-14;
2,95518609145001E-13;
5,29394109706896E-13;
5,19950660335113E-13;
5,36282629317162E-13;
6,91287695583353E-13;
4,05861292290685E-13;
-2,22124584443893E-13;
1,0761445712802E-13;
1,26926942837833E-13;
-1,78301157824752E-13;
2,38440188445471E-13;
4,5768310336149E-13;
1,22030795744556E-13;
2,32197946397911E-14;
4,13851181756295E-13;
3,14996947874673E-13;
6,00123092856503E-13;
9,22110397982169E-13;
-9,70818872646925E-14;
3,05875007042976E-13;
1,16129321936591E-12;
1,26703768138739E-13;
4,0686391362641E-13;
1,34174842702375E-12;
6,2179304448706E-13;
6,39162885713238E-13;
8,94623382885564E-13;
3,71715978913311E-13;
7,67266030952406E-13;
7,62032287640761E-13;
3,30753470385082E-13;
4,64328488451301E-13;
1,93586449547379E-13;
8,58897971253961E-13;
1,22827858970924E-12;
5,59408957060291E-13;
7,72262459050961E-13;
8,53609851974559E-14;
5,76229879230058E-14;
7,08689402102311E-13;
-4,27856372761818E-13;
-3,00006362522397E-14;
6,41434763777611E-13;
-2,67930930165553E-13;
4,19780540178847E-13;
7,08797917131129E-13;
-3,05135876330708E-13;
6,41332024003254E-13;
1,05641819258729E-12;
1,80118029221287E-13;
7,28238305626113E-13;
3,40881427397772E-13;
-4,32273074840253E-13;
8,72802313007621E-14;
8,43695954521017E-13;
1,5462724296574E-12;
4,29007509707116E-13;
-4,23171054703025E-13;
2,52921336321665E-13;
8,71238782706122E-13;
1,80572220958385E-12;
9,7641970510359E-13;
-2,35623857861684E-13;
1,17319423168208E-13;
3,36453205679419E-13;
5,18995462054681E-13;
4,14049249634494E-13;
6,13993389712346E-13;
8,68206499676103E-13;
3,92490928867488E-13;
5,56888395889722E-13;
2,87346214203897E-13;
4,17384690687199E-14;
7,76325960757216E-13;
2,32975716213314E-13;
1,90315840537826E-13;
8,02947147486053E-13;
2,89844559217452E-14;
5,30423522825734E-13;
1,4270026240405E-12;
2,28048692280141E-13;
-2,46326259783985E-13;
4,16269402355383E-13;
2,63131146470957E-13;
5,52170649180165E-13;
6,69041515004276E-13;
3,01274228975295E-13;
8,77993372462302E-13;
9,06243913653022E-13;
2,18591003252686E-13;
4,14746965915344E-13;
3,35692543627268E-13;
-4,09067866955115E-13;
5,00760566612348E-13;
1,26846820948997E-12;
3,43453496868451E-13;
2,549192411413E-13;
4,83146817454042E-13;
4,58136562862653E-13;
1,17396411670376E-12;
9,74387156411215E-13;
2,36358812233423E-13;
9,7151566252501E-13;
8,26508622947957E-13;
5,23938194386645E-14;
4,62760577204909E-13;
5,73129632006152E-13;
5,34385386408439E-14;
-8,14275748643794E-13;
1,64743801945161E-14;
1,24575249971811E-12;
6,37758892122499E-13;
4,40711144568878E-13;
1,86206807190964E-13;
2,56646567774857E-13;
5,7804760421666E-13;
1,10397644951445E-13;
7,59359802053665E-13;
1,05497668476231E-12;
3,03853996456667E-13;
-9,2953464304426E-15;
-1,06348246098087E-13;
5,33944588576701E-13;
3,32480204575965E-13;
-5,50006480215066E-13;
3,76200666940689E-14;
4,28366019830957E-13;
1,5773451610449E-13;
-2,49410687974651E-13;
1,10172781520407E-13;
8,62950806127143E-13;
1,532825106019E-13;
2,93569762499948E-14;
4,544211023184E-13;
3,41951912909488E-13;
4,9373898072325E-13;
-2,21553854654907E-13;
-1,59225968719402E-13;
1,04726144663111E-12;
5,60225286629129E-13;
4,89360912975534E-13;
3,89347966465982E-13;
-1,05362461424594E-13;
1,19202536730699E-12;
7,01009624194536E-13;
1,58597732670796E-13;
6,41398307629869E-13;
-1,44111181279882E-13;
1,42056856145656E-13;
3,9355519738174E-13;
5,70968162303786E-13;
3,7431764001114E-13;
2,67081980619787E-13;
1,43179131094077E-12;
5,64797960047897E-13;
2,2046640579012E-13;
8,01036154038063E-13;
4,33533151150156E-13;
1,1257318407832E-12;
6,78595764648623E-13;
-1,71565269582342E-14;
5,92753834996364E-13;
6,90737356452157E-13;
3,48930970330038E-13;
-1,37993838765994E-13;
-1,7897218421232E-13;
1,24447330974323E-13;
7,43617178883427E-13;
1,04785853455367E-12;
4,25168457669428E-14;
-3,86382576388179E-13;
6,31033284248945E-14;
-1,02189271784707E-14;
3,01272874200736E-13;
7,52892001109988E-13;
3,34513019653856E-13;
8,63762922210019E-14;
4,7728233371276E-13;
5,55582235581527E-13;
3,05954975181025E-13;
3,44613789656906E-13;
8,02056031741703E-13;
1,29591724262804E-12;
7,08685462589241E-13;
-4,98238509652554E-14;
-5,95218475837473E-14;
-1,08324708998484E-13;
1,75898412923698E-13;
9,87926815160296E-13;
9,62789922026618E-13;
-1,35250926582679E-13;
-2,95010124856542E-13;
9,91554567728072E-14;
3,62224498745331E-13;
5,25840901628249E-13;
-2,92524534657105E-14;
7,83726613605958E-14;
1,61427510972333E-13;
2,58894849690455E-13;
1,26182394315231E-12;
8,5551368991475E-13;
8,77075198269934E-14;
6,72420505613668E-13;
1,35401986961317E-12;
1,20357124450371E-12;
1,41466433814004E-13;
-3,15860526329745E-14;
5,42984294062961E-13;
1,56858087168483E-13;
4,78391381025068E-13;
1,09151898256209E-12;
4,8378528774605E-13;
2,75492938033451E-13;
1,30298531121448E-13;
3,0434737931537E-13;
5,40217583927217E-13;
-9,49374869449094E-14;
5,33129285536168E-13;
5,18779935383509E-13;
-6,29271834023225E-14;
8,00309324079703E-13;
4,87673552893755E-13;
5,73426021354359E-13;
1,09660221768423E-12;
4,13213452353097E-13;
5,47119935980082E-13;
6,65189263362741E-13;
5,87296610896826E-13;
6,80006750335694E-13;
6,52730157958175E-13;
5,88860832432936E-13;
4,41649125982054E-13;
4,82623500339624E-13;
2,89661116059673E-14;
5,75261344172871E-13;
1,00838392165762E-12;
-1,94327979334527E-13;
3,22185436700538E-13;
5,73284465967633E-13;
-6,78857272139867E-13;
-2,60502434608678E-13;
1,56940920521053E-13;
1,67862031577525E-13;
3,34725000711769E-13;
5,67224864458832E-13;
1,15100800280287E-12;
4,31263310922271E-13;
2,04062578110599E-13;
6,09317281232349E-13;
-6,78960745008982E-13;
-7,74548095662502E-13;
1,00539159405537E-12;
1,00570618556457E-12;
3,95932961216819E-13;
5,91864117587777E-13;
-1,66511518388054E-13;
2,22457186780821E-13;
7,05649222038737E-13;
-1,28416118633285E-13;
1,08216185660981E-12;
8,21790440504151E-13;
3,14012701995638E-14;
1,26073626398033E-12;
3,47037131750838E-13;
1,43646574197486E-13;
3,07652044868419E-13;
2,4891548733168E-13;
7,52711868191743E-13;
-2,95424591605996E-13;
2,77128591410215E-13;
7,21544520077669E-13;
1,7405961351043E-13;
5,56912306301141E-13;
1,40542756955397E-13;
4,94225885999255E-14;
7,0704112904622E-13;
7,83768962651349E-13;
8,40207020469795E-13;
6,17441366248917E-13;
5,43744210058425E-15;
8,2029084968362E-13;
5,6356621842107E-13;
-4,07635203958773E-13;
3,09181137933199E-13;
1,75130305664293E-13;
4,07728384623792E-13;
3,09599226762148E-13;
-9,53477026735613E-14;
6,84457981093664E-13;
5,00510572240839E-13;
9,45617402748222E-13;
5,84931819760908E-13;
4,58982999086333E-14;
1,40167432332591E-12;
4,09274001620459E-13;
-2,66871773992665E-13;
6,27151126079386E-13;
1,42342989038207E-14;
3,44650491234017E-13;
7,60667243368809E-13;
3,05139759871746E-13;
6,47646462193328E-13;
7,50409170905257E-13;
3,12431071029691E-13;
3,26753637154988E-13;
7,81261226910605E-13;
9,14659294362724E-13;
1,16216936577846E-12;
8,11069272849262E-13;
-1,4704794555784E-13;
2,37414543989421E-13;
9,21603069837731E-13;
5,73746202797735E-13;
-1,32356630908476E-13;
7,19405033206585E-14;
5,18717886794883E-13;
1,70052085342931E-14;
-3,34057350165276E-13;
-6,63717895686688E-14;
2,2500413927838E-13;
-3,433269373186E-14;
4,64888186463799E-14;
3,91116805072016E-13;
-5,63294125245546E-14;
2,21444478137087E-13;
1,18066924318838E-12;
1,22588005150302E-12;
4,89594944864323E-13;
4,2178509393265E-13;
6,45140345350908E-13;
7,211893918698E-14;
2,22105061723121E-13;
7,28573802870591E-13;
4,42089067025427E-13;
-6,61461805865793E-14;
-2,49040603585197E-13;
5,198438141074E-13;
8,11578125081903E-13;
3,87966893700563E-13;
5,98134259217687E-13;
3,22358677482117E-13;
3,67928221838294E-13;
9,1560099784546E-13;
1,88681606524362E-13;
2,74873392632167E-13;
9,90955108781425E-13;
2,54950269117953E-13;
-3,05314591059038E-13;
-4,80209384332635E-13;
-2,02745483751275E-13;
3,90929654662835E-13;
3,79337823581959E-13;
1,01243839742017E-12;
6,83491174244246E-13;
-1,36587611984445E-13;
3,3355487992596E-13;
1,58145115395834E-13;
9,08743832559573E-13;
1,19535867413994E-12;
-2,27593809680307E-14;
2,51566548431357E-13;
3,98332191664368E-13;
6,09770292340704E-13;
5,3488233537778E-13;
-4,0321696611927E-14;
7,71379035757284E-13;
6,53715168914197E-13;
1,86676244548837E-13;
4,65909083491407E-13;
2,02969554549259E-13;
2,69688857657974E-13;
2,75420570430975E-13;
-6,03017397622852E-14;
-3,34836485894495E-13;
-5,30369109346237E-13;
-1,11380611157498E-14;
5,54634201932574E-14;
-2,38146688552579E-13;
1,56693034490814E-13;
-1,36821830565062E-13;
-3,46940502540199E-14;
2,34785438924972E-13;
-6,43516651365907E-13;
1,26454477519735E-13;
9,77954284533754E-13;
-6,42695187048475E-14;
-2,74142674481242E-13;
-1,80146604983156E-14;
-4,82621560170055E-14;
7,65929488530124E-13;
7,87051737823892E-13;
-5,56828404791005E-14;
8,1671825921644E-13;
1,3698822800829E-12;
3,57252105685491E-13;
4,75410507083254E-13;
7,71200636462262E-13;
7,06222838929306E-13;
1,13016309284337E-12;
1,08624504496264E-13;
-3,13272605154764E-13;
1,13266430092613E-12;
6,3620835570106E-13;
-9,73188227698761E-14;
7,34867199173444E-13;
3,67837537249464E-13;
-1,92666110187479E-14;
1,74180395687645E-13;
-1,88478362863287E-16;
2,34311395941146E-13;
2,48142519037147E-14;
-6,6422081433116E-14;
4,90587492009177E-13;
1,06510107145642E-12;
1,33949624259514E-12;
5,14376639782163E-13;
1,01179383625996E-13;
4,25282442832081E-13;
9,69872683571598E-14;
-3,97873657866555E-13;
1,88099864081421E-14;
8,59004126555956E-13;
3,3599787124736E-13;
1,36650969814609E-13;
0,00933343404719487;
0,0226297298255974;
0,016372737275736;
0,0094330961775193;
0,0121693917863451;
0,00702616733145235;
0,00563481712993433;
0,00458271005365973;
0,000840500091048956;
0,00103239237252763;
-0,00119043949535177;
-0,00199195265725317;
-0,00280713693520929;
-0,00455368131983889;
-0,00488732499856281;
-0,00585590070793578;
-0,00594121727311037;
-0,00618248832199132;
-0,00699357666745293;
-0,00792070354792064;
-0,00934888799469638;
-0,0102428887110722;
-0,0105184993935757;
-0,0101085231423728;
-0,00920766466636633;
-0,00843029680137438;
-0,0078304341678639;
-0,00745747149694087;
-0,00704805327923213;
-0,00641867706884017;
-0,00567545363226643;
-0,00495848727260227;
-0,00445308141388948;
-0,00409076741055854;
-0,0036638258681674;
-0,00302656743757428;
-0,00222823254433191;
-0,00157282907423366;
-0,00136107645971648;
-0,00166524557367205;
-0,0022257254220834;
-0,00258706177289871;
-0,00240676232099006;
-0,00165718471554556;
-0,000624734014458804;
0,000316669697926816;
0,000963663523208658;
0,00137586886856344;
0,00176513174783893;
0,0022784619315746;
0,00287371183676694;
0,00337820905251843;
0,00366494227489748;
0,00378442559160418;
0,00392474763677905;
0,00423344806275921;
0,00465410314802331;
0,0049291294854103;
0,00478539611565064;
0,00416205590807447;
0,00329839411598836;
0,00260120493693885;
0,00238404675898061;
0,00267133447142817;
0,00320917063065535;
0,00366539555852783;
0,00385876826773279;
0,00384594464807997;
0,00381730502360409;
0,00390618887411939;
0,00407638930719057;
0,0041746199572911;
0,00408914816331526;
0,0038659385114433;
0,0036739507746743;
0,0036455193566012;
0,00373088376156567;
0,00370125625875367;
0,0033139489390134;
0,00251555483962795;
0,00151956437348668;
0,000688088782554754;
0,000299921507144203;
0,000376496335422975;
0,000692035009893282;
0,000951432382413706;
0,000993755271002156;
0,000869183490250023;
0,00074630464974371;
0,000742935836275131;
0,000826535917814713;
0,000860914881456122;
0,000746775454518939;
0,000524376747105018;
0,000342641815004002;
0,000317918804818864;
0,000405552501769585;
0,000402860404428811;
9,51196661639087E-5;
-0,00056518094902502;
-0,010723616487819;
-0,0246910037827052;
-0,0187063544875069;
-0,0116223592942159;
-0,0139972387359175;
-0,00853592289745059;
-0,0070119212722099;
-0,00596902286070989;
-0,00223033989622449;
-0,00231727179425046;
8,97661344012262E-5;
0,00103463609698237;
0,00186474291533994;
0,00353260259842175;
0,00382392664450568;
0,00488786326941172;
0,00516656254273732;
0,00552145619940899;
0,00617835279670633;
0,00664177265164359;
0,00746064874633168;
0,00787759597660058;
0,00802158625577037;
0,00784053012523299;
0,00735462448654059;
0,00695105593288408;
0,00655991790473839;
0,00626843174527336;
0,00594145075917171;
0,00548465812323465;
0,0143119848027228;
0,0270885264172433;
0,0204073741038251;
0,0131009298186397;
0,0154327460753735;
0,00978940226257325;
0,00781708698112887;
0,00625326001469129;
0,00220672440355324;
0,00233815301052327;
0,000181031774313927;
-0,000643909190018785;
-0,0017301462035323;
-0,00401009751926718;
-0,00500365950218189;
-0,00658048386930688;
-0,00712556431334083;
-0,0077049376836941;
-0,00883382180428707;
-0,0101286481438284;
-0,0212876402117636;
-0,0358218600729522;
-0,0300690052930379;
-0,0228568532978479;
-0,0248299787571654;
-0,0191195564016635;
-0,0173839732934503;
-0,0161339599518751;
-0,0119424269594417;
-0,0112194527416697;
-0,00784003458398644;
-0,00598191986846842;
-0,00455197283706966;
-0,00257749253895832;
-0,00206941050279096;
-0,000668593501289036;
0,000148323479501156;
0,00108801003845436;
0,00216728378691332;
0,00279205790658813;
0,00362463259292783;
0,00416267615597941;
0,00472123670888192;
0,00523714315953958;
0,00553177403664304;
0,00577694527864464;
0,00584823025214651;
0,00597241577305781;
0,0062237900642363;
0,00659404744730846;
0,00703632934157968;
0,00732881571985862;
0,00738302745027637;
0,00716862218899649;
0,00678384124213958;
0,00638581278037768;
0,00605250570506473;
0,00580383575595107;
0,00557761360694438;
0,00532205459807422;
0,00503381209648878;
0,00473704170129477;
0,00445626035129817;
0,0041666798563904;
0,00382026034230263;
0,00339538027336835;
0,00293804630821982;
0,00255564525474594;
0,00234442422854517;
0,00231745740650133;
0,00237809059207416;
0,00237029966374406;
0,00217363522469225;
0,00177283039958796;
0,00125902920795674;
0,000761903532210115;
0,000367753452975379;
8,1336310749125E-5;
-0,000149596544616874;
-0,000375597343544865;
0,00872731887296195;
0,0218119173256761;
0,0153772834152734;
0,0082715872236479;
0,0108074799991256;
0,00540843485778824;
0,00374872660222914;
0,00251166117922783;
-0,00124482283554156;
-0,000887087579655492;
-0,00285474985271787;
-0,00345622582987557;
-0,00423889505747287;
-0,00613564789418061;
-0,0067202925064344;
-0,00792293339112985;
-0,00814677693068322;
-0,00842693823426354;
-0,00922527778699899;
-0,0101353200346517;
-0,0208859901529928;
-0,0350523751067057;
-0,0290221086041445;
-0,0216200157263982;
-0,023441217115724;
-0,017563222570609;
-0,0156319003382337;
-0,014196743935937;
-0,00988623087522568;
-0,00913337276408415;
-0,00577881978980423;
-0,00393063054523368;
-0,002441681056216;
-0,00033995417279843;
0,000312242504121275;
0,00181549864652748;
0,00267435719266867;
0,00362863620925213;
0,00474862891484458;
0,0054654046466879;
0,00641333653462243;
0,00702879925528026;
0,00758011943996503;
0,00800838926227758;
0,00818494395579109;
0,00833474821937008;
0,00834536245000897;
0,00840527065664333;
0,00853422367512923;
0,00870249594709942;
0,00889870013852354;
0,00897132304366595;
0,00888631841252956;
0,00861315332764377;
0,00819935337835608;
0,00774376716031645;
0,00730496951746128;
0,00693469985336361;
0,00662292745332947;
0,00634278468464701;
0,00606424848368733;
0,00575232576622949;
0,00538649502100271;
0,00494628719368546;
0,00443195663086908;
0,00387267316845683;
0,0033247784078192;
0,00285711892772919;
0,00251213234453813;
0,00228202385497725;
0,00210513764481281;
0,00189441796460094;
0,00158260368543121;
0,00115394070359822;
0,000649429175704179;
0,000140886474134742;
-0,000305575493888707;
-0,000655500826492785;
-0,000911320701068016;
-0,00109968027446982;
-0,00125566330138436;
-0,00141278085533167;
-0,00159908649238374;
-0,00183300854057841;
-0,00211449878449435;
-0,00241671689627258;
-0,0026881133021256;
-0,00287103001457925;
-0,00293066794374298;
-0,00287773287723104;
-0,00276891502952062;
-0,00268178324254146;
-0,00267727552355139;
-0,0027712173985076;
-0,0029304906293115;
-0,00309388195246061;
-0,00320318413419895;
-0,0032266220086649;
-0,00316484806461187;
-0,00304222263156474;
-0,00289336788735985;
-0,00275303344533028;
-0,00265014733389515;
-0,00260207147805509;
-0,00260697422387726;
-0,00263835289981344;
-0,00264922067474475;
-0,00258951551980712;
-0,00243073682979463;
-0,0021841324260627;
-0,00189991446857838;
-0,00164550930024878;
-0,00147392113910329;
-0,00139971785073547;
-0,00139536261488164;
-0,00140807815114504;
-0,0013858866665698;
-0,00129832208973375;
-0,00114337910469038;
-0,000941876587034076;
-0,000726380712906306;
-0,000531052493722885;
-0,000384005383764347;
-0,000300435534335797;
-0,000276014698866954;
-0,000283946995490334;
-0,000280824068354772;
-0,000222779871202537;
-8,61775751777788E-5;
0,000118232280092189;
0,000347113890507036;
0,000543186713085223;
0,000661486708839605;
0,000689286860293275;
0,000649587365676124;
0,000587823049737308;
0,000550443862720428;
0,000566773821777258;
0,000641363246601763;
0,000756965210937559;
0,000883465282700107;
0,000987904180485036;
0,00104342785880031;
0,00103700259232325;
0,000975076733207662;
0,000884362137827654;
0,000804669622589108;
0,000774038041968618;
0,000811653256236592;
0,000907268308158326;
0,00102383289991944;
0,00111326341121587;
0,00113782670560187;
0,00108634761305009;
0,000977501566384385;
0,000849706458643034;
0,000743883516893695;
0,000687733323242591;
0,00068761528098392;
0,000729254604616068;
0,000784745363789893;
0,000822319933420214;
0,000816265968369648;
0,00075524054297956;
0,000647062064285932;
0,000517673414639296;
0,000402986329972444;
0,000335300553722312;
0,000329488369570271;
0,000375563727187071;
0,000441967437396191;
0,000488707606498442;
0,000484352376300457;
0,000418895582104014;
0,000306837161655595;
0,000179888062586714;
7,34814102565787E-5;
1,33007054682921E-5;
6,88150818089631E-6;
4,24078596274869E-5;
9,40000203301154E-5;
0,00013112987796233;
0,000129204305373717;
7,82621067234246E-5;
-1,30295766897633E-5;
-0,000119917996830726;
-0,00021043214803991;
-0,000257688236811683;
-0,00025077280901451;
-0,00019943062738427;
-0,000130277892583456;
-7,60527399900575E-5;
-6,25440722212954E-5;
-9,87099708490981E-5;
-0,000173820089677954;
-0,000262290527584665;
-0,000333837735092873;
-0,000364869690343016;
-0,000346995499659956;
-0,000289812171019451;
-0,000217131100996511;
-0,000157996700644537;
-0,000135698630781571;
-0,000158879420248343;
-0,000218260691569317;
-0,000290409246431534;
-0,000347072661286806;
-0,000366240658129639;
-0,000340417562753525;
-0,000278946902896389;
-0,000203859481669299;
-0,000141280649227096;
-0,000111831301394889;
-0,000123388093473433;
-0,000168454667435155;
-0,00022686758379604;
-0,000273011435743484;
-0,000285303123711173;
-0,00025467165389752;
-0,000188630986445595;
-0,000108830314437258;
-4,25672525617939E-5;
-1,16207517108681E-5;
-2,3322951742177E-5;
-6,79365877650971E-5;
-0,000123390243419967;
-0,000164871490824304;
-0,00017468809089899;
-0,000148236470595596;
-9,43146299019758E-5;
-3,07241286695568E-5;
2,23934396213063E-5;
4,91099868550244E-5;
4,26338156546397E-5;
7,70797925004009E-6;
-4,02746557417279E-5;
-7,99215906805979E-5;
-9,15907105153399E-5;
-6,57221730609884E-5;
-7,92948985456114E-6;
6,23054383872819E-5;
0,00011958146406247;
0,000143733928549865;
0,000128664590611771;
8,43824216626567E-5;
3,15261677556914E-5;
-8,30600710308524E-6;
-2,12713487004673E-5;
-5,23663867724804E-6;
3,15976048006854E-5;
7,52383912500509E-5;
0,000110853319474378;
0,000126680138773657;
0,000116938354948966;
8,39992756146396E-5;
3,90380652235448E-5;
-4,01445218196794E-7;
-1,65919371147061E-5;
2,90433100943549E-7;
4,62959420515218E-5;
0,000104028256822435;
0,000150027831240431;
0,000165756916582485;
0,000146220570085999;
0,000101492083449501;
5,06940457892821E-5;
1,24028776236985E-5;
-2,98114513082026E-6;
4,55490897810206E-6;
2,74064964486619E-5;
5,49480961146063E-5;
7,69837146365055E-5;
8,5386762872982E-5;
7,52852595353607E-5;
4,70085257548978E-5;
8,0161132718326E-6;
-2,76474480730194E-5;
-4,41374861365449E-5;
-3,15735460307625E-5;
7,52313622131011E-6;
5,77323734982606E-5;
9,75373752897903E-5;
0,000110008038847601;
9,11231897194288E-5;
5,08435015718158E-5;
6,72668529740424E-6;
-2,54669692545295E-5;
-3,83869189387724E-5;
-3,38130734662818E-5;
-1,87586443262952E-5;
-8,92896788135631E-7;
1,36024766158282E-5;
1,97496061588086E-5;
1,34965543352608E-5;
-6,55213789583802E-6;
-3,61660063741659E-5;
-6,44435890664321E-5;
-7,73549845180367E-5;
-6,51232711903466E-5;
-2,90440061710748E-5;
1,73340158970878E-5;
5,44256582819444E-5;
6,6885617256198E-5;
5,15608320869968E-5;
1,81698388782906E-5;
-1,72957613615663E-5;
-4,16621852057351E-5;
-5,02391570808124E-5;
-4,6282938447307E-5;
-3,62114978734667E-5;
-2,51086346552062E-5;
-1,57045510205661E-5;
-1,02657725163912E-5;
-1,20946500642087E-5;
-2,40058694929734E-5;
-4,45295060619145E-5;
-6,55495218474538E-5;
-7,4754385155048E-5;
-6,25905927704262E-5;
-2,93034187178466E-5;
1,33266027253558E-5;
4,76199493462839E-5;
5,97848091694501E-5;
4,74454327918165E-5;
1,99828115804435E-5;
-8,14722672512879E-6;
-2,6119851760895E-5;
-3,15333694513113E-5;
-2,88275806413087E-5;
-2,38246285993146E-5;
-1,93652771668883E-5;
-1,52444893505319E-5;
-1,14185661848129E-5;
-1,0506433808088E-5;
-1,64626045523101E-5;
-3,0143044261631E-5;
-4,58756032007517E-5;
-5,29603555466905E-5;
-4,21637399284111E-5;
-1,28426753648925E-5;
2,48783572490395E-5;
5,51755065215718E-5;
6,57609224268445E-5;
5,49477114244683E-5;
3,17027142959557E-5;
8,99150406329948E-6;
-4,47976524065427E-6;
-8,25666781084248E-6;
-7,70351326518374E-6;
-8,0581575538747E-6;
-1,02410046099128E-5;
-1,15901502298202E-5;
-1,0124785823126E-5;
-7,84972444038808E-6;
-9,61309023401096E-6;
-1,82035267585857E-5;
-3,00759299092776E-5;
-3,60338754077483E-5;
-2,72446300422935E-5;
-2,32991408057106E-6;
3,01192690983062E-5;
5,60615437833801E-5;
6,46454214832601E-5;
5,4784572207683E-5;
3,49692790808035E-5;
1,67302070580581E-5;
6,8739057481906E-6;
4,21713149112751E-6;
2,69712044845163E-6;
-2,36179965056122E-6;
-1,02613893383537E-5;
-1,63225403036959E-5;
-1,69712215704257E-5;
-1,36684071942817E-5;
-1,19399815972682E-5;
-1,61531523958003E-5;
-2,45967380265806E-5;
-2,94683439550664E-5;
-2,24006494645673E-5;
-1,42155213457925E-6;
2,62843383924512E-5;
4,83690788678326E-5;
5,5338478063663E-5;
4,66227004819858E-5;
3,01887700956554E-5;
1,61982415430495E-5;
9,7677278460901E-6;
8,35810103786147E-6;
5,40659301751606E-6;
-3,22759512440318E-6;
-1,55040687557645E-5;
-2,51241114432985E-5;
-2,72316386122977E-5;
-2,28105943391132E-5;
-1,78740897411572E-5;
-1,80484427065606E-5;
-2,31841873067833E-5;
-2,67608068456992E-5;
-2,09233514035258E-5;
-3,2323760889279E-6;
2,04077634183835E-5;
3,92442956509847E-5;
4,50554697912836E-5;
3,77111541621826E-5;
2,46246678743468E-5;
1,46643887779058E-5;
1,14579696223922E-5;
1,13669456712663E-5;
7,50302750036973E-6;
-3,76910688571134E-6;
-1,93165410138775E-5;
-3,15759873360151E-5;
-3,46871338904375E-5;
-2,92185257454014E-5;
-2,15027184905958E-5;
-1,81382338284295E-5;
-2,02856063376979E-5;
-2,25925576173257E-5;
-1,77472678340495E-5;
-2,95451285860047E-6;
1,70385983957362E-5;
3,29703016481826E-5;
3,78030613194673E-5;
3,17770266385486E-5;
2,1735470839479E-5;
1,5336883604978E-5;
1,49106546006055E-5;
1,59505275450707E-5;
1,13943423309034E-5;
-1,91878935270495E-6;
-1,9987363187803E-5;
-3,42982794560943E-5;
-3,8233453110492E-5;
-3,20030420349191E-5;
-2,21134095703121E-5;
-1,58804823437068E-5;
-1,55445888843314E-5;
-1,68092069665336E-5;
-1,29231864540642E-5;
-8,3377580001133E-7;
1,57497069236976E-5;
2,89480302370048E-5;
3,28172139307756E-5;
2,79045190368477E-5;
2,04779543877917E-5;
1,7073450238904E-5;
1,89005774990529E-5;
2,07916632297748E-5;
1,56401610196572E-5;
7,26788668999094E-7;
-1,92784143259213E-5;
-3,51898601733095E-5;
-3,98491581546729E-5;
-3,31612344163558E-5;
-2,16820581877698E-5;
-1,32214899177168E-5;
-1,08915190250918E-5;
-1,13421758317205E-5;
-8,3898509069626E-6;
1,18941412200389E-6;
1,46087476205769E-5;
2,52603624723072E-5;
2,82018842809147E-5;
2,42301319368673E-5;
1,90415339378016E-5;
1,81384624721493E-5;
2,17758643153182E-5;
2,43066232834896E-5;
1,86885338574011E-5;
2,60978634338764E-6;
-1,87684583021494E-5;
-3,58303507084555E-5;
-4,10674576897636E-5;
-3,41288092566688E-5;
-2,15156784847892E-5;
-1,1337959439732E-5;
-7,39273540584224E-6;
-7,17175468604801E-6;
-5,05679791745083E-6;
2,27223841289903E-6;
1,28407278018229E-5;
2,12006972847908E-5;
2,33197435708834E-5;
2,01922993900807E-5;
1,69543789033006E-5;
1,81640302010184E-5;
2,32734437347535E-5;
2,63151489624644E-5;
2,04012472889917E-5;
3,59286105324478E-6;
-1,8613415648531E-5;
-3,63806100194913E-5;
-4,20147786619641E-5;
-3,49542566477091E-5;
-2,15592692601369E-5;
-1,00731740890514E-5;
-4,81209042962873E-6;
-4,00957752470682E-6;
-2,60286561693504E-6;
2,75999699170065E-6;
1,08125758641437E-5;
1,71564982219E-5;
1,85795057085817E-5;
1,62273708734664E-5;
1,4693187214662E-5;
1,76790430649031E-5;
2,3973121697408E-5;
2,7425437915463E-5;
2,13755979979683E-5;
4,22350019996104E-6;
-1,83339023379921E-5;
-3,64167143785352E-5;
-4,22859122815744E-5;
-3,52100747082433E-5;
-2,13381250056882E-5;
-8,90545716525645E-6;
-2,60059156775433E-6;
-1,3044043151248E-6;
-4,9313558962514E-7;
3,16280636277681E-6;
9,00790146651824E-6;
1,35860261385229E-5;
1,44181483742715E-5;
1,2760585918761E-5;
1,26861141259587E-5;
1,71272770899847E-5;
2,43340599424431E-5;
2,80921017890055E-5;
2,20266452888748E-5;
4,84304863671975E-6;
-1,76771827716363E-5;
-3,57609667016588E-5;
-4,1742421409588E-5;
-3,4757129217529E-5;
-2,06869784859023E-5;
-7,64107379541795E-6;
-5,5210284988554E-7;
1,14031180124866E-6;
1,44256084723261E-6;
3,61685860194903E-6;
7,52836926353945E-6;
1,05597804445895E-5;
1,08819948805382E-5;
9,82619981601911E-6;
1,09713301125315E-5;
1,65638658646924E-5;
2,44287063482573E-5;
2,83869814641234E-5;
2,23941988261828E-5;
5,42899308107766E-6;
-1,67406652500284E-5;
-3,45723054427909E-5;
-4,05711650777001E-5;
-3,37726430081898E-5;
-1,97488868213322E-5;
-6,38550329416165E-6;
1,2515601041568E-6;
3,24620054232719E-6;
3,11306068065922E-6;
4,01025856162569E-6;
6,24055753984994E-6;
7,92673190961402E-6;
7,81049891569431E-6;
7,26696848381114E-6;
9,41052453226381E-6;
1,58813369741625E-5;
2,41800075615451E-5;
2,82462486772272E-5;
2,23984765206983E-5;
5,85777889068464E-6;
-1,57032798798749E-5;
-3,30731661595433E-5;
-3,90079000864417E-5;
-3,24717584522675E-5;
-1,8695989677104E-5;
-5,26461753533131E-6;
2,71792392533188E-6;
4,93483463485335E-6;
4,43757677998556E-6;
4,25091970591261E-6;
5,03931546377895E-6;
5,57225651002147E-6;
5,08777498495798E-6;
4,9783460122519E-6;
7,92500090686057E-6;
1,5037079675817E-5;
2,35799076488881E-5;
2,76796200770586E-5;
2,20396815437426E-5;
6,09441139467801E-6;
-1,46461439267209E-5;
-3,13806200010316E-5;
-3,71789821153997E-5;
-3,09598683896135E-5;
-1,75925853569764E-5;
-4,29861494641279E-6;
3,8590373158161E-6;
6,23214442537556E-6;
5,43962295765511E-6;
4,35034198036548E-6;
3,92165444611893E-6;
3,48225067000711E-6;
2,69693913753154E-6;
2,95306788108693E-6;
6,53067450662361E-6;
1,40790891442352E-5;
2,27062664127518E-5;
2,67788970301167E-5;
2,13985234554176E-5;
6,18524207060241E-6;
-1,35671792442719E-5;
-2,95279472612106E-5;
-3,51293847102092E-5;
-2,92666058986442E-5;
-1,64346784860462E-5;
-3,44677794683707E-6;
4,74183689181226E-6;
7,2143509553134E-6;
6,18908260726437E-6;
4,36239769594347E-6;
2,92274396558697E-6;
1,67665772556697E-6;
6,51346454516116E-7;
1,21027841833411E-6;
5,26536109310151E-6;
1,30718327224813E-5;
2,16477576912123E-5;
2,56422442724481E-5;
2,05601594651499E-5;
6,18181264781074E-6;
-1,24571212759024E-5;
-2,75401833432545E-5;
-3,28974138093718E-5;
-2,74193530427323E-5;
-1,52220337947797E-5;
-2,67794520901605E-6;
5,41939419635553E-6;
7,9411191900105E-6;
6,73754384347722E-6;
4,32115062945619E-6;
2,05640602903339E-6;
1,52698742726594E-7;
-1,05950210148588E-6;
-2,55967568384475E-7;
4,13989487890309E-6;
1,20500713626414E-5;
2,04605249706832E-5;
2,43337803008047E-5;
1,95766608048448E-5;
6,10606672136576E-6;
-1,1331629063341E-5;
-2,54635014063808E-5;
-3,05412306013711E-5;
-2,54668170003753E-5;
-1,39788010148636E-5;
-1,98828686533631E-6;
5,91583002986391E-6;
8,44308408801583E-6;
7,1084281882294E-6;
4,23363071248613E-6;
1,31053792837762E-6;
-1,11722398075583E-6;
-2,46981124252021E-6;
-1,47454985363185E-6;
3,14212462667773E-6;
1,10246751537345E-5;
1,91757809237558E-5;
2,28928332960985E-5;
1,84777318624457E-5;
5,96229616522992E-6;
-1,02182851529118E-5;
-2,33512180805278E-5;
-2,81238227432594E-5;
-2,34629111325463E-5;
-1,27363688345965E-5;
-1,38328709438262E-6;
6,24501259986577E-6;
8,74108058947542E-6;
7,31673707378388E-6;
4,1000900694724E-6;
6,67818518611035E-7;
-2,164485649487E-6;
-3,61633641131053E-6;
-2,47619616962814E-6;
2,25784509835905E-6;
1,00033526760294E-5;
1,78203402523459E-5;
2,13542090540898E-5;
1,72905270228038E-5;
5,7563146179419E-6;
-9,13819833488725E-6;
-2,12461495000653E-5;
-2,56959811853716E-5;
-2,14502353788427E-5;
-1,1517302453333E-5;
-8,62221191878168E-7;
6,42543166484264E-6;
8,86029926120732E-6;
7,38246936436982E-6;
3,9267628475249E-6;
1,17855480835255E-7;
-3,01275870822452E-6;
-4,52766336284935E-6;
-3,28361943746238E-6;
1,47978885004618E-6;
8,99885602728359E-6;
1,64240962725121E-5;
1,9754916769604E-5;
1,60455257821746E-5;
5,50033642209706E-6;
-8,10216445018003E-6;
-1,91777259448809E-5;
-2,32941904959397E-5;
-1,94585280615157E-5;
-1,03342466855195E-5;
-4,17518050052339E-7;
6,48029316491312E-6;
8,82980618466762E-6;
7,32963707931443E-6;
3,7244549397996E-6;
-3,44583697511051E-7;
-3,6801406648696E-6;
-5,22674244183846E-6;
-3,91448110497562E-6;
8,04266345660429E-7;
8,02531417201352E-6;
1,50161261258433E-5;
1,8130050357866E-5;
1,4772085383237E-5;
5,20807305691351E-6;
-7,11607862309575E-6;
-1,71678145551204E-5;
-2,0946633674735E-5;
-1,75106612624095E-5;
-9,19580248621907E-6;
-4,05040575765604E-8;
6,43184776304078E-6;
8,67689158583273E-6;
7,18063996786244E-6;
3,50301729049473E-6;
-7,24949869737065E-7;
-4,18438250754471E-6;
-5,73600698854678E-6;
-4,38643207112342E-6;
2,26244859556756E-7;
7,09350957481437E-6;
1,36202204753064E-5;
1,6508519680047E-5;
1,34942371903535E-5;
4,89046779375377E-6;
-6,18531302618051E-6;
-1,5235142983888E-5;
-1,8677499549826E-5;
-1,5626621190823E-5;
-8,11007629022897E-6;
2,75439128342606E-7;
6,29854426664809E-6;
8,42446099379289E-6;
6,95388242296255E-6;
3,26921075463006E-6;
-1,03076613070197E-6;
-4,54446734676763E-6;
-6,07874152647324E-6;
-4,71829671431654E-6;
-2,61626559325249E-7;
6,21016566036843E-6;
1,22544554525667E-5;
1,49128592533407E-5;
1,22306014518473E-5;
4,5555309234434E-6;
-5,31505004482802E-6;
-1,33957254345139E-5;
-1,65073247379299E-5;
-1,38236063128126E-5;
-7,08444374892188E-6;
5,35436477894289E-7;
6,09581520244186E-6;
8,09195546836191E-6;
6,66478704147535E-6;
3,02784021863186E-6;
-1,2703654697494E-6;
-4,77927073650598E-6;
-6,27767462346373E-6;
-4,92860677018195E-6;
-6,67482952645991E-7;
5,37960566934237E-6;
1,09330053675685E-5;
1,3361118247631E-5;
1,09961910852247E-5;
4,20991797841068E-6;
-4,50899455969077E-6;
-1,1661818786774E-5;
-1,44520400787706E-5;
-1,21149781879323E-5;
-6,12430304321801E-6;
7,44537109517437E-7;
5,83757912862024E-6;
7,69685085694605E-6;
6,32725860208078E-6;
2,78317243630433E-6;
-1,45150923193824E-6;
-4,90618548657883E-6;
-6,35365174449137E-6;
-5,03434544410963E-6;
-9,98999279230997E-7;
4,60504289137391E-6;
9,66748511300669E-6;
1,18681958843967E-5;
9,80361252581303E-6;
3,85983681791017E-6;
-3,76883385095988E-6;
-1,00416716856381E-5;
-1,2522838179459E-5;
-1,05100889148996E-5;
-5,23277434446082E-6;
9,08149291275876E-7;
5,53673860317508E-6;
7,2551318380602E-6;
5,95408939843135E-6;
2,53927676025945E-6;
-1,58109678525945E-6;
-4,94089415891744E-6;
-6,32547373836892E-6;
-5,05082162895488E-6;
-1,26325929463224E-6;
3,8887658082131E-6;
8,46721789875614E-6;
1,04461230970659E-5;
8,66321368881013E-6;
3,51094403993888E-6;
-3,09464632153195E-6;
-8,54020230110485E-6;
-1,07269650887879E-5;
-9,01500451888771E-6;
-4,41124367085508E-6;
1,03167471498165E-6;
5,20490514294415E-6;
6,78103013715814E-6;
5,55666309383124E-6;
2,29969397582524E-6;
-1,66550849572675E-6;
-4,89773505863769E-6;
-6,21028114221866E-6;
-4,99205225355964E-6;
-1,46709418333935E-6;
3,23191110606912E-6;
7,33912560583625E-6;
9,10400692663763E-6;
7,58296643517904E-6;
3,16800751518388E-6;
-2,48551888888885E-6;
-7,15980519192114E-6;
-9,06858409412994E-6;
-7,63326768902056E-6;
-3,65992862192072E-6;
1,1201192086733E-6;
4,85214750630567E-6;
6,28683313591398E-6;
5,14476083753378E-6;
2,0672233342187E-6;
-1,71085503720137E-6;
-4,78996224715328E-6;
-6,02380434955888E-6;
-4,87098647994244E-6;
-1,617223333059E-6;
2,63444787479638E-6;
6,28783912842711E-6;
7,8482070289244E-6;
6,56857529491249E-6;
2,83484004983439E-6;
-1,93983370314873E-6;
-5,90083737246463E-6;
-7,54930733193261E-6;
-6,36633385425969E-6;
-2,97814535568862E-6;
1,17803818996082E-6;
4,48705606488766E-6;
5,78297153407819E-6;
4,72664874920597E-6;
1,84397960385886E-6;
-1,72293484918159E-6;
-4,62971170706259E-6;
-5,78035340814964E-6;
-4,69947325610432E-6;
-1,72014855448339E-6;
2,09539913338993E-6;
5,3160523324564E-6;
6,68274135150773E-6;
5,62382270816515E-6;
2,5144658414424E-6;
-1,45535206879751E-6;
-4,76187695302112E-6;
-6,16851863766689E-6;
-5,21382418614444E-6;
-2,3643738120489E-6;
1,20962825308412E-6;
4,11694482568045E-6;
5,27827706328998E-6;
4,30930042031344E-6;
1,63157563057009E-6;
-1,70709760174404E-6;
-4,4279204950517E-6;
-5,49274256369125E-6;
-4,48816868244153E-6;
-1,78200085180637E-6;
1,61310499544009E-6;
4,42488140628322E-6;
5,60969858385984E-6;
4,75091071000337E-6;
2,20927768628516E-6;
-1,02925891504127E-6;
-3,73995522519527E-6;
-4,92367173439399E-6;
-4,17374208509768E-6;
-1,81634863879742E-6;
1,21878815233956E-6;
3,7480251589434E-6;
4,78017426413434E-6;
3,89856738724089E-6;
1,43123168844777E-6;
-1,66820036783857E-6;
-4,19431320689798E-6;
-5,17230869252029E-6;
-4,24654774809292E-6;
-1,80848371311014E-6;
1,18538720033136E-6;
3,61413726985387E-6;
4,62953772113287E-6;
3,95070321636604E-6;
1,92112500486441E-6;
-6,58296796438223E-7;
-2,83084207957834E-6;
-3,81062926198265E-6;
-3,24276730178378E-6;
-1,33120387845071E-6;
1,20911901554375E-6;
3,38548678482743E-6;
4,29479793219593E-6;
3,49927554904509E-6;
1,24381627474187E-6;
-1,61062150174335E-6;
-3,93747696897416E-6;
-4,82900885092129E-6;
-3,98296470904687E-6;
-1,80486971103691E-6;
8,09638647497124E-7;
2,8825095207329E-6;
3,74132382464802E-6;
3,22290186033049E-6;
1,65134119596069E-6;
-3,38912322487167E-7;
-2,02934695267023E-6;
-2,82401228975451E-6;
-2,41654593680411E-6;
-9,05645320414819E-7;
1,18389346776399E-6;
3,03357215728873E-6;
3,82708878279611E-6;
3,11528478804378E-6;
1,06986581203335E-6;
-1,53829716573563E-6;
-3,66493976599135E-6;
-4,4715140491346E-6;
-3,70475017744932E-6;
-1,77602874132079E-6;
4,82918906383825E-7;
2,22775863756026E-6;
2,94294799557729E-6;
2,56622127377195E-6;
1,40079734820477E-6;
-6,73638870547941E-8;
-1,32955716340524E-6;
-1,95749376951037E-6;
-1,68993269915178E-6;
-5,36074688974107E-7;
1,14605500770546E-6;
2,6956551436726E-6;
3,38090970754621E-6;
2,74960122343297E-6;
9,09621906319051E-7;
-1,45475001268531E-6;
-3,38324226090033E-6;
-4,10730715055707E-6;
-3,41826635213854E-6;
-1,72641521436269E-6;
2,02037551840534E-7;
1,64688378424607E-6;
2,23134702434412E-6;
1,97856634238574E-6;
1,16995188873475E-6;
1,60175943393716E-7;
-7,25049667682216E-7;
-1,20404537637562E-6;
-1,05719178283942E-6;
-2,18683784271798E-7;
1,09822854214557E-6;
2,37434447672714E-6;
2,9591731128365E-6;
2,4044626379376E-6;
7,63090663301608E-7;
-1,36309045691319E-6;
-3,09799783809143E-6;
-3,74274953061681E-6;
-3,12896730595164E-6;
-1,66007035847009E-6;
-3,63435357345461E-8;
1,13630193056033E-6;
1,60270382673596E-6;
1,45719436246183E-6;
9,58920220009459E-7;
3,4756746076238E-7;
-2,09060234506259E-7;
-5,56141954718919E-7;
-5,12164397811714E-7;
5,04558993802996E-8;
1,04274712939675E-6;
2,07157465749039E-6;
2,5639597350478E-6;
2,08145199063773E-6;
6,30077412290458E-7;
-1,26603644633419E-6;
-2,8139512334772E-6;
-3,38317988878439E-6;
-2,84146750392526E-6;
-1,58062522119756E-6;
-2,3563775988263E-7;
6,92003687722015E-7;
1,05263343664886E-6;
9,98865835229682E-7;
7,67528990608522E-7;
4,98635316699188E-7;
2,2536771075408E-7;
-5,95840350519841E-9;
-4,84349618935269E-8;
2,75329771602298E-7;
9,81667753243206E-7;
1,78869274307653E-6;
2,19662765408008E-6;
1,78157290934967E-6;
5,10231228581126E-7;
-1,16593777717852E-6;
-2,53506068390625E-6;
-3,03299280157278E-6;
-2,5596033413132E-6;
-1,49131218637359E-6;
-3,99274124294441E-7;
3,09666821011075E-7;
5,76333248245734E-7;
5,99967784992047E-7;
5,95364652840862E-7;
6,17124963346306E-7;
5,85245492242979E-7;
4,54478527135703E-7;
3,40547403178678E-7;
4,59903531589282E-7;
9,16785395490387E-7;
1,52653273331974E-6;
1,85790659277949E-6;
1,50533357134923E-6;
4,03068107598401E-7;
-1,06480124568568E-6;
-2,26455764198963E-6;
-2,6957330311172E-6;
-2,28651384443738E-6;
-1,39499072487625E-6;
-5,3064300556472E-7;
-1,52199958849047E-8;
1,68717367038378E-7;
2,56622802315542E-7;
4,41812017313803E-7;
7,06645679911403E-7;
8,77525271330537E-7;
8,33138047542343E-7;
6,61337650057111E-7;
6,0807828571193E-7;
8,49654553180749E-7;
1,28549045019502E-6;
1,54799382348557E-6;
1,25281965776154E-6;
3,08009207311314E-7;
-9,64317284818873E-7;
-2,00502911484114E-6;
-2,37418423457225E-6;
-2,02470290521673E-6;
-1,29415850879897E-6;
-6,33055215421751E-7;
-2,87270284970978E-7;
-1,75463827409172E-7;
-3,52159573908959E-8;
3,06091177663652E-7;
7,7064811722812E-7;
1,10900890916611E-6;
1,13787627562626E-6;
9,20410334262112E-7;
7,23636327251447E-7;
7,81598227836062E-7;
1,06558451323344E-6;
1,26663830076321E-6;
1,02376340391492E-6;
2,243911049033E-7;
-8,65890918781085E-7;
-1,75847863230575E-6;
-2,07045311505818E-6;
-1,77611158824371E-6;
-1,19098120679209E-6;
-7,09708278022875E-7;
-5,11113419646156E-7;
-4,61519440766238E-7;
-2,79671687264199E-7;
1,87300202413759E-7;
8,12396111623944E-7;
1,28627554894738E-6;
1,3763380973717E-6;
