7,45934846453562E-9;
2,29374085339473E-9;
-1,74551073513958E-9;
-3,2150173728497E-9;
-1,35080279149078E-9;
3,13978914275903E-9;
7,84538813685238E-9;
9,53286136529843E-9;
5,91904723882089E-9;
-2,70104799492142E-9;
-1,317684573515E-8;
-2,09942993419142E-8;
-2,27133870340527E-8;
-1,78194585126714E-8;
-8,79675402164896E-9;
5,52556230935586E-10;
7,29408219997694E-9;
1,05684187393731E-8;
1,12126290530957E-8;
1,04328619776914E-8;
8,79539630421297E-9;
6,33746163686426E-9;
3,45999623047231E-9;
1,47063931081703E-9;
1,95802413022304E-9;
5,3114751860344E-9;
9,66972413613904E-9;
1,14949930470619E-8;
7,75115202911709E-9;
-1,75236098412671E-9;
-1,3669081373087E-8;
-2,27919093492107E-8;
-2,51118859496517E-8;
-2,0166944503138E-8;
-1,10258405213765E-8;
-2,05077960573121E-9;
3,85293011521515E-9;
6,52930485549769E-9;
7,66627485021681E-9;
8,75792331711586E-9;
9,77670003108418E-9;
9,62317898024908E-9;
7,76439084666189E-9;
5,37050491285224E-9;
4,7016833395626E-9;
7,05902194349817E-9;
1,10631010817761E-8;
1,29801694914409E-8;
9,18616790799996E-9;
-9,22150001218564E-10;
-1,3873137750944E-8;
-2,39574770156325E-8;
-2,67534306520491E-8;
-2,18401548749242E-8;
-1,27345339455799E-8;
-4,20611446299481E-9;
9,09811533390168E-10;
3,04521668669246E-9;
4,57498879342639E-9;
7,21603741946775E-9;
1,04471030168719E-8;
1,22286556716811E-8;
1,12510640980252E-8;
8,55713410900183E-9;
6,93309466499758E-9;
8,42344755217788E-9;
1,20777314909511E-8;
1,40452546339279E-8;
1,02641798457448E-8;
-2,004996175435E-10;
-1,38321237644547E-8;
-2,45801072715538E-8;
-2,77368305399038E-8;
-2,29247904641361E-8;
-1,39838658647418E-8;
-5,9550049797688E-9;
-1,57390610344011E-9;
7,54410881064653E-11;
1,91134748530192E-9;
5,81137686030357E-9;
1,08457642733754E-8;
1,42238041737775E-8;
1,40028673856872E-8;
1,10996324653643E-8;
8,70253739888635E-9;
9,44790149106061E-9;
1,27582383765613E-8;
1,47427501220342E-8;
1,10287539534753E-8;
4,15776678600333E-10;
-1,35886037309059E-8;
-2,47372019621818E-8;
-2,81548764451956E-8;
-2,35014068275312E-8;
-1,48289688362513E-8;
-7,33752896482442E-9;
-3,63772434683868E-9;
-2,41893010827879E-9;
-3,55747567817055E-10;
4,54055053366402E-9;
1,10155366367782E-8;
1,56825699826405E-8;
1,60999103888323E-8;
1,30679652376922E-8;
1,00609595793737E-8;
1,01727995457477E-8;
1,31479190313474E-8;
1,51201739480912E-8;
1,15185303645576E-8;
9,3723526731837E-10;
-1,3177015856581E-8;
-2,45041663762157E-8;
-2,80930637037613E-8;
-2,36428330144517E-8;
-1,53247124533444E-8;
-8,39222738720883E-9;
-5,31814025037364E-9;
-4,48062107998531E-9;
-2,25790337285681E-9;
3,40152172686068E-9;
1,09880721820097E-8;
1,66701226186441E-8;
1,7620149714498E-8;
1,45239948573569E-8;
1,1051897872231E-8;
1,06368354504556E-8;
1,32906599913805E-8;
1,52252309579132E-8;
1,17713798031951E-8;
1,36884358126287E-9;
-1,26341110972978E-8;
-2,39472284461277E-8;
-2,76312199204517E-8;
-2,34178403798082E-8;
-1,55184000041843E-8;
-9,157837101638E-9;
-6,65387256497278E-9;
-6,14868646236204E-9;
-3,82642161885217E-9;
2,3889329568918E-9;
1,07982066270103E-8;
1,72494034629715E-8;
1,86332820975572E-8;
1,55332024579649E-8;
1,17231675349988E-8;
1,08727890087506E-8;
1,32231477850963E-8;
1,50998019864011E-8;
1,18208354320749E-8;
1,72055249095854E-9;
-1,19886717533859E-8;
-2,31293905820841E-8;
-2,68412697449019E-8;
-2,28900970626493E-8;
-1,54580039016041E-8;
-9,66862984577931E-9;
-7,68014894194954E-9;
-7,46369001287824E-9;
-5,09225543981512E-9;
1,49956494112995E-9;
1,04760293644513E-8;
1,74787216871416E-8;
1,92081543582058E-8;
1,61521788108697E-8;
1,21183559894331E-8;
1,09178903454402E-8;
1,29797602438962E-8;
1,47834085642383E-8;
1,1699299226286E-8;
1,99688648170312E-9;
-1,12674247219567E-8;
-2,21041344739E-8;
-2,57882857563436E-8;
-2,21162306553423E-8;
-1,51856621904644E-8;
-9,96007023226753E-9;
-8,43352943369749E-9;
-8,46232906338443E-9;
-6,08491441784532E-9;
7,25196374690222E-10;
1,00468912430922E-8;
1,74114329406894E-8;
1,9407899336921E-8;
1,64352237265154E-8;
1,22728905689421E-8;
1,07994433955115E-8;
1,25928239549998E-8;
1,43096070729433E-8;
1,14354159268838E-8;
2,20812361363132E-9;
-1,04933613789094E-8;
-2,09206598386261E-8;
-2,4530110595271E-8;
-2,11466515847526E-8;
-1,47388489996623E-8;
-1,00628840579501E-8;
-8,94495194858061E-9;
-9,17958575933104E-9;
-6,83470996304298E-9;
5,80194811160713E-11;
9,53545177729152E-9;
1,70992350374346E-8;
1,92925412559063E-8;
1,64345937999669E-8;
1,22272666713543E-8;
1,05469742817351E-8;
1,20905784196764E-8;
1,37112261812015E-8;
1,10543585505068E-8;
2,35941291772014E-9;
-9,68717440487392E-9;
-1,96215170143911E-8;
-2,31189432928554E-8;
-2,00290853760319E-8;
-1,41507828508466E-8;
-1,00039681363505E-8;
-9,24798660521106E-9;
-9,65411808830896E-9;
-7,3698104273421E-9;
-5,0653797340209E-10;
8,96259698893661E-9;
1,65845928971654E-8;
1,89134823691292E-8;
1,61946462100883E-8;
1,20123652484768E-8;
1,01844574619865E-8;
1,14975334632513E-8;
1,30166986361493E-8;
1,05817961053268E-8;
2,45793032734713E-9;
-8,86582494299736E-9;
-1,82461178481555E-8;
-2,16014445334246E-8;
-1,88022581500131E-8;
-1,34553314583508E-8;
-9,81302503275932E-9;
-9,37029723251956E-9;
-9,91498145241102E-9;
-7,71654598772085E-9;
-9,79257525607251E-10;
8,34759394589124E-9;
1,59106117595815E-8;
1,83200105860724E-8;
1,57585537269913E-8;
1,16597280291434E-8;
9,73639744242434E-9;
1,08379963359072E-8;
1,22504813674008E-8;
1,00379009768183E-8;
2,50910217972949E-9;
-8,04683880324588E-9;
-1,68270879818609E-8;
-2,00155993544677E-8;
-1,75029877699944E-8;
-1,26786403328962E-8;
-9,51162944224562E-9;
-9,34062431746315E-9;
-9,99441844351527E-9;
-7,89977048762634E-9;
-1,3653338388569E-9;
7,70743538233414E-9;
1,51103698520525E-8;
1,75546403916968E-8;
1,51651231322233E-8;
1,11960019524594E-8;
9,22172670562136E-9;
1,0132901107585E-8;
1,14365415039706E-8;
9,44154037944335E-9;
2,52120879996296E-9;
-7,23951523109607E-9;
-1,53925774219517E-8;
-1,83961029429889E-8;
-1,61600682726489E-8;
-1,18446298752267E-8;
-9,12253977181846E-9;
-9,18088084972863E-9;
-9,91942772913809E-9;
-7,94455205330068E-9;
-1,67336499067581E-9;
7,05628961826239E-9;
1,42209622691783E-8;
1,66600031150028E-8;
1,44478753100662E-8;
1,06468412460826E-8;
8,65930047734304E-9;
9,39695593933748E-9;
1,05919399768211E-8;
8,80932097347787E-9;
2,49847953625464E-9;
-6,45450190101281E-9;
-1,39653871862669E-8;
-1,67724552185651E-8;
-1,48008478110491E-8;
-1,09753197932405E-8;
-8,6666368016472E-9;
-8,91721644531487E-9;
-9,71557635515469E-9;
-7,86880440638122E-9;
-1,91078624063807E-9;
6,4036982427357E-9;
1,32650387004963E-8;
1,56661662970616E-8;
1,36380218468783E-8;
1,00334270642747E-8;
8,06386434452805E-9;
8,64671444602455E-9;
9,73334458764484E-9;
8,1554922796138E-9;
2,4471169407686E-9;
-5,70103021438045E-9;
-1,2565360407157E-8;
-1,51679618572559E-8;
-1,34485881044525E-8;
-1,00885245465078E-8;
-8,15999451962089E-9;
-8,57007328958774E-9;
-9,40715753260488E-9;
-7,69652809009122E-9;
-2,08776319908523E-9;
5,76206532886386E-9;
1,22710388327111E-8;
1,46062013943393E-8;
1,27620630015671E-8;
9,37397710312366E-9;
7,44980507539013E-9;
7,89685713366175E-9;
8,87795339333655E-9;
7,49325014480473E-9;
2,37116811582248E-9;
-4,98588092597221E-9;
-1,12107926753326E-8;
-1,3603708923369E-8;
-1,21203681472131E-8;
-9,19947862166734E-9;
-7,61680452201355E-9;
-8,15534210290533E-9;
-9,01410675590638E-9;
-7,44222214218517E-9;
-2,2074374892231E-9;
5,1388607646558E-9;
1,12592374558763E-8;
1,35064452542846E-8;
1,18439279474904E-8;
8,68748709204087E-9;
6,82940237716293E-9;
7,1548216480544E-9;
8,03378001306212E-9;
6,83341752822945E-9;
2,27694378040905E-9;
-4,31161719982852E-9;
-9,91221256586216E-9;
-1,2097208274594E-8;
-1,08327837131118E-8;
-8,32278522571348E-9;
-7,05432756735196E-9;
-7,69122983060546E-9;
-8,5568453187147E-9;
-7,12539803682595E-9;
-2,27800338447885E-9;
4,540250901413E-9;
1,02475837154678E-8;
1,23899558371793E-8;
1,09026445480181E-8;
7,98671099356451E-9;
6,21192663201831E-9;
6,43132987013554E-9;
7,21264748155409E-9;
6,18304976939799E-9;
2,16604008519457E-9;
-3,68314989627753E-9;
-8,67922487877738E-9;
-1,06579834188603E-8;
-9,59696327203419E-9;
-7,46793738845731E-9;
-6,4802868345172E-9;
-7,19261982667108E-9;
-8,05276950095039E-9;
-6,75889243391907E-9;
-2,30773760842274E-9;
3,96933364454931E-9;
9,24973301438552E-9;
1,1273649303032E-8;
9,9567986304236E-9;
7,28507671517447E-9;
5,60457112636414E-9;
5,73358876708023E-9;
6,4234661417471E-9;
5,55213667996372E-9;
2,04404970074474E-9;
-3,10236367689106E-9;
-7,52103081315885E-9;
-9,3001155487662E-9;
-8,42364292713904E-9;
-6,64362968476891E-9;
-5,9069233763111E-9;
-6,67119430120334E-9;
-7,5138120172888E-9;
-6,35550646309272E-9;
-2,29983617616234E-9;
3,43359068543054E-9;
8,27879854240416E-9;
1,01754224881256E-8;
9,0218170003842E-9;
6,59290721117241E-9;
5,01628802988624E-9;
5,06759880118827E-9;
5,6686589456304E-9;
4,94321105397191E-9;
1,91415131780849E-9;
-2,56989171548123E-9;
-6,44111187631422E-9;
-8,02609181136125E-9;
-7,31795866437625E-9;
-5,85731599579505E-9;
-5,34080848774489E-9;
-6,13937449392475E-9;
-6,95592148681899E-9;
-5,92610247910168E-9;
-2,26199638365844E-9;
2,93367489352344E-9;
7,34717923952532E-9;
9,10751012191686E-9;
8,10616366652478E-9;
5,91840681185138E-9;
4,45137620071969E-9;
4,43726515659668E-9;
4,95790226005949E-9;
4,36373494157515E-9;
1,77750860665055E-9;
-2,08630565994531E-9;
-5,44305562400516E-9;
-6,84346562425673E-9;
-6,28665335425637E-9;
-5,11415285120638E-9;
-4,78914398733734E-9;
-5,60425807778981E-9;
-6,38836431291542E-9;
-5,48350303052494E-9;
-2,19933113971592E-9;
2,47135788312376E-9;
6,45847455937905E-9;
8,08245813981166E-9;
7,22353957061034E-9;
5,26685629412003E-9;
3,91480560273155E-9;
3,84585240968753E-9;
4,28956132423864E-9;
3,81538177301354E-9;
1,63872371734033E-9;
-1,65014259720987E-9;
-4,52793693468191E-9;
-5,75405966158379E-9;
-5,33209600567173E-9;
-4,41652540056092E-9;
-4,25720633223628E-9;
-5,07610177701566E-9;
-5,82148406153617E-9;
-5,03342403915783E-9;
-2,11464889277078E-9;
2,04738325388909E-9;
5,61947255988275E-9;
7,10632661171295E-9;
6,37941402446172E-9;
4,64557325351626E-9;
3,40811815456085E-9;
3,29405403654713E-9;
3,66926002783039E-9;
3,30233350267278E-9;
1,49881282847549E-9;
-1,26125039436544E-9;
-3,69598741969102E-9;
-4,75807422795597E-9;
-4,45419028844662E-9;
-3,76745375338943E-9;
-3,75105228235234E-9;
-4,56043252091833E-9;
-5,26224899720716E-9;
-4,58563798631102E-9;
-2,01548210710972E-9;
1,66267036481819E-9;
4,83614505329825E-9;
6,18544793654908E-9;
5,58004274626136E-9;
4,05776662685342E-9;
2,93484233037757E-9;
2,78575240738903E-9;
3,09617853738558E-9;
2,82423501806936E-9;
1,36115226070889E-9;
-9,16119317712105E-10;
-2,94578069608954E-9;
-3,85497506384071E-9;
-3,65501625877114E-9;
-3,17146130050168E-9;
-3,27240261200543E-9;
-4,06159970351797E-9;
-4,71839654603091E-9;
-4,14398065920866E-9;
-1,90359751638327E-9;
1,31594187289729E-9;
4,11007597148448E-9;
5,32454176267758E-9;
4,83054492276245E-9;
3,50818004372279E-9;
2,49653618635704E-9;
2,32041421266975E-9;
2,57371608489308E-9;
2,3839417592094E-9;
1,22560610996908E-9;
-6,14175407052117E-10;
-2,27439477524776E-9;
-3,0426485312508E-9;
-2,93304170878062E-9;
-2,62473184609335E-9;
-2,82378060080215E-9;
-3,58642713551092E-9;
-4,19441821348536E-9;
-3,71341759678854E-9;
-1,78162612923128E-9;
1,00675630537489E-9;
3,44214140183811E-9;
4,52658256763133E-9;
4,13220242108373E-9;
2,99597810782078E-9;
2,09367757745845E-9;
1,89570883305483E-9;
2,0963494083601E-9;
1,98077228839358E-9;
1,09387631077965E-9;
-3,53192569341604E-10;
-1,67912027423114E-9;
-2,3186043352667E-9;
-2,28569714886094E-9;
-2,1292189010328E-9;
-2,40807530121295E-9;
-3,13682052380777E-9;
-3,69560828807098E-9;
-3,30097035068011E-9;
-1,65551610082972E-9;
7,3204427932012E-10;
2,83227907527395E-9;
3,79287108728591E-9;
3,48824308978229E-9;
2,52400492894996E-9;
1,72600337810657E-9;
1,5150661911237E-9;
1,66840226962996E-9;
1,61434964530267E-9;
9,69012313507258E-10;
-1,29067014376536E-10;
-1,15770291271242E-9;
-1,6787577330913E-9;
-1,70988957006396E-9;
-1,68342330040503E-9;
-2,0237788631588E-9;
-2,71284333061045E-9;
-3,22421046712333E-9;
-2,90656669881913E-9;
-1,52361402963864E-9;
4,92306154907474E-10;
2,28203751536004E-9;
3,12510660788392E-9;
2,89819516817187E-9;
2,0918078071862E-9;
1,3924599407895E-9;
1,17110542364953E-9;
1,28385419066691E-9;
1,28392326342343E-9;
8,482972297072E-10;
5,9219632752431E-11;
-7,03984896423308E-10;
-1,11876064361019E-9;
-1,20243974921102E-9;
-1,28502100592354E-9;
-1,67361323255532E-9;
-2,31926516972996E-9;
-2,78199708992292E-9;
-2,5350267008011E-9;
-1,39352238387951E-9;
2,83870655076834E-10;
1,788192306601E-9;
2,51942936001636E-9;
2,3633475020285E-9;
1,70145430981252E-9;
1,09299364411107E-9;
8,68366090787157E-10;
9,44465379833414E-10;
9,8729462519913E-10;
7,35802770535293E-10;
2,16590557212226E-10;
-3,1420005302057E-10;
-6,33555969925518E-10;
-7,61982465643233E-10;
-9,33050303244043E-10;
-1,35416558057326E-9;
-1,95662736397985E-9;
-2,37253302867552E-9;
-2,18609513413362E-9;
-1,26162106105311E-9;
1,05862915087725E-10;
1,34804923949329E-9;
1,97708798071198E-9;
1,88063240948519E-9;
1,34876940976382E-9;
8,2681110365576E-10;
6,01267109732216E-10;
6,45766171054334E-10;
7,24915496780794E-10;
6,3090806287117E-10;
3,44960666838743E-10;
1,60004167370655E-11;
-2,18443628941618E-10;
-3,80395062786383E-10;
-6,24415208693205E-10;
-1,06767432986394E-9;
-1,62263139061803E-9;
-1,99392072173568E-9;
-1,86274887412302E-9;
-1,13367949996194E-9;
-4,35662605526451E-11;
9,61530092833458E-10;
1,49340424863048E-9;
1,44877470186487E-9;
1,03346043168885E-9;
5,91431573579518E-10;
3,69012457957666E-10;
3,86542605163834E-10;
4,95160894958384E-10;
5,32242122610254E-10;
4,46214330277317E-10;
2,92485300761602E-10;
1,32365162830734E-10;
-5,47558059164716E-11;
-3,56609641634032E-10;
-8,12523168020473E-10;
-1,3202651327205E-9;
-1,64855732805698E-9;
-1,5653322162059E-9;
-1,01034307234792E-9;
-1,68721503169184E-10;
6,22646741342111E-10;
1,06762093164922E-9;
1,0670830300708E-9;
7,54838881462432E-10;
3,86965672436262E-10;
1,68912211058657E-10;
1,62127360918356E-10;
2,94219116752601E-10;
4,42600036061902E-10;
5,25363943310183E-10;
5,20085292774432E-10;
4,23729745205046E-10;
2,16912794160226E-10;
-1,26189392319337E-10;
-5,85174446745795E-10;
-1,04747959081645E-9;
-1,33373501257618E-9;
-1,29103012195128E-9;
-8,91453098502213E-10;
-2,70630684396935E-10;
3,32050329990948E-10;
6,96099977858898E-10;
7,31274892160288E-10;
5,1039113608624E-10;
2,07873875596822E-10;
-2,41594026848772E-12;
-2,7991539652074E-11;
1,20819159157915E-10;
3,59593570454157E-10;
5,81746088224795E-10;
7,01440993568614E-10;
6,61506161641548E-10;
4,40959543781806E-10;
6,66986751491698E-11;
-3,87322779536609E-10;
-8,03247466603136E-10;
-1,05113210455371E-9;
-1,04418461161567E-9;
-7,79769293779004E-10;
-3,51217911862068E-10;
8,41486206767243E-11;
3,74813350081542E-10;
4,40790989265226E-10;
2,9978822144096E-10;
5,5919441000344E-11;
-1,45119215089098E-10;
-1,85362831247537E-10;
-2,51096300987711E-11;
2,84454052714818E-10;
6,20707012471276E-10;
8,42936926641862E-10;
8,51203719693642E-10;
6,24411284372409E-10;
2,29085426917656E-10;
-2,14937398807165E-10;
-5,87048940004362E-10;
-7,99664732592294E-10;
-8,20221530440321E-10;
-6,7262954954242E-10;
-4,14197288155277E-10;
-1,25624336524981E-10;
1,00435733903042E-10;
1,90092721719324E-10;
1,17141776494913E-10;
-7,21109344282916E-11;
-2,6202574406307E-10;
-3,16363729131677E-10;
-1,4927326879948E-10;
2,16542250481904E-10;
6,45252550725299E-10;
9,50344304831463E-10;
9,96042977091992E-10;
7,67307835182847E-10;
3,62470792420681E-10;
-6,80161447414394E-11;
-3,97762326707863E-10;
-5,76581689539095E-10;
-6,228432647218E-10;
-5,74505607477767E-10;
-4,59568546180991E-10;
-2,98889906878532E-10;
-1,30778947945008E-10;
-2,26020819980594E-11;
-3,71604065875825E-11;
-1,79167900409091E-10;
-3,58205145179297E-10;
-4,21712365858967E-10;
-2,49798575961594E-10;
1,57203128568965E-10;
6,53879156511911E-10;
1,02413459317207E-9;
1,10438128864721E-9;
8,75627757438132E-10;
4,66963090287464E-10;
5,71927261937013E-11;
-2,31615678431216E-10;
-3,79951935675742E-10;
-4,46026956395976E-10;
-4,82700433949997E-10;
-4,90477146506259E-10;
-4,38995205003442E-10;
-3,21316432618979E-10;
-1,98706173058465E-10;
-1,6576388325886E-10;
-2,66540668954279E-10;
-4,33223240889765E-10;
-5,04188651311289E-10;
-3,32123206708186E-10;
1,03299134416755E-10;
6,52433910498008E-10;
1,07150352963608E-9;
1,17779706926471E-9;
9,55542310779641E-10;
5,49469038012523E-10;
1,60236006089431E-10;
-8,97468560047976E-11;
-2,11188407853445E-10;
-2,92075208467487E-10;
-3,97436311304779E-10;
-5,07938970275193E-10;
-5,49103380398722E-10;
-4,77504087892458E-10;
-3,44414329834719E-10;
-2,70443031755684E-10;
-3,35502603202968E-10;
-4,89790763079636E-10;
-5,66841573694507E-10;
-3,95888656963368E-10;
5,81113899802729E-11;
6,40384688627659E-10;
1,09403038994533E-9;
1,22239306367442E-9;
1,00754672143485E-9;
6,09937133666738E-10;
2,44317896873785E-10;
3,00946655594703E-11;
-6,56005973321705E-11;
-1,57896748890514E-10;
-3,20779783575167E-10;
-5,17081359956133E-10;
-6,33969275252616E-10;
-5,9936399589878E-10;
-4,60737349360745E-10;
-3,54146513221632E-10;
-3,8784963669847E-10;
-5,3039375540892E-10;
-6,11306700897816E-10;
-4,44069408841292E-10;
1,75845667812785E-11;
6,21458059629983E-10;
1,09993917852512E-9;
1,24296930271102E-9;
1,03668869754723E-9;
6,51550852544347E-10;
3,11057105873798E-10;
1,30843967161679E-10;
5,72883567944998E-11;
-4,36269235112573E-11;
-2,52054454016063E-10;
-5,16013273375555E-10;
-6,94987711885099E-10;
-6,93169212551353E-10;
-5,52278400761702E-10;
-4,21204009428175E-10;
-4,27286047083884E-10;
-5,56720737602767E-10;
-6,40183812457484E-10;
-4,78945945236234E-10;
-1,70846014850553E-11;
5,95676627038256E-10;
1,08648580400637E-9;
1,24044826524003E-9;
1,04471039066878E-9;
6,77112973696998E-10;
3,64077778404027E-10;
2,13403807944064E-10;
1,59856776954857E-10;
5,43726321858029E-11;
-1,89229152833816E-10;
-5,06198880348325E-10;
-7,34836685295279E-10;
-7,6150391286618E-10;
-6,20559054290067E-10;
-4,6897292826281E-10;
-4,53318136475259E-10;
-5,70619287189532E-10;
-6,53921912371853E-10;
-5,01800637936777E-10;
-4,67883700025714E-11;
5,64738001958111E-10;
1,0584034288338E-9;
1,22035340973977E-9;
1,03772143991771E-9;
6,90222573528289E-10;
4,02977145584847E-10;
2,79247487097057E-10;
2,43636699561247E-10;
1,34893939705109E-10;
-1,3469857839551E-10;
-4,91108698094031E-10;
-7,58255951954074E-10;
-8,07703483100559E-10;
-6,67708793938975E-10;
-5,03131986948601E-10;
-4,70897090179447E-10;
-5,75781265148491E-10;
-6,57211304691963E-10;
-5,13133704517432E-10;
-6,99913799776079E-11;
5,31202123640732E-10;
1,02035995985661E-9;
1,18679804076724E-9;
1,01662447640519E-9;
6,8913007848189E-10;
4,29544288873807E-10;
3,32042263073327E-10;
3,10318292123669E-10;
2,00008991474736E-10;
-8,60660500924608E-11;
-4,70170137720858E-10;
-7,66702971517693E-10;
-8,34814731800057E-10;
-6,98224589352596E-10;
-5,24542690675774E-10;
-4,76135161467695E-10;
-5,70225116630367E-10;
-6,51999186837296E-10;
-5,16094432506533E-10;
-8,88469304415848E-11;
4,94934690608362E-10;
9,7405228665102E-10;
1,14078129406761E-9;
9,83846731971137E-10;
6,79841486074377E-10;
4,45415221135668E-10;
3,69982280533548E-10;
3,63250505543797E-10;
2,53698771497105E-10;
-4,45661818594696E-11;
-4,46852526427755E-10;
-7,62624536353081E-10;
-8,44772272156074E-10;
-7,13438862333108E-10;
-5,35314956847274E-10;
-4,75678737382444E-10;
-5,58732933815976E-10;
-6,37017083243846E-10;
-5,11190439854839E-10;
-1,05287025783246E-10;
4,55961728033579E-10;
9,20434497920012E-10;
1,08525105904504E-9;
9,41520710434365E-10;
6,61954987017547E-10;
4,52967995040483E-10;
3,9737889230776E-10;
4,01576697987611E-10;
2,94024540740732E-10;
-7,78818026459821E-12;
-4,19256835599829E-10;
-7,47351543834534E-10;
-8,40627696512886E-10;
-7,16093280458465E-10;
-5,36184241595782E-10;
-4,67162524830242E-10;
-5,39300915273149E-10;
-6,1531963832774E-10;
-5,00796654522421E-10;
-1,16168530035805E-10;
4,17743664076965E-10;
8,61636604090112E-10;
1,02387709713113E-9;
8,9339530581831E-10;
6,37406370383426E-10;
4,53015536127861E-10;
4,14338877568942E-10;
4,27981371828916E-10;
3,24712382818813E-10;
2,29013855289871E-11;
-3,90087842521508E-10;
-7,2323301286607E-10;
-8,25563395754538E-10;
-7,07730662204039E-10;
-5,29260115114871E-10;
-4,54920378533876E-10;
-5,17751780550795E-10;
-5,88758100435884E-10;
-4,83911010807029E-10;
-1,25111388552767E-10;
3,79516661483335E-10;
8,00421022839692E-10;
9,56253156532149E-10;
8,3986394712256E-10;
6,07635395026172E-10;
4,45943932788994E-10;
4,2217527774372E-10;
4,43883493700951E-10;
3,45575231541989E-10;
4,87402025331642E-11;
-3,59549166694531E-10;
-6,93038821931073E-10;
-8,00905328160228E-10;
-6,90800903400507E-10;
-5,15628447839455E-10;
-4,36750763227738E-10;
-4,91307107193135E-10;
-5,58311664826858E-10;
-4,63313733467389E-10;
-1,29595946384477E-10;
3,42083742189882E-10;
7,36634151753575E-10;
8,86652757996163E-10;
7,83851331196213E-10;
5,73169985212489E-10;
4,33964886295238E-10;
4,25264326120149E-10;
4,50753771437688E-10;
3,57809211039992E-10;
7,06749836698538E-11;
-3,29606079682338E-10;
-6,57395041874596E-10;
-7,67665891081984E-10;
-6,66574252996595E-10;
-4,9706306572555E-10;
-4,15940965507493E-10;
-4,62433048249521E-10;
-5,25169118281204E-10;
-4,39771429627692E-10;
-1,32351960814282E-10;
3,04251873381876E-10;
6,73079420247065E-10;
8,16115541146051E-10;
7,24185583661707E-10;
5,36736439339801E-10;
4,1694664733684E-10;
4,18523769715883E-10;
4,50452517105703E-10;
3,63449458072074E-10;
8,7518565480082E-11;
-2,98623925556838E-10;
-6,17474426881197E-10;
-7,29395883704068E-10;
-6,36712774067059E-10;
-4,73580827084593E-10;
-3,92038789042966E-10;
-4,31389643765117E-10;
-4,90054204450167E-10;
-4,1413626351307E-10;
-1,32991060159612E-10;
2,68530310224883E-10;
6,09319631654803E-10;
7,4329354760678E-10;
6,63453211508189E-10;
4,98613036252095E-10;
3,98440929928403E-10;
4,0926878961545E-10;
4,44334181154637E-10;
3,63205904720788E-10;
9,94484686150956E-11;
-2,69152725492953E-10;
-5,75223917850156E-10;
-6,86395597326892E-10;
-6,01490098906356E-10;
-4,47242493086047E-10;
-3,66882488737346E-10;
-3,98717538215415E-10;
-4,52352613671778E-10;
-3,86440015732884E-10;
-1,31680887695211E-10;
2,35147652028953E-10;
5,47535361946883E-10;
6,7308756874446E-10;
6,04379479718185E-10;
4,5974731479343E-10;
3,76134807338052E-10;
3,94523583475973E-10;
4,3263118812139E-10;
3,57853226954494E-10;
1,09783251030495E-10;
-2,39312490962154E-10;
-5,31146777298257E-10;
-6,39466129014496E-10;
-5,64716957047223E-10;
-4,20261706307471E-10;
-3,39735979611613E-10;
-3,66663960240904E-10;
-4,16046804736098E-10;
-3,57494188746956E-10;
-1,29373198829124E-10;
2,03289706971212E-10;
4,88118158080131E-10;
6,03668350264729E-10;
5,45723138333654E-10;
4,19115284984378E-10;
3,51064573136369E-10;
3,77314194934117E-10;
4,16076954600702E-10;
3,47808100119298E-10;
1,16158106491762E-10;
-2,11609685504388E-10;
-4,87062094631551E-10;
-5,92183871147526E-10;
-5,24132082511255E-10;
-3,89647971246602E-10;
-3,13169647230425E-10;
-3,34919288250882E-10;
-3,78852261350544E-10;
-3,28316142409115E-10;
-1,2606979564435E-10;
1,73380828909037E-10;
4,31019846189314E-10;
5,36647593727335E-10;
4,87847979992119E-10;
3,80237038734543E-10;
3,2633616652163E-10;
3,56585548797755E-10;
3,97903580197567E-10;
3,35324884949936E-10;
1,18976816318316E-10;
-1,84524465891483E-10;
-4,42004683800826E-10;
-5,43389404801515E-10;
-4,83219375867462E-10;
-3,59062249205407E-10;
-2,86037511949873E-10;
-3,02584420770002E-10;
-3,42420681239933E-10;
-2,99219819262992E-10;
-1,19301041197352E-10;
1,45957271736982E-10;
3,75791731375903E-10;
4,73449034132602E-10;
4,3339613341522E-10;
3,4189815630843E-10;
3,00793721583751E-10;
3,34902458194954E-10;
3,75034796312115E-10;
3,19387132260335E-10;
1,21947980218179E-10;
-1,59034240318119E-10;
-3,98808261534104E-10;
-4,94749885544598E-10;
-4,41844082359368E-10;
-3,29080974234803E-10;
-2,59384943306736E-10;
-2,70592982497368E-10;
-3,07090231812638E-10;
-2,71541278833564E-10;
-1,14864670378466E-10;
1,2003266005977E-10;
3,25787541580714E-10;
4,13122066816229E-10;
3,80266789755197E-10;
3,049654238533E-10;
2,74825125508312E-10;
3,11158431660062E-10;
3,51325319035506E-10;
3,02468590734568E-10;
1,21664891715479E-10;
-1,36347714143232E-10;
-3,56955283541049E-10;
-4,47544753376081E-10;
-4,00564924786588E-10;
-2,97628174601019E-10;
-2,33319976389827E-10;
-2,40526197780005E-10;
-2,72816959449398E-10;
-2,43681512471823E-10;
-1,07837098013465E-10;
9,67438939617295E-11;
2,77939645871129E-10;
3,56776051706937E-10;
3,30609087010578E-10;
2,6930324295001E-10;
2,48865143269915E-10;
2,87108504586879E-10;
3,26925711739742E-10;
2,83130462928431E-10;
1,20009129202481E-10;
-1,13051091395728E-10;
-3,1531910368687E-10;
-4,00389167215946E-10;
-3,60443063764984E-10;
-2,6792690622073E-10;
-2,07616215052123E-10;
-2,12834826738248E-10;
-2,40394626059036E-10;
-2,15899502778428E-10;
-1,00910074623986E-10;
7,67146185906025E-11;
2,34584381340283E-10;
3,04710970020525E-10;
2,85172008333194E-10;
2,3570212452004E-10;
2,24624008114994E-10;
2,62959624685585E-10;
3,00480307082097E-10;
2,63415917636312E-10;
1,1653609530481E-10;
-9,47871849177528E-11;
-2,77493190562076E-10;
-3,55574849606121E-10;
-3,21736404721662E-10;
-2,39097033962068E-10;
-1,84225146174359E-10;
-1,85616640877301E-10;
-2,09390023014865E-10;
-1,91381024331979E-10;
-9,30322091346843E-11;
5,87887034030863E-11;
1,94030412027342E-10;
2,55966239442594E-10;
2,41943829839505E-10;
2,04437959282768E-10;
1,99582981457463E-10;
2,3768031867784E-10;
2,75447423851636E-10;
2,43338206668461E-10;
1,11850137078484E-10;
-7,64063529197139E-11;
-2,40976645739882E-10;
-3,13184277129794E-10;
-2,85193571821362E-10;
-2,11842715045924E-10;
-1,60169654136213E-10;
-1,59789956592609E-10;
-1,81287606438393E-10;
-1,66939190769548E-10;
-8,58378512420599E-11;
4,21290420691061E-11;
1,58485500929231E-10;
2,1191195496486E-10;
2,03120200501673E-10;
1,75504965672632E-10;
1,7621229651527E-10;
2,15266911006541E-10;
2,49838638744095E-10;
2,22277991544104E-10;
1,07687591032549E-10;
-6,02281435612672E-11;
-2,06537385225099E-10;
-2,7226319931363E-10;
-2,49980416872856E-10;
-1,85103065948298E-10;
-1,3893204771657E-10;
-1,36552305743952E-10;
-1,5436279618637E-10;
-1,4477345369311E-10;
-7,93915855399477E-11;
2,72858904730379E-11;
1,26081987968057E-10;
1,71891327856026E-10;
1,66249641734432E-10;
1,47010905217875E-10;
1,53815419087356E-10;
1,92902852251745E-10;
2,2487725724518E-10;
2,00655139324123E-10;
1,00370084850737E-10;
-4,60075967280915E-11;
-1,74932968529044E-10;
-2,34931906668684E-10;
-2,16859256099842E-10;
-1,60607290651787E-10;
-1,1905601013032E-10;
-1,14632137363357E-10;
-1,30095214668301E-10;
-1,23217369970162E-10;
-6,95271972765819E-11;
1,61268443334604E-11;
9,5937958875496E-11;
1,35466761656268E-10;
1,34180376835647E-10;
1,23203405379747E-10;
1,33392860554033E-10;
1,69972544315659E-10;
2,0090005917324E-10;
1,81118124548065E-10;
9,51301338689085E-11;
-3,20454685276816E-11;
-1,46346943674135E-10;
-1,99773620320049E-10;
-1,86166696299028E-10;
-1,37699730214652E-10;
-1,00672395747702E-10;
-9,59192019267944E-11;
-1,06684544410252E-10;
-1,0377906897909E-10;
-6,37801443973593E-11;
5,76885341545193E-12;
6,93643128014832E-11;
1,02732650279158E-10;
1,05761450958546E-10;
1,00032904890036E-10;
1,14304188773776E-10;
1,4952397705706E-10;
1,76750612606049E-10;
1,62100931764685E-10;
8,84812332713128E-11;
-2,14355117317619E-11;
-1,19749022402248E-10;
-1,67612287375923E-10;
-1,56571474553395E-10;
-1,16032689894168E-10;
-8,38670019792425E-11;
-7,74600765503305E-11;
-8,71475380419148E-11;
-8,61190471390348E-11;
-5,71084806610909E-11;
-4,69077940346508E-12;
4,77155027782084E-11;
7,54716235854635E-11;
7,89575197048874E-11;
7,92782521259402E-11;
9,64072664568164E-11;
1,30576188735791E-10;
1,55901074935439E-10;
1,42953242371534E-10;
8,10792546422064E-11;
-1,20699450812745E-11;
-9,61571666319594E-11;
-1,37012218947053E-10;
-1,30018487695912E-10;
-9,71688716966834E-11;
-6,77134836466757E-11;
-6,04589915466915E-11;
-6,96007660597208E-11;
-7,05094313033697E-11;
-4,91096439393737E-11;
-1,12671338443514E-11;
2,73254124800095E-11;
5,01048936699276E-11;
5,6511247658095E-11;
6,23117895470358E-11;
8,10420044910884E-11;
1,11731804264073E-10;
1,34685201188862E-10;
1,25782946823523E-10;
7,51177049268772E-11;
-2,67310399328581E-12;
-7,48051872966269E-11;
-1,12291542718983E-10;
-1,06820571655143E-10;
-7,87304138530417E-11;
-5,48419140064829E-11;
-4,65549383192619E-11;
-5,23308121425147E-11;
-5,63658768878389E-11;
-4,39960479198348E-11;
-1,74190931431244E-11;
1,16962200263871E-11;
2,95572893972669E-11;
3,59438869096847E-11;
4,47961079113301E-11;
6,43849119852124E-11;
9,35788232176338E-11;
1,15914170510246E-10;
1,09018201160441E-10;
6,76764688365919E-11;
4,1527421278897E-12;
-5,57624969436781E-11;
-8,78148555979476E-11;
-8,5928347588629E-11;
-6,27865498006325E-11;
-4,14085130244125E-11;
-3,43021680614137E-11;
-3,79861908170433E-11;
-4,26227660232423E-11;
-3,76984590296026E-11;
-2,19004774831017E-11;
-3,06871641158269E-12;
1,06236503786538E-11;
1,90885614995674E-11;
3,11011457967076E-11;
5,24796317735877E-11;
7,97465606379599E-11;
9,84343738074373E-11;
9,32986865773964E-11;
6,09064428108848E-11;
9,83792240189138E-12;
-3,89254795709767E-11;
-6,60217835980946E-11;
-6,69727139954736E-11;
-4,94393375313175E-11;
-3,03123337052226E-11;
-2,22666407177848E-11;
-2,46770157457115E-11;
-3,11253166388053E-11;
-3,25249190575322E-11;
-2,5260106627802E-11;
-1,55185562735144E-11;
-5,72646839940736E-12;
4,92954996856335E-12;
1,88374305615029E-11;
4,06598291039564E-11;
6,49475931548667E-11;
8,11442061492906E-11;
7,95025887201698E-11;
5,45314552601512E-11;
1,4209013024581E-11;
-2,4823707234007E-11;
-4,70379437914974E-11;
-4,88423271631998E-11;
-3,65630110289048E-11;
-2,1271549869225E-11;
-1,34639882160178E-11;
-1,42211469613978E-11;
-2,08582346317255E-11;
-2,70657247465549E-11;
-2,78175895074647E-11;
-2,50333852245193E-11;
-1,88841564497566E-11;
-7,80520633965934E-12;
8,15379285041623E-12;
2,90345190601135E-11;
5,18982677118216E-11;
6,69259606758761E-11;
6,5894378850825E-11;
4,79319418205001E-11;
1,84455562596351E-11;
-1,15486983003721E-11;
-3,07600117049362E-11;
-3,34775306866633E-11;
-2,38679350168657E-11;
-1,19116931343826E-11;
-4,68272622472612E-12;
-4,79636022461117E-12;
-1,18995746321502E-11;
-2,16783026993584E-11;
-2,95568417712108E-11;
-3,3064226809334E-11;
-2,96339919901461E-11;
-1,89537756529958E-11;
-1,29092070204715E-12;
2,04858077495744E-11;
3,98671978085341E-11;
5,23600299286284E-11;
5,38256879403768E-11;
4,20855472792554E-11;
2,12809572405274E-11;
-1,18063479530242E-12;
-1,72917417807304E-11;
-2,08477986666555E-11;
-1,49260676966063E-11;
-5,66302262883804E-12;
2,6148174812393E-12;
2,93251714807193E-12;
-5,22219839494648E-12;
-1,78495418891263E-11;
-3,05497333137412E-11;
-3,75589284133241E-11;
-3,70552027813788E-11;
-2,7189257694127E-11;
-8,77794193565875E-12;
1,23588208823523E-11;
3,06542861381537E-11;
4,12574011312381E-11;
4,30364296035374E-11;
3,66495070340638E-11;
2,33013431805563E-11;
7,41358233476479E-12;
-5,22029863162924E-12;
-9,94491118677282E-12;
-6,9019614310583E-12;
9,49831733582047E-13;
9,03642221165496E-12;
9,90319170832321E-12;
9,4966798057976E-13;
-1,38679524572459E-11;
-3,08514670690487E-11;
-4,3381151287777E-11;
-4,37387198575318E-11;
-3,28998207782644E-11;
-1,45578013220797E-11;
5,58791126378584E-12;
2,10422426520888E-11;
3,07714494500985E-11;
3,35600923145169E-11;
3,14013892683469E-11;
2,50771787136164E-11;
1,44121439695845E-11;
5,32571569404112E-12;
4,70251642906817E-14;
2,19931739025512E-13;
6,67370257206987E-12;
1,36838686780826E-11;
1,48010886143202E-11;
6,37480351294832E-12;
-1,11150077363744E-11;
-3,1321480685203E-11;
-4,53919256910583E-11;
-4,88076082895998E-11;
-3,8758465268898E-11;
-1,93523898548547E-11;
-7,77664605782715E-13;
1,35441607361189E-11;
2,20579484672095E-11;
2,57207026901587E-11;
2,67411188049617E-11;
2,45632116756735E-11;
2,0802105703413E-11;
1,48065066403311E-11;
7,44004281413971E-12;
5,7062942159928E-12;
1,05396130709243E-11;
1,64120580040736E-11;
1,95952424025592E-11;
1,22327659725024E-11;
-7,58021301416752E-12;
-3,03605023247763E-11;
-4,84237396892085E-11;
-5,23669390633666E-11;
-4,081952172189E-11;
-2,33358608404209E-11;
-5,59650115866024E-12;
7,35138961399893E-12;
1,33933631386927E-11;
1,74944410990934E-11;
2,19124311087522E-11;
2,51944241114642E-11;
2,57502180660876E-11;
2,08172186258288E-11;
1,41048904388711E-11;
1,13651033978729E-11;
1,32136305257006E-11;
1,94279558411151E-11;
2,32278819031566E-11;
1,54379291147655E-11;
-4,39225709985781E-12;
-2,93993324217656E-11;
-4,93610481548881E-11;
-5,45881640251235E-11;
-4,34186680527817E-11;
-2,58088926711086E-11;
-1,05671951608923E-11;
2,06927191356003E-13;
5,38450171482677E-12;
1,0340770647166E-11;
1,81942274668938E-11;
2,48013511863093E-11;
2,86835890582892E-11;
2,72459438400311E-11;
2,08458790362084E-11;
1,49301113681558E-11;
1,5748196219062E-11;
2,24161992763691E-11;
2,48228596684634E-11;
1,79302202554904E-11;
-1,50340241656973E-12;
-2,84556657832845E-11;
-4,79977965375055E-11;
-5,3942536712916E-11;
-4,54865439740313E-11;
-2,86931874547369E-11;
-1,32163636078731E-11;
-4,00585939852989E-12;
-4,69873202539823E-13;
5,10019455754988E-12;
1,37518967189298E-11;
2,37151308109143E-11;
3,16763927504503E-11;
3,02429673234414E-11;
2,38702032578953E-11;
1,87165484681022E-11;
1,82790315443516E-11;
2,38478089678322E-11;
2,69348794243823E-11;
1,96505521214917E-11;
-1,28157906927971E-13;
-2,64015579572954E-11;
-4,78420757114312E-11;
-5,50807852723435E-11;
-4,60808086725272E-11;
-2,9748894516124E-11;
-1,60464557742336E-11;
-8,09198372942747E-12;
-4,35894117525764E-12;
-2,31821754898391E-13;
9,85081799502787E-12;
2,37661596042812E-11;
3,30593255724852E-11;
3,33387590907442E-11;
2,66915375107811E-11;
2,02947545545946E-11;
1,98253813919801E-11;
2,50325868445332E-11;
2,91304118670768E-11;
2,18265549982604E-11;
1,19883398753346E-12;
-2,52720948196581E-11;
-4,67589065951629E-11;
-5,3811519763062E-11;
-4,60609942560456E-11;
-3,04767783012131E-11;
-1,70248615623254E-11;
-1,1292950569327E-11;
-9,1030455357219E-12;
-4,05737309838914E-12;
7,85457524062411E-12;
2,34346606418455E-11;
3,40026255430934E-11;
3,53749903937481E-11;
2,90880360835439E-11;
2,18414352360649E-11;
2,08617042017443E-11;
2,54963120683958E-11;
2,85177465201657E-11;
2,23410324284391E-11;
3,42199536137178E-12;
-2,29035497710419E-11;
-4,4765634878454E-11;
-5,26153844813717E-11;
-4,47703104105006E-11;
-2,99573064699469E-11;
-1,882407566808E-11;
-1,40245465165595E-11;
-1,22915425474981E-11;
-7,20826793851559E-12;
5,49775205551327E-12;
2,19408869646117E-11;
3,4027079574859E-11;
3,6233752014448E-11;
3,02261086307084E-11;
2,31278071619973E-11;
2,0826207059241E-11;
2,50701746763436E-11;
2,9479579144485E-11;
2,34807781842811E-11;
4,20916801619259E-12;
-2,10683886542918E-11;
-4,21554077027091E-11;
-5,04125866237871E-11;
-4,30566144879666E-11;
-2,96682210341836E-11;
-2,00230257410112E-11;
-1,51373154033031E-11;
-1,42648191706371E-11;
-1,03998993781178E-11;
2,92871109579763E-12;
2,01357599568391E-11;
3,37658188040197E-11;
3,72873381174616E-11;
3,12499503091573E-11;
2,43896702212491E-11;
2,14951336731506E-11;
2,51931243146572E-11;
2,92520512880799E-11;
2,32643307316054E-11;
5,48002454775445E-12;
-1,93198496611528E-11;
-3,97642776554106E-11;
-4,76883869796928E-11;
-4,25393120364929E-11;
-2,96743039116165E-11;
-1,96817087111678E-11;
-1,72621983546195E-11;
-1,74053385516835E-11;
-1,18577823069541E-11;
1,68248003491676E-12;
1,8729451474968E-11;
3,29809275939677E-11;
3,75381914809303E-11;
3,17777523684118E-11;
2,36740086684855E-11;
2,11645740163676E-11;
2,44174837780205E-11;
2,70299400798607E-11;
2,27661902052089E-11;
6,2591752210387E-12;
-1,84587805150959E-11;
-3,76099285368868E-11;
-4,51583512779196E-11;
-4,01037084263052E-11;
-2,82059616114015E-11;
-2,01393955553678E-11;
-1,78694714100839E-11;
-1,85952240221393E-11;
-1,4177520905076E-11;
-2,92682478291127E-13;
1,79506983592556E-11;
3,27046270375432E-11;
3,63674699196201E-11;
3,0823868648848E-11;
2,36936894876181E-11;
2,04933690246537E-11;
2,31028185723086E-11;
2,70027190373281E-11;
2,25821004308315E-11;
6,30119922627656E-12;
-1,529523387213E-11;
-3,42829587700781E-11;
-4,26393265880545E-11;
-3,75044627322824E-11;
-2,64496989774725E-11;
-1,96665918054629E-11;
-1,95596141516035E-11;
-1,98986342804646E-11;
-1,46673427756095E-11;
-1,97977328678503E-12;
1,58314976979831E-11;
3,13460528087486E-11;
3,63900473102953E-11;
3,09092409415003E-11;
2,31675003793547E-11;
1,99868473461561E-11;
2,23214005904404E-11;
2,59536302378259E-11;
2,25888267563244E-11;
7,45567095780308E-12;
-1,40475191978343E-11;
-3,22849330675407E-11;
-3,92520305346558E-11;
-3,3903645433288E-11;
-2,53771378117963E-11;
-2,02107095388458E-11;
-1,91590737027096E-11;
-2,03381763931276E-11;
-1,58334189408391E-11;
-3,16524624250669E-12;
1,38947142115365E-11;
2,95897837465065E-11;
3,42970973657203E-11;
2,95820408703154E-11;
2,27299986506208E-11;
1,82395523378907E-11;
2,16077278098279E-11;
2,54583876752716E-11;
2,05883901509035E-11;
7,32516702030282E-12;
-1,25163491229951E-11;
-2,9470685951669E-11;
-3,54080400898532E-11;
-3,22705223587191E-11;
-2,47271221497216E-11;
-1,86837167046846E-11;
-1,82001921155363E-11;
-1,99826368263773E-11;
-1,65905686697955E-11;
-4,45704501507313E-12;
1,34133156848817E-11;
2,79025572667917E-11;
3,23669933287531E-11;
2,84763224306696E-11;
2,14158181389949E-11;
1,75610177715128E-11;
1,9451258149836E-11;
2,28042928475384E-11;
1,97931290237881E-11;
6,82967443582866E-12;
-1,09596080421462E-11;
-2,60503209443688E-11;
-3,19543186490003E-11;
-2,91976033441551E-11;
-2,31019068299529E-11;
-1,8117207124548E-11;
-1,86731877226476E-11;
-1,98557508648374E-11;
-1,53154174987548E-11;
-4,59339889461275E-12;
1,14362475859942E-11;
2,5321730104808E-11;
3,00282752015958E-11;
2,65024840462229E-11;
2,0347542246976E-11;
1,77054712182318E-11;
1,91112097760864E-11;
2,05627555732691E-11;
1,84504886870632E-11;
7,67698152378353E-12;
-9,35913612227806E-12;
-2,28227398226358E-11;
-2,92994058642885E-11;
-2,69487969658293E-11;
-1,97633029341205E-11;
-1,63105484014521E-11;
-1,70852097913191E-11;
-1,94245809687639E-11;
-1,63426858919678E-11;
-4,39417826134429E-12;
9,98693507238702E-12;
2,27696004236457E-11;
2,91588108582852E-11;
2,55568481219756E-11;
1,90743134371266E-11;
1,68321545956865E-11;
1,84814398412579E-11;
1,99688678199882E-11;
1,67493251896753E-11;
6,77957252890419E-12;
-8,42053373125196E-12;
-2,0883847569697E-11;
-2,54842868432268E-11;
-2,44783204763776E-11;
-1,9153519945128E-11;
-1,56433337369911E-11;
-1,7411108939461E-11;
-1,87101640773889E-11;
-1,56957161061843E-11;
-5,72453126269758E-12;
9,30135447079222E-12;
2,10597714842726E-11;
2,55536524561305E-11;
2,308923789236E-11;
1,72969313826708E-11;
1,49470673506639E-11;
1,58515355640067E-11;
1,64809529722837E-11;
1,50987841661897E-11;
7,01083286811736E-12;
-6,79320580066966E-12;
-1,83054770835861E-11;
-2,3489464351465E-11;
-2,18374329812395E-11;
-1,70873123627402E-11;
-1,52082110786578E-11;
-1,68547464035263E-11;
-1,81418876215785E-11;
-1,45716805280437E-11;
-5,27085304279113E-12;
8,28062949048454E-12;
2,00927839442861E-11;
2,38900652851488E-11;
2,17932468255533E-11;
1,64720641468756E-11;
1,32713593614608E-11;
1,5028628085671E-11;
1,66123423294836E-11;
1,49872912201937E-11;
6,31359647200076E-12;
-6,65144203717451E-12;
-1,60088965364644E-11;
-1,99909725703288E-11;
-1,84440359625929E-11;
-1,45810273925576E-11;
-1,32622111067491E-11;
-1,48285432126976E-11;
-1,67000143749851E-11;
-1,51124025282117E-11;
-6,28831264654864E-12;
7,0013364585293E-12;
1,7288867351395E-11;
2,17455304413228E-11;
2,01297029281109E-11;
1,47773983326912E-11;
1,2007209806952E-11;
1,35554883558955E-11;
1,53937606410472E-11;
1,3418744744609E-11;
6,05457233428354E-12;
-4,35916536394712E-12;
-1,3807165624103E-11;
-1,80043602945136E-11;
-1,68150672001999E-11;
-1,43616339604591E-11;
-1,27804917705044E-11;
-1,43421781458821E-11;
-1,66884761282856E-11;
-1,41314681117532E-11;
-6,20565725910731E-12;
5,75097281973149E-12;
1,56737206942147E-11;
1,89146102416999E-11;
1,81486740144527E-11;
1,44102944634037E-11;
1,10844650239029E-11;
1,19892628527673E-11;
1,3869302530275E-11;
1,1991743241161E-11;
5,46659408216732E-12;
-2,66729664985587E-12;
-1,09469036854516E-11;
-1,59032155177856E-11;
-1,4398970612559E-11;
-1,19437552852819E-11;
-1,09973864943216E-11;
-1,2709801066654E-11;
-1,57077906399762E-11;
-1,27142823393986E-11;
-5,39158722271567E-12;
4,15629742488126E-12;
1,43366105720414E-11;
1,8140362623801E-11;
1,61696636780813E-11;
1,26222177065477E-11;
9,97221292858637E-12;
1,0470407677893E-11;
1,18978351859899E-11;
1,08731720818972E-11;
5,77457281447372E-12;
-2,32593361074536E-12;
-9,54713543883771E-12;
-1,28151488796653E-11;
-1,20515073234185E-11;
-1,06567023733911E-11;
-1,03860911523453E-11;
-1,12272393138624E-11;
-1,33088038126223E-11;
-1,26059324736623E-11;
-5,90680931199054E-12;
4,30007420834097E-12;
1,28419686888223E-11;
1,61573384975202E-11;
1,50994227084448E-11;
1,16832300767347E-11;
9,0993991600829E-12;
9,12746098062951E-12;
1,00525754355821E-11;
9,38400219834321E-12;
4,62194821027888E-12;
-1,8190883895983E-12;
-7,16554527464272E-12;
-1,05187134565881E-11;
-1,07248619497763E-11;
-9,41531569844308E-12;
-8,56140332317416E-12;
-1,01254012144578E-11;
-1,25914994636573E-11;
-1,13456150175991E-11;
-5,53383719530007E-12;
2,93100434412134E-12;
1,03172410771141E-11;
1,38736834527798E-11;
1,37416074178088E-11;
9,91353134331801E-12;
6,86270930565026E-12;
8,05249506172667E-12;
9,54622715372942E-12;
9,17700845438796E-12;
5,20154469473098E-12;
-1,05979303411765E-12;
-5,7619344793659E-12;
-9,17844848541836E-12;
-9,25599050423333E-12;
-7,50410643446297E-12;
-8,02085945731567E-12;
-9,58288689263444E-12;
-1,1194941746748E-11;
-1,04199893599469E-11;
-4,66196539514392E-12;
3,1553713011389E-12;
9,56797827703252E-12;
1,27128547513222E-11;
1,12541331617182E-11;
8,58805956017937E-12;
7,74764340140413E-12;
7,18685169978344E-12;
7,41483451898301E-12;
7,83504333932987E-12;
4,58667443099719E-12;
-8,55100604784884E-13;
-4,35969796041452E-12;
-6,58123396128521E-12;
-7,60148150455404E-12;
-6,310681536499E-12;
-6,30216829147586E-12;
-8,7689183335497E-12;
-1,02035122201995E-11;
-9,39904693967064E-12;
-4,90363829528836E-12;
2,36598944388687E-12;
7,77578145241542E-12;
1,0362406639741E-11;
1,00822878762243E-11;
8,28725607414258E-12;
7,13009286819962E-12;
6,19562013145498E-12;
6,72126840982184E-12;
7,08826272957801E-12;
4,32379026716671E-12;
6,21630201262582E-14;
-4,02042856815904E-12;
-5,81075061744267E-12;
-5,24217140102857E-12;
-5,10194330294243E-12;
-5,17477053247784E-12;
-6,81344264507045E-12;
-9,27413884218925E-12;
-8,31339502411713E-12;
-4,27031120723786E-12;
1,32731994606072E-12;
6,8233887031E-12;
9,2765986127324E-12;
8,27645050705279E-12;
6,93864825826798E-12;
5,19722460986323E-12;
4,38768513175825E-12;
6,20417889303374E-12;
6,26178517020882E-12;
4,49247127769072E-12;
1,07030335127889E-12;
-2,91933123874982E-12;
-4,23392502623928E-12;
-4,92799044344404E-12;
-4,58688381240594E-12;
-4,49720619951349E-12;
-7,26584929946867E-12;
-8,12738692006858E-12;
-6,23687563399299E-12;
-4,16060313387816E-12;
-2,40203253313088E-14;
5,61210347497242E-12;
8,08066632183111E-12;
6,98157648805959E-12;
5,83168729096658E-12;
4,49135013090102E-12;
3,74877458406007E-12;
4,43842208316477E-12;
5,07577734883069E-12;
4,45505688191719E-12;
1,08880601698109E-12;
-2,09156518730043E-12;
-3,02861044494922E-12;
-3,12415143364443E-12;
-3,19354066148475E-12;
-4,19731643150269E-12;
-5,48621033700362E-12;
-6,8861999141777E-12;
-7,6710441561778E-12;
-4,56357037606372E-12;
6,93012935808741E-13;
4,62705024684401E-12;
6,85568705659649E-12;
6,08242979431848E-12;
4,66056804066775E-12;
3,3624378812955E-12;
2,92774887587129E-12;
4,73184929356566E-12;
4,480885940977E-12;
3,74656187914863E-12;
2,44395916723347E-12;
-4,5996418771519E-13;
-1,43214139930955E-12;
-2,55183259426532E-12;
-2,98466917528196E-12;
-2,61612229931671E-12;
-4,80940740389292E-12;
-6,13233209095419E-12;
-5,04501358316002E-12;
-3,61236777716045E-12;
-3,41427626401672E-14;
3,41084390898128E-12;
4,2246099149115E-12;
5,1403637335343E-12;
4,22339532798588E-12;
2,33882203640471E-12;
2,71983813862409E-12;
3,55391407921656E-12;
3,62507693476939E-12;
2,71809520308776E-12;
1,29221373560986E-12;
6,23239895225668E-14;
-5,08688372905835E-13;
-6,4461663449869E-13;
-1,25427015542346E-12;
-2,99620889183577E-12;
-4,32792403993692E-12;
-5,0989589103288E-12;
-5,19367615199392E-12;
-3,20284289341459E-12;
-6,28938062611179E-13;
2,81099445926764E-12;
4,32061946763972E-12;
4,10845998009823E-12;
4,19502278558217E-12;
2,49480073015555E-12;
2,42229583506924E-12;
2,70764782829934E-12;
2,44956055452377E-12;
2,53943131444342E-12;
1,36590847507675E-12;
1,0107243542807E-12;
2,39589353286655E-13;
-4,69376176483662E-13;
-9,03921192670479E-13;
-2,17828495750364E-12;
-2,96924516235737E-12;
-4,46672181942747E-12;
-4,66833675562687E-12;
-2,53092704504492E-12;
-1,27018187655323E-13;
2,2557010238276E-12;
3,20653057133072E-12;
2,84125529380335E-12;
2,10892970307072E-12;
1,07890336008865E-12;
1,14701157777473E-12;
2,16681765135291E-12;
2,73206967841803E-12;
2,66574412285024E-12;
1,36135825394616E-12;
2,67452654780105E-13;
4,30056821558048E-13;
-2,77305094573391E-14;
-4,65741976970256E-13;
-1,54147695039183E-12;
-3,26606030736239E-12;
-3,60130802140693E-12;
-3,65004485492182E-12;
-2,34483036889989E-12;
-4,62145092429063E-13;
7,90738567517829E-13;
2,84082256305564E-12;
2,57491955674827E-12;
1,38655091729923E-12;
1,42400341204083E-12;
9,8937261829171E-13;
2,05558915261737E-12;
2,18494023526515E-12;
9,61263980682122E-13;
1,93674406326218E-12;
1,53329139343597E-12;
6,69443982138769E-13;
1,10283606753495E-12;
-3,83772125507737E-13;
-1,01413774203214E-12;
-1,23200663212037E-12;
-2,42776142650754E-12;
-2,60116067606829E-12;
-2,40675771373484E-12;
-5,9519583658302E-13;
7,16422114245804E-13;
7,01785548559343E-13;
1,70992117352392E-12;
1,81326421450865E-12;
1,29755015961456E-12;
8,15377507899904E-13;
5,6142998148686E-13;
1,25038062641938E-12;
1,45682998780491E-12;
1,74313979538898E-12;
1,87300668178638E-12;
1,00506301834355E-12;
9,42577487020884E-13;
6,98537467552295E-13;
-4,70204284214893E-13;
-1,43841558000286E-12;
-2,52026246910145E-12;
-2,30566361135192E-12;
-8,18619745367637E-13;
-6,77999018137791E-13;
-3,65122147840258E-13;
1,14998569193436E-12;
1,56511450541763E-12;
1,53287098447882E-12;
5,12972971346919E-13;
-7,99776315100514E-13;
4,41980392677159E-13;
1,39356852201377E-12;
1,19390420637196E-12;
2,24004017671802E-12;
2,30118588595155E-12;
1,28063137204428E-12;
1,2135689204869E-12;
4,40514506434488E-14;
-6,63153025765832E-13;
-5,73453861570233E-13;
-1,66939481619612E-12;
-1,74330153790364E-12;
-1,16918283700046E-12;
-6,60247815593287E-13;
1,5272557129196E-13;
6,33736713725629E-13;
5,2937639028136E-13;
8,73272683875529E-13;
7,72019176208819E-13;
-3,34345630680908E-13;
9,92382827883591E-14;
5,63976918528254E-13;
9,48665663906979E-13;
2,01222760687855E-12;
2,33301921446702E-12;
2,19606677473066E-12;
1,9377831357547E-12;
1,81368009659729E-12;
5,03211905312394E-13;
-1,06287400504563E-12;
-1,70443645940838E-12;
-1,74083376771167E-12;
-1,26998719991108E-12;
-1,30543325386571E-12;
-8,58230906181669E-13;
1,44176730878857E-13;
6,6204657869815E-13;
7,11818844774934E-13;
7,95954630796423E-13;
-2,1977257279835E-13;
-1,17842597727804E-12;
3,86225913963064E-13;
1,3099183913508E-12;
1,67554587162975E-12;
2,60026844629228E-12;
1,97497366454022E-12;
1,32178201694638E-12;
8,40805453159429E-13;
1,07744052021995E-13;
-1,06837140992194E-13;
-9,00994566955808E-13;
-7,71683442137347E-13;
-4,83596151141072E-13;
-1,05719777451977E-12;
-3,23351072233582E-13;
-3,04673156404957E-13;
-5,22983644016882E-14;
6,03043267438789E-13;
1,90012180483908E-13;
3,60302813587704E-13;
-7,22244558860743E-13;
-4,79891177213285E-13;
1,30724162962701E-12;
2,01811848396379E-12;
3,37321122325974E-12;
2,84172409250217E-12;
1,96390364655055E-12;
1,88927621182417E-12;
2,74684613336412E-13;
-3,48386540720665E-13;
-1,75545669575108E-13;
-9,01973647221298E-13;
-7,55826293792547E-13;
-2,7895462037533E-13;
-1,30187636922858E-12;
-5,18317654590454E-13;
1,08438046266586E-12;
-9,16129339085505E-14;
-1,17759739360692E-13;
7,77602923203259E-13;
-3,97681687541917E-13;
-8,13159532251153E-13;
3,46290734909558E-13;
1,72930650662092E-12;
2,72857452701854E-12;
2,8818206548494E-12;
2,50167109862648E-12;
1,6563561719995E-12;
6,62915763268248E-13;
-3,58748567760538E-13;
-4,36354319897046E-13;
-3,59561543875498E-13;
-1,23745131632792E-12;
-1,46168715867109E-12;
-1,30604237541555E-12;
-8,63246171053356E-13;
-6,40048869972276E-13;
-2,72612226516485E-13;
1,94079075503571E-13;
-7,44793801037555E-13;
-4,13587493953191E-13;
-1,25603311852959E-13;
-9,13210740934232E-14;
2,01332367693092E-12;
2,56264102120265E-12;
2,20087762570729E-12;
2,34509720265607E-12;
2,14014393810197E-12;
1,40179472211682E-12;
-2,21698593206636E-13;
-2,18534988251652E-14;
4,30082306732113E-13;
-9,16175553119255E-13;
-9,2637329790972E-13;
-5,27006720318529E-13;
-9,57888602026814E-13;
-1,11929411112093E-12;
-4,97664466064191E-13;
3,94387793097436E-13;
-7,86795145242984E-13;
-1,10671446425591E-12;
9,37294229355469E-14;
7,26994195552274E-14;
1,67275925128661E-12;
3,14281488173206E-12;
2,45454194613069E-12;
2,37683205365072E-12;
1,69516719687979E-12;
3,33592667191909E-13;
4,42251899293739E-14;
9,2302984645844E-14;
2,93391439681935E-13;
-1,57902442931731E-13;
-4,0274051528137E-13;
-2,72144909518945E-13;
-7,92807302603735E-13;
-8,84492043693286E-13;
-6,40176713933307E-13;
-1,04360102028266E-13;
-1,13637919943965E-12;
-1,66931218041042E-12;
3,07976894773382E-14;
4,86715520094546E-13;
1,75075676394025E-12;
2,8491291998556E-12;
2,61977152976862E-12;
3,10229108303844E-12;
2,02962172778551E-12;
1,528521001102E-12;
1,56123890780913E-12;
3,36604189929638E-13;
9,97827522114805E-13;
7,79994561732911E-13;
-1,35747371492391E-13;
-2,5871790522354E-14;
-9,97812923667116E-13;
-2,76375761456059E-13;
2,35043306773377E-15;
-1,21108914261092E-12;
-1,04419910141965E-12;
-1,15359272727145E-12;
-1,1678516691856E-12;
-3,8255941842183E-13;
1,39714800703198E-12;
2,52222447560314E-12;
2,12037716638204E-12;
1,99807405403101E-12;
1,40104469902217E-12;
1,26067450824034E-12;
1,94535251013362E-12;
1,80114304173839E-12;
1,19359057771149E-12;
3,27050708360832E-13;
-9,06950851549222E-13;
-1,57576972121623E-12;
-1,3146717151028E-12;
-1,06840389404593E-12;
-8,63722808380716E-13;
-2,51449713271475E-13;
-4,81346964872172E-13;
-1,35400474406407E-12;
-1,11164021848129E-12;
-5,90883047988905E-15;
1,4450360975021E-12;
2,68903961243677E-12;
3,19113795348998E-12;
2,74789123807154E-12;
1,56079726706109E-12;
9,07343593538507E-13;
1,26187593319314E-12;
1,76859557015733E-12;
8,39371239511831E-13;
-6,84839683219704E-13;
-9,22559258697269E-13;
-9,16651334025974E-13;
-1,18292323405766E-12;
-1,04751402801911E-12;
-6,94957073688003E-13;
-1,58044454101187E-13;
-3,86957842680014E-13;
-1,33185696407143E-12;
-7,9649480794911E-13;
7,95239355727607E-13;
1,17041989595519E-12;
1,03050738146971E-12;
2,05725136077548E-12;
2,19039548753625E-12;
1,45975040134112E-12;
1,2524484072118E-12;
3,57711496003709E-13;
-5,49863835496563E-14;
5,59463065028988E-13;
4,05640664757586E-13;
-1,38221209402563E-12;
-1,9229289057939E-12;
-9,68619273128819E-13;
-1,66773526482351E-12;
-1,23689936427588E-12;
2,37760940603493E-13;
-3,79057628569104E-13;
-9,81809560535543E-13;
-1,0040609501784E-12;
-5,60368945862048E-13;
1,31439250474286E-12;
2,57441539015673E-12;
2,8607750084547E-12;
2,67449597499018E-12;
1,97451722149553E-12;
1,95412943164963E-12;
1,37424465647903E-12;
6,92391731648566E-13;
8,90738813850856E-13;
3,09232579886666E-13;
-5,79561171853824E-13;
-1,10542668769457E-12;
-1,3657170848256E-12;
-1,12737484123006E-12;
-9,09960346593932E-13;
-8,45408747724769E-13;
-7,72064931858999E-13;
-1,06180668457597E-12;
-6,36488509455168E-13;
5,15030854715728E-13;
8,4157305726318E-13;
1,51951136316144E-12;
1,7981533222387E-12;
1,53481368927562E-12;
1,94663538793322E-12;
1,30690794076799E-12;
9,64308799349803E-13;
1,49250786070682E-12;
1,38058413882458E-12;
4,29976242452902E-13;
-7,03612432519854E-13;
-9,63458585840189E-13;
-1,00322906626399E-12;
-7,70804748052464E-13;
-5,6991382257135E-13;
-6,4079462656954E-13;
-4,78136613224956E-13;
-6,38721579136911E-13;
-1,07157791166976E-12;
-4,3264530121274E-13;
1,31574738758051E-12;
2,11587876687654E-12;
2,28714658990767E-12;
1,86605372970101E-12;
1,20457069785938E-12;
1,59709495212316E-12;
9,8490778788597E-13;
6,42223570284462E-13;
1,59860802785639E-12;
8,13249513098934E-13;
-3,29852940939663E-13;
-4,85708190480005E-13;
-6,95792705835124E-13;
-5,36630660367518E-13;
-7,34987664572544E-13;
-8,30359283125507E-13;
-5,53790516942127E-13;
-1,03747061208539E-12;
-6,18440139648554E-13;
6,83911385943845E-13;
1,13435926870315E-12;
1,63727913978899E-12;
2,57167483087727E-12;
2,51886096305449E-12;
1,3314402481259E-12;
4,60958580406933E-13;
5,14931690705455E-13;
1,28106197090595E-12;
1,11918707836231E-12;
1,70387906377729E-13;
4,81463136716049E-13;
-7,28357390827555E-13;
-2,06298663706167E-12;
-6,13119832630513E-13;
-7,85555222154915E-14;
-6,36002124102982E-13;
-5,83966187084932E-13;
-6,65746921256418E-14;
-7,03002234432653E-13;
-6,9217802794234E-13;
1,90776216885178E-12;
2,07808503011312E-12;
1,18807918864499E-12;
1,97020590727743E-12;
1,32150928664688E-12;
9,84040887841501E-13;
1,18510861833084E-12;
8,7667272021208E-13;
1,13453572504176E-12;
9,01683908804792E-13;
4,77340244470401E-13;
-7,16039031644002E-13;
-1,15583326267689E-12;
-7,49479165175763E-13;
-1,06361644655796E-12;
-4,03503320396511E-13;
-1,09816718791481E-12;
-1,38199016478398E-12;
-1,99059840497532E-13;
-5,98185060228588E-13;
1,92150002846342E-13;
1,19954182554401E-12;
9,25286506250424E-13;
1,26987309000372E-12;
1,29761056617784E-12;
1,20679711365241E-12;
1,53790239270718E-12;
1,82958893834807E-12;
1,21386433201464E-12;
-9,29540645855805E-14;
-3,14002737684758E-13;
-8,88717243419145E-13;
-1,40288322743409E-12;
-1,42541664321967E-13;
5,03222797689831E-14;
-9,10561328151285E-13;
-9,08128004510101E-13;
-1,91987698550697E-13;
3,24015633962333E-13;
5,93878606308569E-14;
3,43044719850889E-13;
1,12957507812195E-12;
1,03952404980657E-12;
1,08763077513492E-12;
1,14904736119422E-12;
9,29175366899942E-13;
1,33767980275519E-12;
1,19772230586192E-12;
7,86719417005335E-13;
6,4710868813197E-13;
-4,68003120137325E-13;
-8,33732109645919E-13;
-2,01333497993361E-13;
-4,1786203801595E-13;
-9,89561984678305E-14;
-2,6385871171938E-13;
-1,0706013988147E-12;
1,16904475143028E-13;
3,98955728899225E-14;
-5,05876624830758E-13;
1,15699042028055E-12;
1,17176665445348E-12;
1,4031712156269E-12;
2,31687744979485E-12;
1,21122295285233E-12;
8,95783843549388E-13;
1,36013830765142E-12;
1,54307239135875E-12;
9,25362869486262E-13;
1,41577565453349E-13;
1,01159274350886E-13;
-8,95074069041025E-13;
-8,29869745862268E-13;
-4,88731092787992E-13;
-9,59956652865987E-13;
3,75491811260085E-14;
-3,98181015004887E-14;
-8,68891349763796E-13;
-1,02689119290877E-13;
3,05611255256669E-13;
9,72880460131936E-13;
2,1045637061161E-12;
1,04202041516998E-12;
7,2482995067739E-13;
1,79338729154467E-12;
1,0934049104146E-12;
6,96112722104371E-13;
1,0361362370141E-12;
8,49835080505751E-13;
4,44662889686987E-13;
5,41684424036271E-13;
1,54525169371723E-13;
-8,3992645563876E-13;
-4,34647434678805E-14;
2,68083975401768E-13;
-2,24971312346086E-13;
2,21569699740332E-13;
-8,32425981595141E-14;
1,47500790741083E-13;
6,32035432147623E-13;
3,92507732949614E-14;
6,17222706593705E-13;
6,91106813194E-13;
4,50014741104241E-13;
1,93723281682349E-12;
1,70595755650932E-12;
7,89901373118011E-13;
8,62126141922977E-13;
9,18087613118121E-13;
1,00039221328429E-12;
3,60420871960944E-13;
1,81408337318051E-14;
-6,98116499644021E-13;
-8,09658590887985E-13;
-2,9895342409333E-13;
-6,99491403049177E-13;
4,8152677723066E-13;
2,72813518092293E-13;
-1,00633519410291E-12;
1,01449312211899E-13;
2,6682604916287E-13;
9,70295697725257E-14;
4,84007633113294E-13;
6,53844444487869E-13;
9,07331426086932E-13;
1,09722713145293E-13;
6,76374587888958E-13;
1,79087560935931E-12;
9,81824957009806E-13;
7,177578080177E-13;
3,29977709122513E-13;
-4,17629654827697E-13;
-2,70312806338648E-13;
-2,57007587956861E-13;
-5,15162136121005E-13;
-5,08764905562142E-13;
-1,20535191180496E-13;
-4,68960886449927E-14;
-5,87458914302487E-14;
5,34561458834114E-13;
1,09389511232904E-12;
9,48486323958335E-13;
7,55695784685434E-13;
7,25549932493949E-13;
5,79334673646629E-13;
1,35834455881626E-12;
1,45715913166086E-12;
3,88311959286631E-13;
7,77255714111462E-13;
9,61792710479332E-13;
2,45088136696209E-14;
-3,8496779746211E-13;
-3,8764359939368E-13;
-1,11297416173068E-13;
-5,24735271691277E-13;
-8,82105855467666E-13;
-2,06767938834273E-13;
-9,05493425182253E-14;
-4,92237097511085E-13;
-2,25989152765576E-13;
5,16874257226917E-13;
4,31912253442527E-13;
7,16830534119593E-13;
1,4042067520068E-12;
9,4586464952708E-13;
1,00590359655472E-12;
1,32643583022111E-12;
1,0110111484955E-12;
5,7149208324331E-13;
8,3858646037972E-13;
1,3147091485902E-12;
1,93711616601848E-13;
-6,0648017053456E-13;
-3,39390237624475E-13;
-3,87652172381055E-13;
-4,7318203021086E-13;
-4,25230959087843E-13;
-2,05092061553523E-13;
1,96613973909379E-13;
5,02768206408843E-13;
6,36017340794931E-13;
8,66577593907547E-13;
1,11883961589483E-12;
1,03812792456697E-12;
7,22523331800331E-13;
9,81858634941325E-13;
8,1814547203588E-13;
4,53299091830548E-13;
9,97003060522755E-13;
2,18273877045926E-13;
-7,89818261840713E-13;
3,25857523137938E-14;
5,23257266673198E-13;
-1,12285551790586E-13;
-3,12553399918733E-14;
5,36880363936995E-13;
4,53920714110978E-13;
4,08145250706954E-13;
1,24322520530305E-13;
1,26029303840631E-13;
6,59332401374625E-13;
5,37845671510765E-13;
7,80405247587392E-13;
6,90566548067821E-13;
1,51139973417865E-13;
1,03903922584299E-12;
7,73951068887159E-13;
8,06982903914747E-14;
1,51029168745824E-12;
1,30423749235095E-12;
-6,0120110151014E-14;
-2,455307223102E-13;
-5,14799098779195E-13;
1,80348996381386E-13;
6,65960957202338E-13;
-1,0618483118407E-14;
-1,66967588826825E-13;
-2,78798591612861E-13;
5,26115360242102E-13;
5,18854971937257E-13;
-5,04065705953527E-13;
5,43464780636491E-13;
9,72346674938154E-13;
8,76106679355354E-13;
9,0416155651023E-13;
9,85030637750454E-14;
2,38043948224921E-14;
4,14798140068135E-13;
1,29298130579198E-12;
1,1512064409377E-12;
6,00146721875013E-13;
1,21874163173755E-12;
7,00718691772929E-14;
-1,12615407088611E-12;
-3,9075555528671E-14;
7,19461073469272E-13;
9,19933271791131E-13;
3,39864464787716E-13;
-7,82048936452279E-13;
2,48970707496458E-13;
1,08766610632014E-12;
2,85455348589299E-13;
4,22161144730937E-13;
-3,33038786540196E-16;
-3,41327419570792E-13;
5,45668718961657E-13;
5,96846093887191E-13;
1,14336753447828E-12;
1,40417137550536E-12;
6,53596076358331E-13;
3,9225271016235E-13;
-4,87902286454517E-13;
-1,9168296885808E-13;
9,07883474431751E-13;
2,4746334234534E-14;
3,36890242207374E-13;
8,3590289229412E-13;
-1,17336227286548E-13;
6,63039584678983E-13;
8,40709001931612E-13;
7,86613614951994E-13;
1,28502608210445E-12;
3,32247851309808E-13;
6,15841818090663E-14;
-7,58839006379154E-14;
-1,61977977048585E-13;
4,02845017294723E-13;
9,19779617896849E-13;
7,24307082525359E-13;
-1,34513914476248E-13;
7,8636396620725E-13;
8,42119657796355E-13;
-3,39051197452788E-13;
-5,63250500891159E-14;
-2,33245404974551E-13;
-6,19061709085623E-14;
3,43148015307725E-13;
-3,45034794053744E-13;
-7,46291988318031E-13;
-4,92526051431866E-13;
1,25699409802018E-13;
6,35232740741218E-13;
8,94375293801969E-13;
9,40734383304906E-13;
8,31779885139725E-13;
8,55552077660565E-13;
1,98179596952331E-13;
6,41723296796523E-14;
1,32583144373257E-12;
1,17405186078499E-12;
6,10224461725756E-13;
4,89931698524899E-13;
-1,42489093517849E-13;
3,24930844699746E-13;
9,18871751482866E-13;
4,80413248536869E-13;
-2,71237633539816E-13;
-1,32993078906858E-13;
1,11410097746621E-13;
-6,35066922476436E-15;
3,99187337239282E-13;
-6,32237911775701E-13;
-8,20003462971972E-13;
8,61885792098485E-13;
1,10582350802301E-12;
7,19640707563859E-13;
3,72492640890043E-13;
4,17912959426392E-13;
7,84201862129181E-13;
2,00465900835565E-13;
1,08668628404267E-13;
2,72301763377327E-13;
-6,03910328485256E-13;
4,97208679242059E-14;
1,07145387031805E-12;
4,91680135535402E-13;
6,23589608473967E-13;
7,74593039298122E-13;
4,95261265130135E-13;
6,17009705593189E-13;
1,3005778587803E-13;
-1,48637668059548E-13;
5,88061565814071E-13;
7,71158631019544E-13;
1,663937691258E-13;
-2,83879898728012E-13;
3,37301400261293E-13;
9,24595825886036E-13;
2,17065263593088E-13;
2,328376625435E-13;
-8,14506480042007E-14;
-7,6155339876293E-13;
2,62069872199382E-14;
3,50909445500369E-13;
-8,82241186285675E-14;
-1,08636476641719E-13;
6,73492126623877E-13;
4,94106299367852E-13;
-5,16658849115663E-14;
3,89771179593705E-13;
1,55202225303436E-14;
2,78540784134664E-13;
1,00975107667394E-12;
7,75665597528816E-13;
2,88866324084665E-13;
7,47555578741128E-13;
9,96359950665671E-13;
3,65610846443317E-13;
1,35523318121056E-12;
1,08236666063349E-12;
-1,48269918622061E-14;
5,59998895482647E-13;
6,65416243347691E-13;
6,27139298944355E-13;
5,99791291860473E-13;
5,54825796734868E-13;
2,75255473484425E-13;
-8,33640015112214E-14;
6,49555606981841E-14;
6,51911895143613E-13;
1,10741817998357E-12;
4,39309426901348E-13;
2,67590725191312E-13;
5,37490511616111E-13;
4,37788232306799E-13;
6,09238179465488E-13;
4,99147200439328E-13;
3,09503762808742E-13;
7,11618115771651E-14;
2,38904108257908E-13;
6,33337959142443E-13;
2,40388311414941E-13;
2,64876451933868E-13;
2,71806911716903E-13;
-2,53735503771516E-13;
3,24758569335228E-13;
6,72517325528179E-13;
3,75537069745404E-13;
8,31693301452724E-13;
9,87253995261152E-13;
2,85181045360528E-13;
-1,1076356525461E-13;
3,00619643767098E-13;
5,14868753139592E-14;
-1,49776234516629E-13;
9,33841127034189E-14;
2,58514562719251E-13;
1,10288048483014E-12;
6,52718651899779E-13;
1,76141844187449E-13;
4,40568454922188E-13;
-3,74215210619771E-13;
5,84085956846982E-14;
9,45671987068548E-13;
7,33773223558511E-13;
2,40918998063543E-13;
-9,51213508148641E-15;
8,07659615256245E-13;
5,31009535305469E-13;
1,723174217752E-13;
6,03100483236674E-13;
-4,63741269357759E-14;
-2,34580422966606E-14;
1,52549652878088E-13;
-7,11129162569656E-14;
-3,32576355450049E-13;
-2,14110343144555E-14;
7,86974358945177E-13;
7,16734840149181E-13;
7,13651868809284E-13;
4,00693963331444E-13;
2,14335928273651E-13;
3,66171109905706E-14;
-1,06898744155451E-13;
4,55665774998539E-13;
-2,73662893880922E-13;
-4,7999887697508E-15;
8,90494383301461E-13;
1,4385719374855E-13;
9,48616086317359E-13;
8,22453782973984E-13;
-2,13486992647534E-13;
8,63112914947655E-13;
5,60815896639528E-13;
-1,42982633287104E-13;
-7,50017058997545E-14;
-2,35111413704101E-14;
5,67659244179146E-13;
6,10778532769108E-13;
5,06890720929883E-13;
6,00540411547202E-13;
7,06087832612251E-13;
4,29137644727292E-13;
4,30906782516149E-13;
7,14045190567178E-13;
1,54910978348083E-13;
5,72248414099499E-13;
1,24316240344339E-12;
6,42366559642061E-13;
4,50007614678644E-13;
1,88616120738572E-13;
-1,31511723246719E-15;
1,29220389937654E-12;
1,46338650761768E-12;
1,50537911149518E-13;
4,62916316849826E-13;
6,85225047201257E-13;
-1,69414680265861E-13;
2,97715992659876E-13;
7,14157187980355E-13;
-4,23797244799687E-14;
-1,35400140540575E-13;
3,3321159408594E-13;
3,05763021795901E-13;
1,40896670818636E-13;
3,8064505950387E-13;
9,08320370571646E-13;
5,13098015702609E-13;
1,2451702085846E-13;
1,06586824168946E-12;
6,25236369569413E-13;
-4,21521461012655E-13;
2,28973820679436E-13;
7,45514014804082E-13;
7,64146295348615E-13;
7,25244959324485E-13;
5,27833138716341E-13;
7,5001763115508E-13;
4,38820169699295E-13;
7,59802481829836E-14;
8,76318477344244E-13;
1,03760025689927E-12;
9,08805476216951E-13;
6,30795058432235E-13;
-1,23084615934668E-13;
5,01637411821619E-13;
7,95158011539186E-13;
-8,50668168034103E-15;
2,62265606414376E-13;
2,90583409086214E-13;
8,40270135535551E-14;
8,03820505478179E-13;
2,13305340324331E-13;
-8,52618712534158E-14;
1,04015904876861E-12;
6,91083380582473E-13;
2,93670535280922E-13;
1,00176567693219E-12;
5,847775102747E-13;
-1,65349955123435E-13;
5,40070656082133E-13;
9,4328568416613E-13;
4,79031569866883E-13;
4,51312397972347E-13;
6,43907164818732E-14;
5,15975020223891E-14;
7,80767986066762E-13;
4,0970038335293E-13;
-3,71773331377691E-14;
1,10616805665807E-13;
1,38351196109398E-13;
2,97055539485136E-13;
1,7309412888599E-13;
-9,39280269339646E-14;
3,42504271823392E-14;
4,34388994875601E-13;
5,6110232938943E-13;
1,79751428359929E-13;
2,06692641814455E-13;
8,04122827909031E-13;
8,89494845204407E-13;
6,68370794565127E-13;
6,84599135686107E-13;
1,24454286273234E-14;
-1,00992238816501E-13;
4,39037327470181E-13;
3,7889107484249E-13;
1,05011884846939E-12;
9,263186142397E-13;
6,96678299858573E-14;
1,58876827675696E-13;
5,1713934169784E-13;
5,3497261345816E-13;
8,40664265670014E-14;
4,76591446860302E-13;
5,15422044360368E-13;
1,04740785682646E-13;
-1,09074595397494E-13;
-5,5545236328955E-13;
-1,02920430100667E-13;
2,09259633301845E-14;
-3,20060180040051E-13;
-3,39470930631735E-13;
4,56231090680905E-13;
8,24876019020399E-13;
8,51521713529223E-14;
5,97765628092746E-13;
1,50814554938022E-13;
-3,32017277358453E-13;
5,42588245941999E-13;
-2,64799285712988E-13;
-1,13425086444314E-14;
9,22045522195917E-13;
5,75537340947127E-13;
1,43584852259625E-12;
1,46061431160106E-12;
7,63431155928491E-13;
9,743753816439E-13;
-8,94670543353897E-14;
-6,24135524500062E-13;
5,59821889971537E-13;
5,44212773004409E-13;
-2,71557344407432E-13;
8,25186712345936E-13;
1,3267138337044E-12;
2,77149163602103E-13;
1,09129514612761E-12;
7,84864244347966E-13;
-1,92443956268011E-13;
1,19317269924116E-12;
4,26044383066753E-13;
-4,0382354994201E-13;
9,71467424882289E-13;
-2,01252190200793E-14;
-6,51868209782529E-13;
6,85574019197535E-13;
3,82720833135693E-13;
-6,71064970359883E-13;
-1,28123736013844E-13;
1,04866427323978E-12;
8,82650694013733E-13;
8,15535488183233E-13;
8,01911017354903E-13;
2,53730782394186E-14;
5,96877912786592E-13;
1,19584746570173E-12;
7,0116388884699E-15;
-5,01812512528477E-13;
3,11150738208523E-13;
2,41971152133683E-13;
-5,53390995256355E-14;
-3,65153016058495E-13;
-5,5015739198105E-13;
5,40296868106604E-13;
6,62947406376452E-13;
5,04740914684569E-13;
1,28480200398803E-12;
1,02931740448321E-12;
7,32605827643901E-13;
2,93541563282423E-13;
-2,0808658477624E-13;
9,087398717999E-13;
9,59808433270688E-13;
1,20518540828888E-13;
8,23134264440239E-13;
4,84726679453909E-13;
-1,1787102167353E-13;
1,05675317168959E-12;
8,21245447327352E-13;
4,58303082266563E-16;
7,61276403411097E-13;
4,91950572744758E-13;
2,3994441263247E-13;
8,58347848680289E-13;
6,60711710009249E-13;
7,05578470058962E-13;
2,90245479068733E-13;
4,50604088027388E-13;
8,67129314840457E-13;
4,9098870881503E-14;
9,1180568036506E-13;
9,50336568346847E-13;
-2,14456851013555E-13;
5,05148651749897E-13;
7,05687272683904E-13;
2,24632273734824E-13;
3,86634766140146E-13;
6,72726829787875E-14;
-3,791246295684E-13;
3,9279699435568E-13;
6,72821987879742E-13;
2,2135101757812E-14;
-7,62782320937315E-15;
-8,48747967942919E-14;
-4,32779156908818E-13;
-3,74041296761895E-14;
8,06874032936414E-13;
6,58394014004065E-13;
2,61831955016172E-15;
1,15648085676725E-13;
5,82893884283492E-13;
3,26900344248259E-13;
-9,2635153511277E-14;
3,50953957118439E-13;
7,35279707598987E-13;
3,9317560318662E-13;
6,33178939122027E-13;
1,0713151797526E-12;
1,98473412051663E-13;
1,36795956717811E-13;
7,32146592799725E-13;
-1,15588944035031E-13;
1,49230267206115E-13;
9,08385554469043E-13;
-2,9499115428166E-13;
-4,47357152026509E-13;
7,60566182054692E-13;
3,99628571695493E-13;
-2,99002365388196E-13;
6,28871314687761E-13;
9,67089488970531E-13;
1,88323536374111E-13;
7,59860761376641E-13;
8,10704916869518E-13;
-3,03978754537015E-13;
3,46657346854388E-13;
8,4423267989946E-13;
3,84285754397408E-13;
5,63230987816873E-13;
-4,89756534250796E-14;
3,41187928221723E-13;
7,69851818075589E-13;
-7,13947371896597E-13;
-2,2986312384166E-13;
8,39480130104319E-13;
1,09575246845975E-12;
1,00834436469013E-12;
-1,7624023651974E-13;
1,94780245589912E-13;
1,37544271463417E-12;
1,02414604642489E-12;
3,25281860761605E-13;
6,04423416792254E-13;
5,11773820369841E-13;
2,47052609475987E-14;
6,1619292142839E-13;
6,34605842458704E-13;
2,71564648822073E-13;
1,96117716938583E-13;
-1,54910300014905E-13;
2,49418278815981E-13;
9,81848242414819E-13;
7,55498941522518E-13;
4,78508921870064E-13;
6,64867973321281E-13;
2,69039189908258E-13;
-8,98679428451501E-15;
-2,60404834005786E-13;
-1,54354159584701E-13;
7,72019829551778E-13;
4,54024585350507E-13;
8,30976279488351E-13;
1,54033070702574E-12;
5,91240362314031E-13;
7,58576542609018E-13;
6,70610154270907E-13;
1,82335330883844E-13;
6,50893525376437E-13;
4,07718270118798E-13;
-1,22778301630984E-13;
-4,95396948406322E-13;
4,27349287518966E-13;
1,29119090030898E-12;
-1,58309134021016E-13;
-5,50478757879275E-13;
1,12562180760654E-12;
1,4384310349021E-12;
6,12119296859184E-13;
4,20699968020786E-13;
7,72128292061151E-13;
1,02026799289349E-12;
2,19637409462378E-13;
5,6048998597288E-13;
1,15632024468692E-12;
6,08167363053496E-14;
5,8661153159615E-13;
6,11489425831226E-13;
-9,61683650936045E-13;
-3,69460983045096E-13;
3,6973579623052E-13;
-4,02999608051971E-13;
1,64472138006576E-13;
1,23751142309791E-12;
2,58125718618475E-13;
-1,62385874934803E-13;
1,0583597321474E-12;
1,05269103948835E-12;
2,37572895992546E-13;
6,94831252359248E-14;
-1,0703983132635E-13;
2,82038662619952E-13;
7,76514094654238E-13;
-1,59982074468944E-13;
-1,29668848302209E-13;
7,50998288827656E-13;
-5,62922641503396E-15;
2,88592336795786E-13;
9,02839436171431E-13;
3,90158755366049E-14;
3,15196249613888E-13;
3,26498567740228E-13;
-1,66312040299267E-13;
3,6265440655988E-13;
9,11357678873202E-13;
6,00799953307309E-13;
-5,5253253083314E-14;
6,9415308272991E-13;
6,77998947901683E-13;
-2,08389700987151E-13;
6,61252653935821E-13;
9,59246519287794E-13;
-1,24006517396895E-14;
-3,84220648030095E-14;
2,36528549130207E-13;
-7,60641977384169E-14;
2,79567697380896E-13;
8,74016993893228E-13;
7,01109717124177E-13;
4,70576434604603E-13;
1,42530612351377E-13;
-1,16614153672241E-13;
1,67228143089713E-13;
3,71966195872965E-13;
2,65669683647252E-13;
-9,40251542449762E-14;
3,59743243962878E-13;
6,18084564430202E-13;
8,8138530668073E-15;
6,07463341388426E-13;
3,8519451785895E-13;
-7,82071152181637E-14;
5,08157258578299E-13;
1,56969948965828E-14;
2,565894719459E-13;
1,13446123114467E-12;
5,23481460916323E-13;
-1,78432388731886E-13;
2,93617391067303E-13;
7,92556734107034E-13;
4,38094768530669E-13;
5,16362167647881E-13;
5,62833226423533E-13;
-1,46861411601524E-13;
-1,4375987313472E-13;
-2,71542371703688E-13;
-3,06926146026553E-13;
5,26581250585867E-15;
2,48160082528243E-14;
8,91428894265851E-13;
1,08476418061588E-12;
5,97387415597156E-14;
-3,24154468612068E-13;
9,68985133180181E-13;
1,63746725326003E-12;
2,84132281183558E-13;
9,49826457973051E-14;
3,10596268272228E-13;
6,68106986015818E-14;
3,05024571257297E-13;
4,99048355199747E-13;
9,31221994460115E-13;
5,43898650478966E-13;
2,71694862505223E-13;
7,03643675765107E-13;
5,61917313636166E-13;
6,12322629432968E-13;
4,98433875506091E-13;
2,17134774509689E-13;
3,77363065377043E-13;
6,86340587972499E-13;
4,10015352003815E-13;
-1,89120144086043E-13;
1,48672963688704E-13;
5,2110603033449E-15;
8,88005338025307E-14;
7,15608434127037E-13;
3,33156266867987E-13;
8,20224196809324E-13;
5,82379856610862E-13;
2,54783068201346E-13;
1,09156915448047E-12;
3,46704219854366E-13;
4,79547611961533E-13;
1,0425051506872E-12;
6,75440539302304E-13;
6,40847349580663E-13;
4,56557429620877E-14;
-3,15009030407109E-13;
-2,33410775012664E-13;
1,04045141015291E-13;
2,26254711238841E-13;
-2,80532942146587E-13;
-6,29469883128744E-14;
1,07510607347095E-12;
1,22270084404912E-12;
3,93782763284333E-13;
1,44751014811989E-13;
2,30800849046623E-13;
7,24102398037418E-13;
2,31655115950872E-13;
-3,95562709156391E-13;
3,61599727083957E-13;
9,8710735586616E-14;
-3,4232489150671E-13;
3,81326241181513E-13;
6,95498306907996E-13;
5,0087551149E-13;
9,63038549004264E-13;
1,21555526550764E-12;
8,42252096388478E-13;
7,66899419474885E-13;
7,35372145873939E-13;
7,66153510308182E-13;
5,71911949875914E-13;
4,49252287039163E-13;
3,90790258726806E-13;
1,16354353445101E-13;
7,76735331733727E-13;
1,26337659368206E-12;
6,31374353757435E-13;
8,10012031662499E-13;
1,11182469075656E-12;
-4,41874287919709E-13;
-5,68090194597788E-13;
6,85643145640106E-13;
-2,46644918988544E-14;
-1,63948958772279E-13;
4,46261841901362E-13;
1,34498105898222E-14;
-4,75801133773966E-13;
-1,46552638823608E-13;
1,60512696804476E-13;
1,43906562137023E-13;
6,30546002355502E-13;
3,54677919613772E-13;
2,01749684006287E-13;
2,04005971916101E-13;
-3,5388674322107E-13;
5,30213015204819E-13;
9,12178411048906E-13;
-4,07789563165004E-13;
-2,82346282153547E-13;
6,91437362347944E-13;
3,13417357523936E-13;
8,31487610614376E-13;
1,05252479460726E-12;
-2,07733739349583E-13;
1,72187643928596E-13;
6,47735054225092E-13;
5,42546970209972E-13;
5,75148321829788E-13;
2,50334640657318E-13;
2,02218096331801E-13;
2,98103312231754E-14;
-2,31318336408192E-13;
-1,34181648357204E-14;
5,68045032244037E-13;
7,43873135423519E-13;
7,63751641102325E-13;
7,4994533521588E-13;
0,00933343404715267;
0,0226297298263106;
0,0163727372767572;
0,00943309617786156;
0,012169391785995;
0,00702616733176226;
0,00563481713055637;
0,00458271005298238;
0,000840500090377398;
0,00103239237278668;
-0,0105238735410736;
-0,0246216824824092;
-0,0191798742109224;
-0,0139867774963108;
-0,017056716784659;
-0,0128820680395806;
-0,0115760344032889;
-0,0107651983764918;
-0,00783407675759927;
-0,00895309591892169;
-0,00815844849854319;
-0,00825093605299675;
-0,00771136245882024;
-0,00555484182255601;
-0,00432033966655512;
-0,00257439609294866;
-0,00188921689489251;
-0,001274983174118;
-5,44766102132961E-5;
0,00150202647886121;
0,00367343436167847;
0,00528440143955708;
0,00606541798037737;
0,00601775573123381;
0,00554383879830202;
0,00540372936481175;
0,00560220162451842;
0,0058846424238613;
0,00568697682004879;
0,00475343149499276;
0,00344972821130123;
0,00237142550056406;
0,00204631909354114;
0,00243358269599786;
0,00303909185284464;
0,00334323713480043;
0,00319189606779616;
0,00294869794286513;
0,00312620820840672;
0,00394370750613601;
0,00509943725900007;
0,00596527082580312;
0,00607170459657085;
0,00544161030771311;
0,0045494816517655;
0,0039167783651345;
0,00369043962516712;
0,00355326061729034;
0,00302026436786955;
0,00188359397717279;
0,000424682280109954;
-0,000777004115437601;
-0,0012808955153408;
-0,00111309111963424;
-0,000715577006288878;
-0,000568052503831589;
-0,000795334879565903;
-0,00108318483731452;
-0,000968091092562463;
-0,000255867033631929;
0,00077799519240374;
0,00157341502080335;
0,0017051014040618;
0,00119460403991784;
0,000464780144630453;
-1,98762014780767E-5;
-0,000127884506316925;
-0,000144688388510313;
-0,000503356083675335;
-0,00139063403453505;
-0,0025568249334925;
-0,00348653117401375;
-0,0037892266560826;
-0,00348944217630686;
-0,0029819157642006;
-0,00269408697366646;
-0,00273712849036313;
-0,00283207276775126;
-0,00256764428900097;
-0,00177261900385401;
-0,000693028455608403;
0,000172826099091083;
0,000446853947534055;
0,000147880412094025;
-0,000349393194941911;
-0,000633513577118063;
-0,000588202768836982;
-0,000466323085588303;
-0,0006511849827048;
-0,00130811678470831;
-0,00221671835905484;
-0,0029221888386101;
-0,0030803926656257;
-0,00271363986383479;
-0,00217048876478662;
-0,00182767437072783;
-0,00178265664403273;
-0,00178917321149222;
-0,00148495947181656;
-0,000719698473031061;
0,000289509080625357;
0,00110395739687033;
0,00139122319108469;
0,00116818439552012;
0,000764448595190218;
0,000541718126865701;
0,00060244941299131;
0,000725280684396279;
0,000574615934776082;
5,94852748648372E-6;
-0,000787565886517411;
-0,00140797617286615;
-0,00155451911714445;
-0,00124691429618063;
-0,000789641824236823;
-0,000511203428469738;
-0,000495861532691535;
-0,000528007627690153;
-0,000291378648197862;
0,000344911949920125;
0,00119133637226477;
0,00186560205443878;
0,00207846855203242;
0,00184505924722768;
0,0014525686009717;
0,00121590836376261;
0,00122455357164917;
0,00128676064012706;
0,00111175037398901;
0,000574534010113373;
-0,000157351275307632;
-0,000739327623692663;
-0,00091132700271551;
-0,000690667144796818;
-0,000340596938819173;
-0,000144580956978065;
-0,000174720824028516;
-0,000244301380404079;
-8,02612415459112E-5;
0,000430002271515025;
0,00112264781844011;
0,0016679858215438;
0,00181694524084663;
0,00158279252971688;
0,00121289385020483;
0,000978269256634915;
0,000956064669990686;
0,000981931575606741;
0,000806635912746607;
0,000323155272503163;
-0,000325019995889872;
-0,000843147832781139;
-0,00100915525156837;
-0,000838263590295471;
-0,000555564335481459;
-0,000402887007217066;
-0,000441274133762355;
-0,000511055646226751;
-0,000379433922693148;
4,91161998231012E-5;
0,000634485659049453;
0,00109564949268518;
0,00122062939846437;
0,00102081522069368;
0,000706533163660338;
0,000508029349566566;
0,000490909304784842;
0,00051603622882731;
0,000372465373361039;
-3,03255221031401E-5;
-0,00057113108307233;
-0,00100126099638589;
-0,00113372253007163;
-0,000981817722867516;
-0,000735491413027534;
-0,000598268472340885;
-0,000621091036601533;
-0,000669270978163308;
-0,000547108294240746;
-0,000174774333518557;
0,0003295002318541;
0,000729481696927949;
0,000847301457795103;
0,000692611895585329;
0,000441694766140752;
0,000287343555543069;
0,000284568781563704;
0,000317369193121608;
0,000209924938014135;
-0,000113139437192944;
-0,000550997796169714;
-0,000897075071215854;
-0,000996414600088308;
-0,000860483053246669;
-0,000647018391676649;
-0,000524496546204847;
-0,000534625369578391;
-0,000565533148938348;
-0,00045535979345931;
-0,000138525213132517;
0,00028681052783682;
0,000625372291759604;
0,000730465246263868;
0,000610196098161729;
0,000409846359542422;
0,000288116592794963;
0,00029039904278648;
0,000321783430556533;
0,000238442750812069;
-2,11821120596954E-5;
-0,000374737424012723;
-0,000653847923442271;
-0,00073257592133415;
-0,000620648288548955;
-0,000446524205018917;
-0,000346866261516718;
-0,000355012400323715;
-0,000379773969626886;
-0,000289927941641977;
-3,27418342517374E-5;
0,000311872042241056;
0,00058577632039279;
0,000670520749923824;
0,000572827103766302;
0,000409948445110883;
0,000309770005129855;
0,00030899234298093;
0,000331748610227275;
0,000263089170694131;
5,39266453569406E-5;
-0,000230026351788385;
-0,000454798282715955;
-0,000520560889513722;
-0,000435442803355464;
-0,000301534692449482;
-0,000226888848712379;
-0,000237351501921301;
-0,000260365803761538;
-0,000192255947073392;
8,18695529798588E-6;
0,000277474959464253;
0,000490841404063914;
0,000555190638039782;
0,000475985877728361;
0,00034531684173487;
0,000263414659003374;
0,000259161853017731;
0,000273719323105668;
0,000217965030617772;
5,3955122799182E-5;
-0,000167486581349272;
-0,000343138088818946;
-0,000396488254619382;
-0,000334228953205556;
-0,000234917771819278;
-0,00018110730152379;
-0,000192009226365431;
-0,000211724599099466;
-0,000161152131468878;
-9,34302706242845E-6;
0,000194865325073417;
0,000356433280593556;
0,000404828499924695;
0,000344375751063865;
0,000244760390346973;
0,000181602525232131;
0,000176808434079583;
0,000186631835862391;
0,000144852159000029;
2,33978690836251E-5;
-0,000140111298802838;
-0,000269696761079194;
-0,00030948736413931;
-0,000264891227798503;
-0,000193642609589005;
-0,000155761494461774;
-0,000164631907764135;
-0,000179112662879511;
-0,000141826427708765;
-3,08717146959857E-5;
0,000117875219226908;
0,000235630144341018;
0,000271770669388795;
0,0002296101524216;
0,000159072960289587;
0,00011408070660896;
0,00011037789502992;
0,000117482202194929;
8,93035737456883E-5;
6,44600160337207E-6;
-0,000105063717928162;
-0,000193152208429007;
-0,000220040332318453;
-0,000189990972377852;
-0,000142476209556013;
-0,000117784320191443;
-0,000124222573203554;
-0,000133595099882133;
-0,000107540476184558;
-3,20514219429206E-5;
6,83621832054347E-5;
0,000147892917820218;
0,000173326723600794;
0,000147093838803905;
0,000101862842872848;
7,26145075395058E-5;
6,97075590413816E-5;
7,42056945974836E-5;
5,75435407990441E-5;
7,87809702829524E-6;
-5,88361134355156E-5;
-0,000111287279775666;
-0,000127391029427527;
-0,000110395319579085;
-8,39159887718535E-5;
-7,11374224095871E-5;
-7,59900501970927E-5;
-8,15172730955212E-5;
-6,58306978022254E-5;
-2,17373915368619E-5;
3,61200391741025E-5;
8,18345368944428E-5;
9,72550277233358E-5;
8,40491830179473E-5;
5,99763994684198E-5;
4,36582912107407E-5;
4,07941617951983E-5;
4,23874154336157E-5;
3,49613734319255E-5;
1,31759678915531E-5;
-1,56693368150425E-5;
-3,80943287560594E-5;
-4,54779451079922E-5;
-4,01794637594557E-5;
-3,22042268948457E-5;
-3,0082075357066E-5;
-3,4017988779883E-5;
-3,67063031346539E-5;
-3,03673785473326E-5;
-1,36229220304833E-5;
7,35136929040105E-6;
2,368317371006E-5;
3,01009926230335E-5;
2,76196927080935E-5;
2,12671367890952E-5;
1,57009909404468E-5;
1,26339339109883E-5;
1,1518113688758E-5;
1,1705781704899E-5;
1,33845218751685E-5;
1,65080778038612E-5;
1,94333470169372E-5;
1,9378399274085E-5;
1,47517817952186E-5;
7,07972709616074E-6;
2,22712650871108E-7;
-2,89973051204658E-6;
-3,16543143903561E-6;
-4,72206399849295E-6;
-1,10867512229929E-5;
-2,12645626366143E-5;
-2,97396288205637E-5;
-3,09190204117103E-5;
-2,43403582555414E-5;
-1,57012288928117E-5;
-1,2101881958265E-5;
-1,51963411347073E-5;
-1,84548333389661E-5;
-1,17740645464121E-5;
9,66427319615146E-6;
3,96700144296449E-5;
6,39621579394946E-5;
7,02449998807726E-5;
5,75823470622025E-5;
3,71247785025459E-5;
2,30484045952459E-5;
2,0849027367317E-5;
2,28121236572236E-5;
1,48613873859257E-5;
-1,05752669582464E-5;
-4,65208815805141E-5;
-7,5494614620252E-5;
-8,28827569206126E-5;
-6,8683041017416E-5;
-4,74836221612176E-5;
-3,61254336011411E-5;
-3,90610351948226E-5;
-4,39326133023658E-5;
-3,17801868673709E-5;
6,02802963118736E-6;
5,82534290738029E-5;
0,000100241092358692;
0,000111901368717312;
9,28504010166966E-5;
6,21281275368902E-5;
4,23410789207706E-5;
4,10657802084542E-5;
4,49779700999573E-5;
3,18901417547875E-5;
-9,06179562492747E-6;
-6,59995918476659E-5;
-0,000111678296645582;
-0,000124136656165386;
-0,000103748004584209;
-7,23259417350983E-5;
-5,4621945678868E-5;
-5,73703556515986E-5;
-6,3515038561069E-5;
-4,69527271984816E-5;
4,02293133580059E-6;
7,41153143970104E-5;
0,000130341312755053;
0,000146370343928964;
0,000122277401479735;
8,34258687457303E-5;
5,91530214459419E-5;
5,86714543328591E-5;
6,41556575385853E-5;
4,69459819877112E-5;
-6,42693302361217E-6;
-8,01587451847818E-5;
-0,000139223767809613;
-0,000155820134562861;
-0,000130620692425345;
-9,11661045014105E-5;
-6,84718260924045E-5;
-7,10881968543034E-5;
-7,82742951204423E-5;
-5,83212458179825E-5;
2,88865362932459E-6;
8,68883708031663E-5;
0,000154199560982009;
0,000173641234636234;
0,000145662613699264;
0,000100548372212935;
7,28462971236759E-5;
7,30089452838662E-5;
7,97024034747382E-5;
5,92605341935246E-5;
-3,77863478245822E-6;
-9,05577424129535E-5;
-0,000160043370604663;
-0,000179939400665037;
-0,000151150671981883;
-0,000105608154969069;
-7,91224961374613E-5;
-8,16439038476164E-5;
-8,96485162832653E-5;
-6,71904545196601E-5;
1,66879738121094E-6;
9,60802555080363E-5;
0,000171698500759672;
0,000193726419533219;
0,000162911426304329;
0,000113214627545337;
8,30461727827843E-5;
8,37487188308404E-5;
9,13615464655991E-5;
6,85113125130406E-5;
-1,71476381655752E-6;
-9,81812458947126E-5;
-0,00017541826226645;
-0,000197827960072974;
-0,000166487850092853;
-0,000116537104884654;
-8,72827947486218E-5;
-8,97063546417071E-5;
-9,82962160596223E-5;
-7,40767232069944E-5;
1,90340142083021E-7;
0,000101968159736153;
0,000183477528283466;
0,000207391014922659;
0,000174686651990495;
0,000121906935944267;
9,01399063573703E-5;
9,1312347644867E-5;
9,96125705634609E-5;
7,51013961195877E-5;
-1,09924693756009E-7;
-0,000103289298249953;
-0,000185909958542884;
-0,0002101187165902;
-0,00017711408031818;
-0,000124207762903122;
-9,30654574262451E-5;
-9,53761329886953E-5;
-0,000104334853115253;
-7,89907331266031E-5;
-1,2612351825041E-6;
0,000105234198046571;
0,000190532134857379;
0,000215720781466846;
0,000181949417387312;
0,000127388285727439;
9,477307986397E-5;
9,63499735094858E-5;
0,000105132484451635;
7,96083782951715E-5;
1,32495817752021E-6;
-0,00010598220034335;
-0,000191928477944613;
-0,000217314276256175;
-0,000183414547135414;
-0,00012881541625756;
-9,65545669272037E-5;
-9,87470427352955E-5;
-0,000107894330079932;
-8,19817994106557E-5;
-2,47633605042759E-6;
0,000106442020434443;
0,000193703314217207;
0,000219626636241922;
0,00018548091699955;
0,000130242667803379;
9,74090240516008E-5;
9,93191483774345E-5;
0,000108394718437857;
8,24044842822455E-5;
2,68529366154223E-6;
-0,000106534528998959;
-0,000194043130158259;
-0,000220075223979334;
-0,000185944317572915;
-0,000130740994326005;
-9,8029118666648E-5;
-0,000100107801891811;
-0,000109296953499583;
-8,32967668565763E-5;
-3,46005779505628E-6;
0,000105917344792086;
0,000193577185984622;
0,000219763454271979;
0,000185820366520815;
0,000130831720466507;
9,83032091531392E-5;
0,000100475913497783;
0,000109676123518149;
8,36790827005068E-5;
3,91054497496542E-6;
-0,000105342770541315;
-0,000192916544584485;
-0,000219141969580576;
-0,000185339383131192;
-0,000130452340857699;
-9,78552381879724E-5;
-9,98258010464063E-5;
-0,000108933487072062;
-8,32493890200263E-5;
-4,29601650806191E-6;
0,000103888717901234;
0,00019062967711027;
0,000216678221181901;
0,000183416166717671;
0,000129448249075607;
9,76583218215563E-5;
0,000100030621380348;
0,000109212897133454;
8,35943067182735E-5;
4,93920490548763E-6;
-0,000102771441498063;
-0,000189152493373558;
-0,000215184987892217;
-0,000182170009533284;
-0,000128361192742305;
-9,63471238923578E-5;
-9,82122672278045E-5;
-0,000107132826246782;
-8,20948390834979E-5;
-5,02601432104701E-6;
0,000100602429250652;
0,000185335847997742;
0,000210913652834752;
0,000178723705304345;
0,000126408092604401;
9,57100906343674E-5;
9,82276854875899E-5;
0,000107274263908367;
8,23526814642859E-5;
5,77042512077344E-6;
-9,90973937109103E-5;
-0,000183246087762981;
-0,000208760800499885;
-0,000176902351752208;
-0,000124790318917569;
-9,37396322126901E-5;
-9,55002000152348E-5;
-0,000104145106498847;
-8,00177204508192E-5;
-5,64263196808233E-6;
9,6325614632769E-5;
0,000178168821487496;
0,000203002961111929;
0,000172195983098127;
0,000122036766472536;
9,27102438694932E-5;
9,5325203469734E-5;
0,00010413905750622;
8,01708244622347E-5;
6,43487637286229E-6;
-9,45416868179078E-5;
-0,000175618033620368;
-0,000200348134560229;
-0,000169936078239548;
-0,000120012315310463;
-9,02281433033822E-5;
-9,18852685262905E-5;
-0,000100183448347209;
-7,71742583191021E-5;
-6,13137827902368E-6;
9,13044787770711E-5;
0,000169558408803849;
0,000193428686878628;
0,000164242431230259;
0,000116628259887077;
8,8885576440036E-5;
9,15546716732816E-5;
0,000100056278407533;
7,72407394578432E-5;
6,95656099271487E-6;
-8,93073126464396E-5;
-0,000166651666428883;
-0,000190383770435352;
-0,000161638531428569;
-0,000114281894245343;
-8,59991151727824E-5;
-8,75548400406145E-5;
-9,5451470906279E-5;
-7,37179790688365E-5;
-6,49407829686674E-6;
8,57434374339718E-5;
0,000159872594923189;
0,000182605978062329;
0,000155213449361841;
0,000110430654233276;
8,44248333965802E-5;
8,71094190237198E-5;
9,52351226193247E-5;
7,37211403749042E-5;
7,34493662571772E-6;
0,00924984746748346;
0,0224730301628554;
0,0161934692278559;
0,00928074764307882;
0,012061553921595;
0,00694493680519163;
0,00555212983047849;
0,00449256845641379;
0,000770703391253083;
0,00102564828823132;
-0,0104440616201606;
-0,0244722564426683;
-0,0190089821484353;
-0,0138413673335797;
-0,0169530609197219;
-0,0128025794364295;
-0,0114938794116978;
-0,0106753424732938;
-0,00776432828944424;
-0,00894549051351034;
-0,00823599998730616;
-0,00839701113482815;
-0,00787871840715695;
-0,00569720872824947;
-0,0044212325751583;
-0,00265047732372721;
-0,00196665831658942;
-0,00135940775008509;
-0,000120018442212772;
0,00149513171408582;
0,00374709133068667;
0,00542289487991827;
0,00622401759457295;
0,00615285274114282;
0,00564032997741988;
0,00547794945106199;
0,00567904116158455;
0,00596872254401913;
0,00575242305869477;
0,00476117878772389;
0,00337838072578496;
0,00223637894091916;
0,00189136613071542;
0,00230163042525673;
0,0029454627544484;
0,00327255064583049;
0,00311994370867188;
0,00287025194131864;
0,00306514322470607;
0,00393675199910398;
0,00516684545439621;
0,00609258598305483;
0,00621770681006464;
0,0055661165913865;
0,00463858427889297;
0,00398552595300034;
0,0037617355385713;
0,00363131292457732;
0,0030811905399865;
0,00189137756303065;
0,00969302088067465;
0,021728884004764;
0,0149495227117969;
0,00819868030351243;
0,0113676137274295;
0,00639295395879309;
0,004773147503515;
0,00342719550234703;
-0,000184052153582972;
0,000769591358766443;
-0,000351267449538077;
-0,000302440325015648;
-0,000968700888951213;
-0,00324523948609378;
-0,00434091112933034;
-0,00581259421633195;
-0,00600346197800014;
-0,00625527852076171;
-0,0074406468001388;
-0,00930360999508674;
-0,0119646094439927;
-0,0138420729653139;
-0,014437400923523;
-0,0137086369665714;
-0,0122683211431066;
-0,0111839862560066;
-0,0106282495415013;
-0,0103557262586848;
-0,0096675100144537;
-0,00819813469405384;
-0,00631342711358954;
-0,00468064897258839;
-0,00388543377643113;
-0,00383962776933248;
-0,00393901392755423;
-0,00360246146906061;
-0,00275646622819723;
-0,00197342786209459;
-0,00196065288300846;
-0,00296577114564407;
-0,00449527899785855;
-0,00561089298632716;
-0,0056043611631883;
-0,0044709756821787;
-0,0028665828800915;
-0,00156509977736697;
-0,000874085844955529;
-0,000473397895672398;
0,000232982700881834;
0,00155208457157426;
0,00321233767105461;
0,00457636745048482;
0,00516470675026987;
0,00504551882643595;
0,00475611280607866;
0,00482730251504773;
0,00531091797688887;
0,00571402984822232;
0,00540697572221055;
0,00417538976537586;
0,00246384763226524;
0,00110228604112622;
0,000724461299343071;
0,00133452606160499;
0,002355376384793;
0,0031054833704047;
0,00331328430439108;
0,00326379687213951;
0,00348327433279238;
0,00424463654311166;
0,00531114674655967;
0,00612399949744058;
0,00626432522516149;
0,00579389667050569;
0,00518636886228957;
0,00490822514504747;
0,00500433370933556;
0,00504167507115901;
0,00446810882409809;
0,00309720928865838;
0,00132082601348114;
-0,000131899595424241;
-0,000704784300477427;
-0,000394177228383655;
0,000294244908058517;
0,000763351094822774;
0,000774701434515953;
0,000576498747798153;
0,000627794827357721;
0,00116673440131659;
0,00198719733296427;
0,00260273199681628;
0,00264911986447381;
0,00218048805994628;
0,00160860487498187;
0,00133784316639678;
0,00140523426963922;
0,00143269207032285;
0,000939749706238213;
-0,000235218862735495;
-0,0110847323644916;
-0,0256050308218762;
-0,0197977497249741;
-0,0125311938259498;
-0,014603344851105;
-0,0089773247055103;
-0,00749246498698832;
-0,00652295048014687;
-0,00264379198456079;
-0,00227406101115203;
0,000757180103881832;
0,00219471612694842;
0,00316006498013049;
0,00461765502922793;
0,0045770863686375;
0,00543264321655108;
0,00569604322231737;
0,00607988583895032;
0,00658457437113326;
0,00661790136009355;
0,00685838097982312;
0,0068146752003485;
0,00681614125609451;
0,00679706191515317;
0,00657488945914544;
0,00631900075523966;
0,00590436005990741;
0,00556151726077678;
0,00536435124786508;
0,00530430660341231;
0,00533623968251412;
0,00524390242522197;
0,00494658493651383;
0,00441615007106336;
0,00374560832596837;
0,00308269360613378;
0,00250063131605477;
0,00202509406195515;
0,00160587508388089;
0,00119869292644745;
0,000793944166531212;
0,000397922561941488;
1,86981500406284E-5;
-0,000370189496364082;
-0,00080168456064999;
-0,00127842115737454;
-0,00174892263883033;
-0,00212070813149851;
-0,00232179556880858;
-0,00235169615684421;
-0,00229469858740873;
-0,00227642507258291;
-0,00239200372023359;
-0,00265728299162701;
-0,00300818243519008;
-0,00334720468685522;
-0,00359901763697516;
-0,00373972358498879;
-0,00378950538549651;
-0,0037838978693064;
-0,00375204290421047;
-0,00371429795568789;
-0,0036913443373166;
-0,00370657473479929;
-0,00377226195524545;
-0,00386998945281299;
-0,00394541098472081;
-0,00392956046391441;
-0,00377777703770671;
-0,00350100161209898;
-0,00316686208105337;
-0,00286746625521688;
-0,00267330591280488;
-0,00260095978698094;
-0,00261156274473086;
-0,00263651842508435;
-0,0026117495249159;
-0,00250147502498388;
-0,00230393501524354;
-0,00204391573113743;
-0,00176127028806933;
-0,00150040911123714;
-0,00129988359374766;
-0,00118036977768432;
-0,00113401265873257;
-0,00112245352115203;
-0,0010890200492194;
-0,0009823784425392;
-0,000780442591169551;
-0,000501543414206065;
-0,000196683525135929;
7,26378498781812E-5;
0,000259418612395433;
0,000347819668402223;
0,000356495115269344;
0,000330077515924758;
0,000323366246916663;
0,000382762999132867;
0,000529287672381884;
0,000748508985849578;
0,00099303117598127;
0,00119970665301885;
0,00131629958661361;
0,00132528485514614;
0,0012518192480287;
0,00115088260931435;
0,00108070536118773;
0,00107749690303832;
0,00114441761931604;
0,00125745745358302;
0,00138044263182721;
0,00147851568214233;
0,0015251045788244;
0,00150525202149066;
0,00142040944278216;
0,00129443340283486;
0,00117345144574179;
0,00111193934601133;
0,0011465626243914;
0,00127156719943172;
0,00143369143957542;
0,00155473698642528;
0,00157144911622086;
0,00146884614182356;
0,00128584292079417;
0,0010901697169049;
0,000940144110753759;
0,000858402216823675;
0,000831808561459539;
0,000831523642218144;
0,000833880988121895;
0,000826402605120433;
0,000799581220283728;
0,000738992968841231;
0,000631241735393258;
0,000482015600549847;
0,0003290853769337;
0,000232478753878284;
0,000241025791003085;
0,000355930958422375;
0,000519408894963502;
0,000641406769213172;
0,000649972665304136;
0,000532090534826446;
0,000337268953587576;
0,00014259751848663;
5,31170422791148E-6;
-6,39390308791539E-5;
-9,202995604914E-5;
-0,00011170474282641;
-0,000136078849954403;
-0,000158952707499409;
-0,000175623032227481;
-0,000200051727177182;
-0,000258052211797884;
-0,000359401021262821;
-0,000474028850948097;
-0,000538266649965292;
-0,000493919820012233;
-0,000334067112438708;
-0,00011952457909011;
5,09570550565309E-5;
9,91113811346995E-5;
1,36914454639881E-5;
-0,000147686706921431;
-0,000301233690245236;
-0,000391447326336555;
-0,000417854753039903;
-0,000418428244538632;
-0,00042868515425115;
-0,000452686537945507;
-0,000468637485634879;
-0,00045993978537828;
-0,000439889078856822;
-0,000444240296401797;
-0,000495495346047889;
-0,000570384864003473;
-0,00060301993178229;
-0,00052810183538332;
-0,000333907357314764;
-8,27935025154837E-5;
0,000120744245208178;
0,000194384568017766;
0,000128621351495073;
-1,28709945432851E-5;
-0,000141789949520951;
-0,00020476290684371;
-0,000209719744587621;
-0,000203257303955642;
-0,000222592006703272;
-0,000264037471662883;
-0,000292943631203702;
-0,000282873357936628;
-0,000246250841065068;
-0,000226522595412632;
-0,000256415063890293;
-0,000318591813253998;
-0,000346161861320326;
-0,000268722448776145;
-7,05973477231368E-5;
0,00018556356446111;
0,000392047296039285;
0,00046439362925361;
0,00039474811469531;
0,000250993844292594;
0,000123997669466341;
6,46429018345436E-5;
5,81396530107253E-5;
5,13932262672374E-5;
6,34113861200386E-6;
-6,68632272376963E-5;
-0,000123271672979051;
-0,000128551413279312;
-9,41778524010729E-5;
-6,9377595739288E-5;
-9,49444223402713E-5;
-0,000158748276996267;
-0,00019401597999353;
-0,000127075439386423;
6,084812907981E-5;
0,00030777530624162;
0,000504853730006886;
0,000567037164912187;
0,000487944068316925;
0,000337978072146466;
0,000208824228321806;
0,000148535210161632;
0,000136777713351241;
0,000115762155540776;
4,72379514531079E-5;
-5,34053469984844E-5;
-0,000133273606598219;
-0,000151939285086348;
-0,000119934870810339;
-9,06367859625808E-5;
-0,000111033567384783;
-0,000173564682091125;
-0,00021255430223659;
-0,000152685218271997;
2,71177836580068E-5;
0,000266308065660728;
0,000456619747824593;
0,000513702813196047;
0,000432455047782492;
0,000284331167475783;
0,000160343353672405;
0,000105453717408641;
9,49555321010285E-5;
6,79323223828702E-5;
-1,35071870477457E-5;
-0,000129846771137582;
-0,000222331507982104;
-0,0002460338969067;
-0,000210558936359173;
-0,000172002523728882;
-0,000181882809807336;
-0,00023659963657566;
-0,000272367328113075;
-0,000213594631936854;
-3,75936969398023E-5;
0,000197154377866415;
0,000384423890915207;
0,000441643797914632;
0,000364831453119358;
0,0002252686781303;
0,000112077694302573;
6,69786115486113E-5;
6,19558648615107E-5;
3,43466083580434E-5;
-5,29046656491969E-5;
-0,000177119853591732;
-0,000275490062852108;
-0,000299964851207924;
-0,000259225088615289;
-0,000210826343549228;
-0,000209333672301417;
-0,000254517027553389;
-0,000285094928979775;
-0,000226332566591326;
-5,4508149378665E-5;
0,000174482708423459;
0,000357662203200185;
0,000415139396314885;
0,00034392135069507;
0,000214113814763417;
0,000111974947217628;
7,59190102520881E-5;
7,55757824867519E-5;
4,77316173960979E-5;
-4,34323123025704E-5;
-0,000172916141939328;
-0,000275416170885498;
-0,000300946245517877;
-0,000257269639931584;
-0,00020231680906424;
-0,000192405834312168;
-0,000230126085947022;
-0,000257171485612804;
-0,000200592459854168;
-3,61286803075085E-5;
0,000183311039068731;
0,000358964281643647;
0,000414339293020622;
0,000347312858921512;
0,000225993835974548;
0,000133002850543865;
0,000103442038761242;
0,000105418062483147;
7,61738009483196E-5;
-1,85568338182838E-5;
-0,000152191276331875;
-0,00025827540553357;
-0,000285913225683726;
-0,000241973687601963;
-0,000183853221709888;
-0,000168518976630016;
-0,000200882627799028;
-0,000225970204455366;
-0,000173375188677187;
-1,87278531527012E-5;
0,000188335969768382;
0,000354012220696211;
0,000405755816494432;
0,000342195116355246;
0,000228778296120486;
0,000143887292581773;
0,000119347978429876;
0,000122455281862152;
9,17389456851904E-5;
-5,27813763936806E-6;
-0,000141078100192588;
-0,000249204617279296;
-0,000278730285302906;
-0,000235668629908795;
-0,000176134931287409;
-0,000156817238339997;
-0,000184504833967423;
-0,000207811402830001;
-0,00015947654463498;
-1,53875506400279E-5;
0,000178279852749256;
0,000333226058335731;
0,000381250694326452;
0,000321621235537073;
0,000216605183403487;
0,000139900639198338;
0,000120131199237195;
0,000124384170158165;
9,3150158575511E-5;
-4,08896068997175E-6;
-0,000139437193614292;
-0,000247399129466213;
-0,000277753903274285;
-0,00023570658701179;
-0,000175485894639163;
-0,000152728640588884;
-0,000175702702036371;
-0,000196771939749028;
-0,000152282222096015;
-1,86817955521054E-5;
0,000161419791061835;
0,000305605242979625;
0,000350290461836187;
0,000295280222309181;
0,000199273432621389;
0,000130980347342105;
0,000115931133372616;
0,000121514961493236;
9,07204322179717E-5;
-4,89589902675155E-6;
-0,000137530074755747;
-0,000243438584353715;
-0,000273713663738615;
-0,000232802052104641;
-0,000172565124490301;
-0,000146955541771498;
-0,000165362390012875;
-0,000183979750071807;
-0,000143091516167112;
-1,99522162044546E-5;
0,000146433213945071;
0,000279762867684745;
0,000321231958655891;
0,000271092245757527;
0,000184203243848966;
0,000124106728218848;
0,000113376595479825;
0,000120127349893852;
9,02607977116251E-5;
-2,52302992425058E-6;
-0,00013090261990622;
-0,000233521820048653;
-0,00026327393259943;
-0,000223899648105515;
-0,000164523906273954;
-0,000136908494121019;
-0,000151246920581818;
-0,000167573995957042;
-0,000130331827708806;
-1,77747083351055E-5;
0,000134677425009421;
0,000256945597425483;
0,000295073086978425;
0,000249678087305572;
0,000171610717154124;
0,000119168348812295;
0,000112126316202342;
0,000119668622900934;
9,09161937464617E-5;
1,73984406150385E-6;
-0,000121340626519486;
-0,000219853775390482;
-0,000248876825058128;
-0,0002114989979771;
-0,000153839768761624;
-0,000125077540915137;
-0,000135933249784378;
-0,00015023575416768;
-0,000116710096577404;
-1,47586728069813E-5;
0,000123714597576486;
0,000234853489157173;
0,000269537114640404;
0,00022867784290014;
0,000159032218729781;
0,000113665147237516;
0,000109725199225784;
0,00011773789376023;
9,0252537131497E-5;
5,30218285049339E-6;
-0,000111650855602799;
-0,000205394987873133;
-0,000233481236047925;
-0,000198403566497256;
-0,000143095076366403;
-0,000113859986716582;
-0,000121707376702633;
-0,000134166585312152;
-0,000104288820144953;
-1,27331819683613E-5;
0,000112002976872919;
0,000212195679720117;
0,000243479840586616;
0,000206997586431228;
0,000145400701360663;
0,000106606909554713;
0,00010531919074041;
0,000113612366068898;
8,75895503623758E-5;
7,40772457404405E-6;
-0,000102727068182642;
-0,000191130328487302;
-0,000218034499957474;
-0,000185394803583951;
-0,000132853181376858;
-0,000103637976354946;
-0,000108841883652556;
-0,000119562972568861;
-9,31526653702015E-5;
-1,16001439382914E-5;
9,98624141846365E-5;
0,00018947880018567;
0,000217504390647448;
0,000185254409703195;
0,000131326233404161;
9,86362066078568E-5;
9,96284799255296E-5;
0,000108078553787814;
8,36971331002492E-5;
8,7027612712953E-6;
-9,41026729620154E-5;
-0,000176734481336942;
-0,000202241956626371;
-0,000172097171887721;
-0,000122611067799642;
-9,38116512122182E-5;
-9,67025033476682E-5;
-0,000105788331239696;
-8,26369938990676E-5;
-1,06102882787416E-5;
8,81589785517771E-5;
0,000167658543312049;
0,00019258470892448;
0,000164376579402744;
0,000117678404357525;
9,05996507597871E-5;
9,35145590197667E-5;
0,000102001439197338;
7,9371741666849E-5;
9,824074556994E-6;
-8,53468865409276E-5;
-0,000161947265089982;
-0,000185916130261149;
-0,000158296346278723;
-0,000112082864041063;
-8,40453119885964E-5;
-8,49545341761883E-5;
-9,25367131233188E-5;
-7,24451197488608E-5;
-9,43020800776171E-6;
7,72907631487531E-5;
0,000147179190393052;
0,000169158296331212;
0,000144748680908287;
0,00010478382730871;
8,27987292335715E-5;
8,72856698689963E-5;
9,56851676174333E-5;
7,48518529151221E-5;
1,08679606491159E-5;
-7,65431814738061E-5;
-0,000146999864254537;
-0,000169350533987006;
-0,000144260656194725;
-0,000101469988431399;
-7,44882809799815E-5;
-7,37365653442307E-5;
-7,99607910727245E-5;
-6,27310234407247E-5;
-8,18005573755218E-6;
6,71941044486906E-5;
0,000128021140560322;
0,00014721128137707;
0,000126330424940566;
9,25758307962013E-5;
7,51687032439483E-5;
8,09037412466947E-5;
8,91063580908507E-5;
7,00750873694712E-5;
1,1668148335723E-5;
-6,79932046536317E-5;
-0,00013230224278818;
-0,000152991507256599;
-0,000130398383069816;
-9,11057175927966E-5;
-6,54092994083853E-5;
-6,32872634825437E-5;
-6,82927456378725E-5;
-5,37149772055742E-5;
-7,04413805446103E-6;
5,7737092562796E-5;
0,000110096319681944;
0,000126672566494902;
0,000109046428040373;
8,09778517725695E-5;
6,76547981433027E-5;
7,43530777201742E-5;
8,22746414868519E-5;
6,50291442093716E-5;
1,21352840398283E-5;
-5,98901016056924E-5;
-0,000118129615617557;
-0,000137137371062315;
-0,000116969150461435;
-8,11791144491198E-5;
-5,69340359058572E-5;
-5,36975186866677E-5;
-5,76112609085672E-5;
-4,54645666493087E-5;
-6,06476672480663E-6;
4,89134941396968E-5;
9,34292348716897E-5;
0,000107580447774484;
9,29369262742382E-5;
7,00377064701832E-5;
6,0330647357418E-5;
6,77440791844941E-5;
7,53222928537925E-5;
5,98271790841911E-5;
1,23174914760607E-5;
-5,22728992429886E-5;
-0,000104590907404812;
-0,000121919381614445;
-0,000104075864042558;
-7,17372094044912E-5;
-4,90575554131716E-5;
-4,49333079766783E-5;
-4,78741962907159E-5;
-3,79356603979042E-5;
-5,18965371422051E-6;
4,07901348440463E-5;
7,80991498346764E-5;
9,00186918422605E-5;
7,80868562359386E-5;
5,98496764471191E-5;
5,33143713415724E-5;
6,12246514458725E-5;
6,84118519382928E-5;
5,46116599645649E-5;
1,23000833741663E-5;
-4,51309111556784E-5;
-9,17363808442137E-5;
-0,00010741098274508;
-9,17740936153953E-5;
-6,27938193299812E-5;
-4,17526523468748E-5;
-3,69437961661569E-5;
-3,90260613126409E-5;
-3,10780020147969E-5;
-4,37411118429968E-6;
3,34090107072643E-5;
6,41462833037949E-5;
7,40257274389855E-5;
6,45369560585686E-5;
5,04672039002037E-5;
4,66834752058465E-5;
5,4898234427287E-5;
6,16577111580702E-5;
4,94791590598919E-5;
1,21327893306708E-5;
-3,84744801222625E-5;
-7,96258412163716E-5;
-9,36923430545592E-5;
-8,01319170161477E-5;
-5,43843829461713E-5;
-3,50201611785553E-5;
-2,97077276612788E-5;
-3,1040522569625E-5;
-2,48731116866586E-5;
-3,61329587494556E-6;
2,67612067674187E-5;
5,15513360798285E-5;
5,9578424270616E-5;
5,22704557927194E-5;
4,18919308815089E-5;
4,04665099519925E-5;
4,88186314734764E-5;
5,51242088972788E-5;
4,44810473338559E-5;
1,18320618484378E-5;
-3,23316557974816E-5;
-6,83240874909286E-5;
-8,08437031910212E-5;
-6,92203363265205E-5;
-4,65533440349559E-5;
-2,8873894242692E-5;
-2,32166641335408E-5;
-2,39021596951105E-5;
-1,93139791153325E-5;
-2,91900839512249E-6;
2,08133218555628E-5;
4,026456579805E-5;
4,6622535412434E-5;
4,12436246661044E-5;
3,41037752769417E-5;
3,46729113008952E-5;
4,30201002552409E-5;
4,88560328985051E-5;
3,96535934475031E-5;
1,14099173457948E-5;
-2,67211612706957E-5;
-5,78754079574125E-5;
-6,89205438742968E-5;
-5,90883059339407E-5;
-3,93288291277583E-5;
-2,33154554666479E-5;
-1,74505599228971E-5;
-1,7582915130197E-5;
-1,43818521170871E-5;
-2,29597697192392E-6;
1,55321263914892E-5;
3,02309367091226E-5;
3,50972563966925E-5;
3,14087053965278E-5;
2,70818555911455E-5;
2,93122224631369E-5;
3,75354138376815E-5;
4,28952608123211E-5;
3,50334798627783E-5;
1,0887171231231E-5;
-2,16418651577377E-5;
-4,82954282656755E-5;
-5,79468621096461E-5;
-4,97565594640474E-5;
-3,27167491670429E-5;
-1,83289372404089E-5;
-1,23735419915183E-5;
-1,20390197047588E-5;
-1,00437100029858E-5;
-1,73904925673213E-6;
1,08881006835088E-5;
2,13940834789359E-5;
2,49387185007846E-5;
2,27160797726559E-5;
2,08050344888499E-5;
2,43933884816634E-5;
3,23944633975899E-5;
3,7279421749941E-5;
3,06548999636009E-5;
1,02888698694627E-5;
-1,70793459810813E-5;
-3,95792962293154E-5;
-4,79241052104791E-5;
-4,12264230806225E-5;
-2,67091735510384E-5;
-1,38891543964709E-5;
-7,94242381215162E-6;
-7,21983129879351E-6;
-6,26091834031042E-6;
-1,24088963163042E-6;
6,8490935185072E-6;
1,36910519579701E-5;
1,60750356733557E-5;
1,51088341893667E-5;
1,52457850328177E-5;
1,99182456172403E-5;
2,76178212691056E-5;
3,20352622701405E-5;
2,65430996911684E-5;
9,63696906513773E-6;
-1,3014415274626E-5;
-3,1711102774195E-5;
-3,88406796202784E-5;
-3,34886528517072E-5;
-2,12922084804956E-5;
-9,96882056685589E-6;
-4,11361822320766E-6;
-3,07456084589608E-6;
-2,99534285597053E-6;
-7,96870414832519E-7;
3,37702293524288E-6;
7,05032572518987E-6;
8,42490564227844E-6;
8,52127928599445E-6;
1,03683720036706E-5;
1,587962523824E-5;
2,32151964398678E-5;
2,7177601450636E-5;
2,27132047567401E-5;
8,94849419776445E-6;
-9,42595804287703E-6;
-2,4667461016234E-5;
-3,06755506695135E-5;
-2,65263528095714E-5;
-1,64480170268147E-5;
-6,53992293409606E-6;
-8,44248318726808E-7;
4,46753939537241E-7;
-2,09850573465899E-7;
-4,04533205941102E-7;
4,29719275415913E-7;
1,3947297691871E-6;
1,90095099768242E-6;
2,88207255399206E-6;
6,131572237133E-6;
1,2263916182852E-5;
1,91881483405739E-5;
2,27122411790328E-5;
1,91729216436029E-5;
8,23745756584536E-6;
-6,29010973665978E-6;
-1,84175459790099E-5;
-2,3398498732004E-5;
-2,0314826108583E-5;
-1,21540230177626E-5;
-3,5725042407707E-6;
1,9091017025385E-6;
3,39443226215472E-6;
2,13311838771115E-6;
-6,14722445532818E-8;
-2,03601124386334E-6;
-3,35476684400586E-6;
-3,58630277046589E-6;
-1,88212554984524E-6;
2,49182658201202E-6;
9,0539296530936E-6;
1,55329792635997E-5;
1,86388863598359E-5;
1,59251153862007E-5;
7,51657232365264E-6;
-3,57967288086722E-6;
-1,29234149078977E-5;
-1,69707704805723E-5;
-1,48219832229727E-5;
-8,38284698964219E-6;
-1,03431443826541E-6;
4,19072534402528E-6;
5,81936457108216E-6;
4,07185073449548E-6;
2,35486814681923E-7;
-4,06281450522197E-6;
-7,27689999533916E-6;
-8,12616529873953E-6;
-5,84472396601113E-6;
-5,95267947952682E-7;
6,23013839065055E-6;
1,22419706476113E-5;
1,49524125709677E-5;
1,2968773098165E-5;
6,79743848774341E-6;
-1,26495158271328E-6;
-8,14167301970895E-6;
-1,13470277850683E-5;
-1,00100345573354E-5;
-5,10355144122932E-6;
1,10824441699204E-6;
6,0448601089141E-6;
7,77199725757275E-6;
5,64448810545549E-6;
4,89881232290246E-7;
-5,69253213489168E-6;
-1,04493287016877E-5;
-1,18068527006353E-5;
-9,0784928213927E-6;
-3,17459626433806E-6;
3,77090339219783E-6;
9,30370939778319E-6;
1,16432597908154E-5;
1,02991604525669E-5;
6,09006224804761E-6;
6,84917778302367E-7;
-4,02547847421704E-6;
-6,47755675195204E-6;
-5,83744663826159E-6;
-2,28314034487228E-6;
2,88895087814571E-6;
7,51460642022255E-6;
9,30123571818531E-6;
6,88806581483175E-6;
7,05077918462942E-7;
-6,96614566181674E-6;
-1,29480946780665E-5;
-1,47148035610021E-5;
-1,1655030353572E-5;
-5,29117974727119E-6;
1,65275825536589E-6;
6,70347890139656E-6;
8,69793616991934E-6;
7,90815975169375E-6;
5,40264328404224E-6;
2,30102140316691E-6;
-5,26060848623233E-7;
-2,3099570009182E-6;
-2,26038250595143E-6;
1,12424705463155E-7;
4,34106596851101E-6;
8,64133333900993E-6;
1,04538527615999E-5;
7,8380440662236E-6;
8,8416239557636E-7;
-7,92339776387683E-6;
-1,48468574041257E-5;
-1,69337721031007E-5;
-1,36439573321533E-5;
-6,98954929486821E-6;
-1,4899231597238E-7;
4,42398763405787E-6;
6,09983776977013E-6;
5,78493180985466E-6;
4,74176296781822E-6;
3,61421095809077E-6;
2,40630229202257E-6;
1,20972523818126E-6;
7,66366614346803E-7;
2,11765333420358E-6;
5,49703869881015E-6;
9,46447618777816E-6;
1,12742876247473E-5;
8,52818689597977E-6;
1,03007542280589E-6;
-8,60227941347243E-6;
-1,62160744134227E-5;
-1,85439253821045E-5;
-1,51121080882652E-5;
-8,31305528512576E-6;
-1,65959848713816E-6;
2,44615644557474E-6;
3,8301146558273E-6;
3,91662495903998E-6;
4,11265695465699E-6;
4,65479851321676E-6;
4,82151493748267E-6;
4,13607522511188E-6;
3,28862007871408E-6;
3,76707034059016E-6;
6,38829165160487E-6;
1,00214028337785E-5;
1,18045066682418E-5;
8,99047059106324E-6;
1,14571127301608E-6;
-9,03865705240335E-6;
-1,71224064305882E-5;
-1,96211725386136E-5;
-1,6122940482276E-5;
-9,30336787482416E-6;
-2,90433740821955E-6;
7,49739885265789E-7;
1,86834942872717E-6;
2,28893174413325E-6;
3,5193895618438E-6;
5,45224021598305E-6;
6,76895193328966E-6;
6,52344865584972E-6;
5,35208298696916E-6;
5,09475102773923E-6;
7,04496619061075E-6;
1,03472406686093E-5;
1,20838186592992E-5;
9,25493912138875E-6;
1,23391565891591E-6;
0,00932416796923524;
0,0226121014681937;
0,0163525005137942;
0,00941636000558586;
0,0121593916316197;
0,00702225916051271;
0,00563413091255483;
0,00458290312947519;
0,0008413865807358;
0,00103535732978867;
-0,00118440468888561;
-0,00198365587714214;
-0,0027987117411876;
-0,00454667965000045;
-0,00488119113004113;
-0,0058484050366821;
-0,00593074255623083;
-0,00617033958744133;
-0,00698422709862687;
-0,00791940612036211;
-0,00935820367463833;
-0,0102606807815141;
-0,0105389564310249;
-0,0101255307004789;
-0,00921810554199134;
-0,00843499227943007;
-0,00783231717751304;
-0,00745868928090898;
-0,00704836004678139;
-0,00641622571286019;
-0,00566902431085408;
-0,00494903584152392;
-0,00444318840830056;
-0,00408248645247861;
-0,00365690952287255;
-0,00301880013683986;
-0,00221779849046642;
-0,00156079619774953;
-0,0013517762644534;
-0,00166390672485279;
-0,00223494157530782;
-0,00260472898222709;
-0,00242710560768718;
-0,00167417346204917;
-0,000635394632234704;
0,000311379884006266;
0,000960801602555155;
0,00137348234694156;
0,00176382445490057;
0,00228044163311342;
0,00288037283165142;
0,00338848624011939;
0,00367591871320451;
0,00379365736459507;
0,00393222022752597;
0,00424133299039856;
0,00466435609985679;
0,00494089645345487;
0,00479452660794118;
0,00416341656268059;
0,00328940042810055;
0,00258390204149839;
0,00236409508560706;
0,00265460727718259;
0,00319847866406951;
0,00365968186150814;
0,00385512434443967;
0,00384260935756054;
0,00381517340501572;
0,0039077392259087;
0,00408314261871824;
0,0041854358587382;
0,00410087070945838;
0,00387583238527168;
0,00368178209914119;
0,00365339111357322;
0,00374084038108727;
0,00371263515235708;
0,00332281095243484;
0,00251692002795158;
0,00151089237327653;
0,000671345061160039;
0,000280588265235414;
0,000360230183564589;
0,000681470071942445;
0,000945443930356954;
0,000989505853061234;
0,000865097687547863;
0,000743508537916257;
0,000744098859657712;
0,000833263894485924;
0,00087202166164089;
0,000758951065399458;
0,000534681474192368;
0,000350661259148812;
0,000325667906059261;
0,000415120324055388;
0,000413754164336424;
0,000103633897911192;
-0,000563826281661085;
-0,0107318888629967;
-0,0247070336199623;
-0,0187248884961979;
-0,0116380040130407;
-0,0140075456962089;
-0,00854205699435576;
-0,00701661931258461;
-0,00597368195909012;
-0,00223365667062409;
-0,00231645490714767;
9,63710129387034E-5;
0,00104582234086743;
0,00187711986385144;
0,0035431019306309;
0,00383198857702744;
0,00489539965327971;
0,00517566949863077;
0,00553179019309294;
0,00618645740077367;
0,00664310382656148;
0,00745283499651569;
0,00786239888909968;
0,00800399114082707;
0,00782563216704327;
0,00734468158365644;
0,00694488666292155;
0,00655490939808555;
0,00626335638807539;
0,00593774168002233;
0,00548516878318596;
0,00498495284447835;
0,00446988443685527;
0,00404700161724901;
0,00367834375746804;
0,00327133609791981;
0,00277048609816295;
0,00219086199092969;
0,0016802694174004;
0,00137387296398421;
0,00130705729479191;
0,00136415845018318;
0,00133376627409452;
0,00106043770730848;
0,000529526755104246;
-0,000125829638108476;
-0,000730694350601142;
-0,00118954553865111;
-0,00152780311456797;
-0,00184423297612042;
-0,00220770190785906;
-0,00259918228623022;
-0,0029383992923704;
-0,00316559439748069;
-0,00330486709512692;
-0,00344512219001607;
-0,00365618306843475;
-0,00391068266890815;
-0,00408471082528264;
-0,00404671354077385;
-0,00376713038299031;
-0,00336180460362697;
-0,0030286832163741;
-0,00292146811582331;
-0,00305355590094766;
-0,00330189324561853;
-0,00350390240936798;
-0,00356994582510965;
-0,00352716155842947;
-0,00346938353518935;
-0,00346338903792587;
-0,00349270916909127;
-0,00348267355079835;
-0,00337866315226035;
-0,00320409846062681;
-0,00304362067950458;
-0,00296349672112266;
-0,0029384050058046;
-0,00285253109058967;
-0,00258274421805687;
-0,00210188992701795;
-0,00151907646898766;
-0,00102016412393503;
-0,000749279382017381;
-0,000718769960728456;
-0,000813158238340754;
-0,000879979684058402;
-0,000835112109347118;
-0,000703690809559285;
-0,000573119086670899;
-0,000505433368881141;
-0,000484837705519286;
-0,000441207210403676;
-0,000323166117598732;
-0,000152114857880448;
-6,43785824930721E-6;
5,27638285426071E-5;
4,98150323391948E-5;
9,32797276442441E-5;
0,000298382012216115;
0,000690874778640315;
0,00116972102094903;
0,00156263420936747;
0,00173632222982665;
0,00168009065842219;
0,00150198839593552;
0,00134430412324223;
0,00128576751728283;
0,00130367317959095;
0,0013175714484798;
0,00127055155106406;
0,00117780851153232;
0,00110478986915905;
0,00109950767731987;
0,00114260112387126;
0,00116205080129965;
0,00110190544254844;
0,000985205142024902;
0,00091274116467679;
0,000991287260275416;
0,00124485546674952;
0,00158039457521396;
0,00183920333028721;
0,00189868263590538;
0,00174934506850681;
