-6,19725029243038E-8;
-3,78428058720881E-8;
-1,39799313231002E-8;
-2,35611739532936E-9;
-1,75310079495231E-8;
-6,22438600402894E-8;
-1,16634614254012E-7;
-1,43609662823088E-7;
-1,10755787424747E-7;
-1,4669104565317E-8;
1,10987168560335E-7;
2,12060469059486E-7;
2,45404940786641E-7;
2,03827957915466E-7;
1,17286331728062E-7;
3,04974593524183E-8;
-2,57795022184518E-8;
-4,90471366356162E-8;
-5,67950016954651E-8;
-6,56216466531169E-8;
-7,66610030048235E-8;
-7,90257093529172E-8;
-6,61523277660347E-8;
-4,81341227825066E-8;
-4,66240442724432E-8;
-7,48306401769269E-8;
-1,19829619511627E-7;
-1,44671814983019E-7;
-1,12417360555316E-7;
-1,54061492498443E-8;
1,13338173951125E-7;
2,17393415858173E-7;
2,51919521402864E-7;
2,1121072493452E-7;
1,28896077455681E-7;
5,165189601873E-8;
7,19120836626418E-9;
-9,41391799686804E-9;
-2,27332779091438E-8;
-5,06305074400404E-8;
-8,77443047088657E-8;
-1,12281614217713E-7;
-1,08831821885249E-7;
-8,57576913755436E-8;
-7,03299756488647E-8;
-8,43336300163332E-8;
-1,20837312198488E-7;
-1,43550589206562E-7;
-1,12280860903302E-7;
-1,59034805688403E-8;
1,13573763291697E-7;
2,18641771853442E-7;
2,53688832097608E-7;
2,14325825492985E-7;
1,36766437291493E-7;
6,86529832246355E-8;
3,4747638189021E-8;
2,3982996061277E-8;
6,21287507838705E-9;
-3,72388806073083E-8;
-9,5653833019685E-8;
-1,38422836299754E-7;
-1,42946488742627E-7;
-1,16009217511603E-7;
-8,91836186952782E-8;
-9,11165020153882E-8;
-1,19998436326986E-7;
-1,40617788929298E-7;
-1,1063676023324E-7;
-1,6188531792527E-8;
1,12039425505586E-7;
2,16458709815173E-7;
2,51460921212353E-7;
2,1382091905778E-7;
1,41389863063866E-7;
8,19274819518045E-8;
5,73712718254394E-8;
5,16729129942216E-8;
3,04517216351434E-8;
-2,53829413614065E-8;
-1,00793343973691E-7;
-1,58231941562449E-7;
-1,69398816626585E-7;
-1,39651997195678E-7;
-1,03700896463078E-7;
-9,55218028454009E-8;
-1,17622680383254E-7;
-1,3620507828275E-7;
-1,0774618649913E-7;
-1,62815373800286E-8;
1,09051541817297E-7;
2,11435890198637E-7;
2,45921767396136E-7;
2,10295007957019E-7;
1,43226808203441E-7;
9,18851342950946E-8;
7,5531509797139E-8;
7,41809994520685E-8;
5,03961659679444E-8;
-1,49915839796455E-8;
0,00933333050042937;
0,0226295573679133;
0,0163725482171559;
0,0094329387551751;
0,0121692774078066;
0,00702606946025721;
0,0056347031414938;
0,00458257944349376;
0,000840396241337365;
0,00103237616243744;
-0,00119033459870398;
-0,00199174854343185;
-0,00280689924400225;
-0,00455347703051284;
-0,00488718229989251;
-0,00585580178997064;
-0,00594112758351951;
-0,0061823963052092;
-0,00699351021840628;
-0,0079207095269977;
-0,00934899225913364;
-0,0102430705183171;
-0,010518702142274;
-0,0101086931603876;
-0,00920778634883727;
-0,00843039526212282;
-0,00783054352044695;
-0,00745759560082236;
-0,00704815243706574;
-0,00641869305986001;
-0,00567535380089769;
-0,00495829229417644;
-0,00445285408551331;
-0,00409057111837282;
-0,00366368566744409;
-0,00302646403662765;
-0,00222813225643229;
-0,00157272339094882;
-0,00136099745153271;
-0,00166524383541799;
-0,00222582869928946;
-0,0025872487166434;
-0,00240697356288388;
-0,00165736281431775;
-0,000624860072677253;
0,000316572130926489;
0,000963559586300837;
0,00137575194889915;
0,00176503788290078;
0,0022784462846969;
0,00287380591927847;
0,00337839351093612;
0,00366515760907493;
0,00378461233824003;
0,00392488372124744;
0,00423355373952116;
0,00465421089450977;
0,00492924513572751;
0,00478548456864637;
0,00416206416578008;
0,00329829323576479;
0,00260101645462944;
0,00238383149161324;
0,002671152186558;
0,00320904271568282;
0,00366530011748953;
0,00385867032176449;
0,00384583537813855;
0,00381721688597456;
0,0039061736783425;
0,00407647715824048;
0,00417479289630051;
0,00408935031237498;
0,00386611455215902;
0,00367408144709475;
0,00364562542727647;
0,00373099622742514;
0,00370137863296137;
0,0033140440875668;
0,00251556851062354;
0,00151946702956618;
0,000687901791232237;
0,000299706011127687;
0,000376313185525592;
0,00069190737329476;
0,000951340070836492;
0,000993663716708181;
0,000869082156350371;
0,000746222527043944;
0,000742921181288915;
0,000826617229417709;
0,000861075634049356;
0,000746963614551147;
0,000524541266560619;
0,00034276606724078;
0,000318023685210224;
0,00040566732162237;
0,000402986684261736;
9,52191054310231E-5;
-0,000565162875072745;
-0,0107237093994029;
-0,0246911867731984;
-0,0187065670323532;
-0,0116225405163033;
-0,0139973643087587;
-0,00853601128204592;
-0,0070120061881322;
-0,00596911612894401;
-0,00223041584468388;
-0,0023172858349126;
8,98407490390011E-5;
0,00103478428557307;
0,00186491661805117;
0,00353275508073558;
0,00382404372420926;
0,00488796564793828;
0,00516667769831096;
0,00552158396407505;
0,00617845444513816;
0,0066417942125004;
0,00746056094783818;
0,00787741902603386;
0,00802137927883372;
0,00784035314078805;
0,00735450244409408;
0,00695097208954231;
0,00655983974188355;
0,0062683465395174;
0,00594138103476707;
0,00548464475552789;
0,00497861864462419;
0,00445893208597939;
0,00403479589247634;
0,0036679738296989;
0,00326346366959301;
0,00276333374378469;
0,00218238364497336;
0,00167067715821188;
0,00136632639072439;
0,00130578486292361;
0,00137138907418509;
0,00134787417214313;
0,00107679143067162;
0,000543412925989145;
-0,000116451836740163;
-0,000724662011893475;
-0,00118441844840444;
-0,00152252661879094;
-0,00184030867896316;
-0,00220795724619914;
-0,00260525693204086;
-0,00294911865802405;
-0,00317762413342056;
-0,0033151061204988;
-0,00345282095430096;
-0,00366299786407717;
-0,00391861097024291;
-0,00409365348869053;
-0,00405377258655935;
-0,0037683571469388;
-0,00335509671649958;
-0,00301554565728113;
-0,00290621833188407;
-0,00304056973274699;
-0,00329302133969415;
-0,0034980003234545;
-0,00356472599547007;
-0,00352171872701106;
-0,00346527390222901;
-0,00346341196484372;
-0,00349847522206391;
-0,00349304026817505;
-0,00339037018443914;
-0,00321407959356547;
-0,00305106345744744;
-0,00296993186574211;
-0,00294576032103064;
-0,00286080337054181;
-0,00258929628004272;
-0,00210306412039498;
-0,00151290629183728;
-0,00100803121215175;
-0,000735175640114938;
-0,000706725382493876;
-0,000804837651919493;
-0,000874270787123644;
-0,000829888239420136;
-0,00069818485896015;
-0,000568910571783953;
-0,000505258009775697;
-0,00049025892996018;
-0,000451126465041641;
-0,000334432427793506;
-0,000161735539111502;
-1,35593531365331E-5;
4,67382516483954E-5;
4,30438749821812E-5;
8,56858789467426E-5;
0,00029234629878383;
0,000689758611616662;
0,00117534912052248;
0,00157374855877971;
0,00174926139613722;
0,00169117244547447;
0,00150972748780132;
0,00134976973216253;
0,00129092084478654;
0,00130915460431464;
0,00132180467112513;
0,0012708933818738;
0,00117275712963438;
0,00109539073199765;
0,00108877437706643;
0,00113342151755067;
0,00115530067918932;
0,00109630871155955;
0,000979019285322418;
0,000905822990016615;
0,000985768650182574;
0,00124380145593978;
0,00158548514683632;
0,00184930246719502;
0,00191045868269714;
0,0017594602369833;
0,00149824998542639;
0,00126051091016378;
0,00111972558351683;
0,00105389774799005;
0,000987087564097074;
0,000866109744038676;
0,000706115645011793;
0,000569682375036996;
0,000502757124395798;
0,000487444443772229;
0,000455790239375209;
0,000354501515059069;
0,000204301199758466;
9,90382633433906E-5;
0,000138553387405104;
0,000345540111906963;
0,000633351726156668;
0,000854016977696179;
0,000893289336771425;
0,000742462827976859;
0,000494699348778193;
0,000272070116184437;
0,000141539331838025;
8,28276177122531E-5;
2,64367206978269E-5;
-7,63121585943134E-5;
-0,000211737541487946;
-0,000322942918659056;
-0,000368243272281618;
-0,000364148206555199;
-0,000372732138914912;
-0,000442667044714771;
-0,000555238617701685;
-0,000625245229309142;
-0,000562117418147324;
-0,000345475900194588;
-5,42819329831494E-5;
0,000176893164715567;
0,000244214147232291;
0,000139701318487658;
-5,2223793367187E-5;
-0,000220999472426372;
-0,00030609326903879;
-0,000326047700732952;
-0,000343947628791012;
-0,000403970767898269;
-0,00049382932618263;
-0,00056215890546776;
-0,00057138828461417;
-0,000536562728893331;
-0,000513865617269229;
-0,000547320202426704;
-0,000620081092180094;
-0,000655325681062359;
-0,000571454369231088;
-0,000350212574961607;
-6,28769564877994E-5;
0,000169251851859418;
0,000252660716341169;
0,000180198787646877;
2,78594579499423E-5;
-0,000104914216510016;
-0,000163730068857447;
-0,000165288337916795;
-0,000166274569382205;
-0,00020634401106591;
-0,00027443902808944;
-0,000324455015829069;
-0,000322694188035978;
-0,000282646982577925;
-0,000254645490813276;
-0,000278081995246226;
-0,000337819424572725;
-0,000365061603682077;
-0,000286799574832783;
-8,67255922070672E-5;
0,000171437338629887;
0,000379333505705495;
0,000453516218940428;
0,000387699367180535;
0,000249786883265543;
0,000128540020574873;
7,24864074401818E-5;
6,67677099264566E-5;
6,09274461705095E-5;
1,97159422074979E-5;
-4,69573692403654E-5;
-9,80195847687157E-5;
-0,000103467880732337;
-7,52654660908541E-5;
-5,8093263585284E-5;
-8,68775926826516E-5;
-0,000148114649826774;
-0,000180708555288725;
-0,000119885248080869;
4,88071508099136E-5;
0,000268895206011803;
0,000444424695749583;
0,000501574205483928;
0,000434860004329938;
0,000304418389783445;
0,000188771363274178;
0,000130821459875932;
0,000117451211451685;
0,000104129198067945;
5,97812902086993E-5;
-6,81174078804585E-6;
-5,94080488155605E-5;
-7,15573065333892E-5;
-5,37980110036303E-5;
-4,54630764695212E-5;
-7,72659728691303E-5;
-0,000137296892230568;
-0,000171820229384734;
-0,000123921560945027;
1,90595199036162E-5;
0,000207504772991385;
0,000357196288317024;
0,000403402531000683;
0,000341354939440363;
0,000223783311038237;
0,000119470718172864;
6,59606019645956E-5;
5,17536207202214E-5;
3,78933515014239E-5;
-2,77859870135521E-6;
-6,25816099462341E-5;
-0,000109868926963178;
-0,000121571770355228;
-0,000106907742996411;
-0,000100187832161159;
-0,000128178099273647;
-0,000180497513088812;
-0,000210368937442577;
-0,000168297902013085;
-4,33224555002107E-5;
0,000121380033180784;
0,000252618362252115;
0,000294190056448443;
0,000241978526976423;
0,000141737262623894;
5,3091054063088E-5;
8,5456191815849E-6;
-1,88474466989236E-6;
-1,19327812959103E-5;
-4,50922927718041E-5;
-9,47197622842872E-5;
-0,000133476300169606;
-0,000141459590504599;
-0,000126649316827409;
-0,000118656998572331;
-0,000140557416151234;
-0,000183398749071523;
-0,000206903189710525;
-0,000168499558125578;
-5,88013313800878E-5;
8,503529080914E-5;
0,000200112644275125;
0,000238184769328016;
0,000195744494717426;
0,000112048806725658;
3,82002230730515E-5;
2,02486391532179E-6;
-5,04335791564055E-6;
-1,18684614319235E-5;
-3,85288452135718E-5;
-7,93371160921446E-5;
-0,000110947365404854;
-0,000116386828203379;
-0,000102474466996596;
-9,44507700539246E-5;
-0,000111958252694568;
-0,000147362404849091;
-0,000166399667246118;
-0,000132900789513934;
-3,8924446633945E-5;
8,39598073717358E-5;
0,000182388841959467;
0,000215482228547559;
0,000180300611075192;
0,000110101939156211;
4,81228449191999E-5;
1,78770303551892E-5;
1,21177777468343E-5;
6,48081583404314E-6;
-1,59566346893879E-5;
-5,03839755779261E-5;
-7,71298633954342E-5;
-8,19139398991846E-5;
-7,04798267773481E-5;
-6,4039336758742E-5;
-7,90735644873956E-5;
-0,000109157293004569;
-0,000125553430702495;
-9,79714732853352E-5;
-1,97915816396574E-5;
8,25525743904629E-5;
0,000164453243406751;
0,000191788701715441;
0,000162138833543082;
0,000103259976415018;
5,11798869739673E-5;
2,54630367671002E-5;
2,00724935124104E-5;
1,47633597073326E-5;
-4,50082250539729E-6;
-3,3713247804896E-5;
-5,65635568490719E-5;
-6,12324599352231E-5;
-5,24812645091634E-5;
-4,78436601423885E-5;
-6,09171460326711E-5;
-8,63831194263E-5;
-0,000100547933653312;
-7,84821619135085E-5;
-1,47700188867136E-5;
6,88342678691221E-5;
0,000135695224482285;
0,000157840485585665;
0,000133317778922617;
8,48746173680455E-5;
4,19808889124084E-5;
2,06097228768282E-5;
1,58216657824746E-5;
1,11105118386955E-5;
-4,94337035818045E-6;
-2,90662797630232E-5;
-4,79996294519754E-5;
-5,21577496221939E-5;
-4,54132660794028E-5;
-4,19696045984883E-5;
-5,28158257425089E-5;
-7,36386305145539E-5;
-8,53111811162067E-5;
-6,77549301166374E-5;
-1,66430011463803E-5;
5,04997765345688E-5;
0,000104239606481697;
0,000122155166086253;
0,000102713200490596;
6,41383565015756E-5;
2,99833139059609E-5;
1,29821569986751E-5;
9,18387294032851E-6;
5,44925338082089E-6;
-7,28666880964647E-6;
-2,64121414485094E-5;
-4,14160046570095E-5;
-4,47221382140033E-5;
-3,94042955095124E-5;
-3,66734287644932E-5;
-4,51764985556764E-5;
-6,15044260607868E-5;
-7,06305017671142E-5;
-5,68283371149554E-5;
-1,67464418292783E-5;
3,5883367461524E-5;
7,80815138266366E-5;
9,23985989877403E-5;
7,76755637018781E-5;
4,80883658676059E-5;
2,18960761169984E-5;
8,93701787340546E-6;
6,14450438150258E-6;
3,38797097922839E-6;
-6,29485896605728E-6;
-2,08835283215518E-5;
-3,23183973450547E-5;
-3,48149907895383E-5;
-3,07337198815638E-5;
-2,86178827673484E-5;
-3,50279097997985E-5;
-4,73600606439729E-5;
-5,42367939201813E-5;
-4,38026733033922E-5;
-1,35717963358936E-5;
0,00935953160393372;
0,022687691625092;
0,0164417250080249;
0,00949144469276808;
0,0122060194992124;
0,00704355728873289;
0,0056427245534747;
0,0045886081331567;
0,000844396900606947;
0,00102919536561762;
-0,0012043257550693;
-0,00201423217620167;
-0,00283131253137756;
-0,00457498480469723;
-0,00490717431449677;
-0,00588043180670835;
-0,00597467331701956;
-0,00622095398460163;
-0,00702469364965381;
-0,00793038921600898;
-0,00933044477403185;
-0,0102018110575947;
-0,0104694279603133;
-0,0100666332351409;
-0,0091807066738056;
-0,0084165818074863;
-0,00782325465281398;
-0,00745171258949069;
-0,0070437260882807;
-0,00641926079155513;
-0,00568338966511384;
-0,0049722257401207;
-0,00446825774436882;
-0,00410419283639525;
-0,00367643506383336;
-0,00304240208635968;
-0,0022500636273344;
-0,00159808201995337;
-0,00138171360711043;
-0,00167216900414594;
-0,00221462769599204;
-0,00256142234379558;
-0,00237581934353008;
-0,00163045678922819;
-0,000607064967994743;
0,000326285733644652;
0,000969291284498954;
0,00138057967934906;
0,00176890273840628;
0,00227921896890043;
0,00287001923115056;
0,00337097380148981;
0,00365668407659632;
0,00377696774705805;
0,0039175761115755;
0,0042243356113538;
0,00464155435299654;
0,00491456199113471;
0,00477311575316155;
0,00415685565345138;
0,00330251636029441;
0,00261290539354822;
0,00239874280525743;
0,00268438181976809;
0,00321823136882105;
0,00367089220722112;
0,00386249673436658;
0,00384922248451135;
0,00382010068432015;
0,00390763532367892;
0,00407591460393671;
0,0041725807315094;
0,00408648358998457;
0,00386330211791561;
0,00367118756429801;
0,00364195302351393;
0,00372610850509942;
0,00369570058345;
0,00330873092973307;
0,00251179109484173;
0,00151773156901473;
0,000687915902172512;
0,000300786457406099;
0,000377901504567591;
0,000693774757979047;
0,000953435893046699;
0,000995893700436144;
0,000871286884909429;
0,000748333945974745;
0,000745046506114711;
0,000828887159974732;
0,000863397201821044;
0,000748990612535684;
0,000525988300765102;
0,000343796232538939;
0,000319247031071065;
0,000407566378623022;
0,000405153603785953;
9,61237225040953E-5;
-0,000567446752658066;
-0,0107301652805345;
-0,0247008739497706;
-0,0187168466469546;
-0,0116304933342639;
-0,0140014314139127;
-0,00853665556995739;
-0,00701093128549479;
-0,00596772282233488;
-0,00222877480262413;
-0,00231443240866404;
9,46491927393392E-5;
0,00104106514354797;
0,0018712058575002;
0,00353793860954609;
0,00382853189085338;
0,00489345386364337;
0,0051744115780593;
0,00553046462427665;
0,00618472488572441;
0,00664096080260897;
0,00745040344997014;
0,00785989312614751;
0,00800186462461521;
0,0078246381648956;
0,00734562187939298;
0,00694812689962478;
0,00656000545754919;
0,0062691044176441;
0,00594265987594977;
0,00548811390263608;
0,00498552347531722;
0,00446847199865476;
0,004044592984212;
0,00367623660021056;
0,00327080366885558;
0,00277233107239654;
0,00219490579699475;
0,0016850635109273;
0,00137700975039644;
0,00130618520261589;
0,0013582796581685;
0,00132402892345823;
0,00104980499518013;
0,000521392443178958;
-0,000129277941463833;
-0,000729360050485518;
-0,00118507286319661;
-0,0015223721263893;
-0,00183941504334065;
-0,00220408830581416;
-0,0025967631002762;
-0,00293705385969446;
-0,00316509610136286;
-0,00330444724591104;
-0,00344325989955668;
-0,00365125060792679;
-0,003902315366278;
-0,00407491558847899;
-0,00403959485752862;
-0,00376697315936304;
-0,00337053241466533;
-0,00304438542734182;
-0,00293912479257473;
-0,00306761155547469;
-0,00330903006642004;
-0,00350424828151474;
-0,00356612413863933;
-0,00352213709617553;
-0,00346477943059792;
-0,00345932552710228;
-0,00348883161628929;
-0,00347908920508776;
-0,0033757848627786;
-0,00320161142986321;
-0,00303981854402276;
-0,00295608402705331;
-0,00292656669033684;
-0,00283871188414013;
-0,00257241028796246;
-0,00210088462511266;
-0,00153007346586971;
-0,00104064492229082;
-0,000772576471030652;
-0,000737598406660203;
-0,000823300608874717;
-0,000881748067699141;
-0,00083191019715668;
-0,000699096675249084;
-0,000568775437523288;
-0,000501064133983404;
-0,000479804437769589;
-0,000435806063407468;
-0,000318339182906996;
-0,000147931966399182;
-1,06203467236284E-6;
6,21542558272294E-5;
6,44011180934117E-5;
0,000110286030865673;
0,000311280901402593;
0,000692600799200672;
0,00115700831771416;
0,00153847091769376;
0,00170865709413354;
0,00165755111287817;
0,00148948534270176;
0,0013413775491761;
0,00128841109547112;
0,00130784786042385;
0,00132164216652913;
0,00127512238185875;
0,00118374662833068;
0,00111164561095339;
0,00110590963850269;
0,00114815842583708;
0,0011686832293439;
0,00111283481170824;
0,00100190255362211;
0,000932194926155469;
0,00100617501789909;
0,0012471890205151;
0,00156645680847761;
0,00181232969543267;
0,00186777802035734;
0,00172403611810445;
0,00147681783771614;
0,00125147766096187;
0,00111684536926472;
0,00105227969939435;
0,000986677878640677;
0,000870306437306143;
0,000717394199759856;
0,000586486039485978;
0,000520520343704319;
0,000502754879620421;
0,000469727432670178;
0,000371727139818832;
0,000228143012977738;
0,000126527247509076;
0,000159914600754887;
0,000349353915656999;
0,000614039635337886;
0,000816171710376865;
0,000849493343457701;
0,000706041385094423;
0,000472575835939901;
0,000262622771587147;
0,000138380904131405;
8,09616423744626E-5;
2,58147494027123E-5;
-7,22144733462767E-5;
-0,000200390546477933;
-0,000305931663943748;
-0,000350218032133848;
-0,00034858380224771;
-0,000358534916047086;
-0,000425105344413864;
-0,000530936625101019;
-0,000597212734334291;
-0,000540256956947205;
-0,000341350448624939;
-7,35437682702923E-5;
0,000138869347951719;
0,000200117033815746;
0,00010296570735865;
-7,46160058536722E-5;
-0,000230669024933529;
-0,000309452222672902;
-0,000328108029874503;
-0,000344752215737057;
-0,000400028704675798;
-0,000482601437316226;
-0,000545230291414321;
-0,000553412523428599;
-0,000521016694981585;
-0,000499659698722166;
-0,000529732310620386;
-0,000595743425894114;
-0,000627238243786255;
-0,000549483766551254;
-0,000345876189901059;
-8,18095275414303E-5;
0,000131633707467103;
0,000208949841665087;
0,000143727506936729;
5,55884700339393E-6;
-0,000114639158995076;
-0,000167218373482331;
-0,000167491937102135;
-0,000167230726773724;
-0,000202599055106809;
-0,000263481856154481;
-0,000307847207403038;
-0,000305024471646861;
-0,000267343681032507;
-0,000240638179172584;
-0,000260724649575868;
-0,000313799139903973;
-0,000337326462604688;
-0,00026504385128935;
-8,22634411853416E-5;
0,000153065111553454;
0,000342606783015277;
0,000410764327066303;
0,000351976144015571;
0,000227881685324677;
0,000118903751280271;
6,89338043572023E-5;
6,44692192726881E-5;
5,98513424816848E-5;
2,3235202679736E-5;
-3,63908436182572E-5;
-8,19245216704596E-5;
-8,63120672897044E-5;
-6,03870167417013E-5;
-4,44533457749038E-5;
-6,99608272908495E-5;
-0,000124701524846165;
-0,000153660742539796;
-9,86129600352905E-5;
5,33221437173605E-5;
0,000251268842833913;
0,00040898350887149;
0,000460247560762002;
0,000400279927948942;
0,000283158366211605;
0,000179344301807721;
0,000127261136736162;
0,000115100807913686;
0,000102962359551998;
6,3055049320343E-5;
3,27005944547078E-6;
-4,39785693436516E-5;
-5,5081819376733E-5;
-3,94908449868523E-5;
-3,2326901121034E-5;
-6,09598748429142E-5;
-0,000114725673412941;
-0,000145731552444164;
-0,000103352104024935;
2,35638283822621E-5;
0,000190767138918778;
0,000323350580944874;
0,000363869828752696;
0,000308231569613016;
0,000203367838809557;
0,000110350512451942;
6,24398606777071E-5;
4,93878771424997E-5;
3,66613787505644E-5;
2,36424875107254E-7;
-5,30565840221795E-5;
-9,52238077889892E-5;
-0,000105906717631778;
-9,32869791615951E-5;
-8,7663215490822E-5;
-0,000112617355904027;
-0,000158953885032834;
-0,000185454653270266;
-0,000148606570078653;
-3,88837198302032E-5;
0,000105636137743355;
0,000220603108339957;
0,000256733012618389;
0,000210552714051218;
0,000122320774901546;
4,43549577900169E-5;
5,1035509389299E-6;
-4,23485421726592E-6;
-1,32073430750194E-5;
-4,23431742753386E-5;
-8,58036581346114E-5;
-0,000119703619822095;
-0,000126702292346745;
-0,000113801650045072;
-0,000106825730858739;
-0,000125844524494914;
-0,000163024012699741;
-0,000183327447771687;
-0,000149821506642603;
-5,44743384774443E-5;
7,03576343572336E-5;
0,000170097352670183;
0,000203008879134993;
0,000166193392493477;
9,3746524953626E-5;
2,99079248413914E-5;
-1,30627710966447E-6;
-7,35141104447933E-6;
-1,31653720385795E-5;
-3,60470431796197E-5;
-7,10641037996373E-5;
-9,81076789941166E-5;
-0,000102605208868507;
-9,04610160895273E-5;
-8,33711582301988E-5;
-9,81667802115088E-5;
-0,00012825816165121;
-0,000144280971880332;
-0,00011533515488755;
-3,47469526559811E-5;
7,03930372888335E-5;
0,000154486134087468;
0,000182726538154319;
0,000152745764725454;
9,29948198635971E-5;
4,03186639952798E-5;
1,46830580074136E-5;
9,87416859838218E-6;
5,17970422731756E-6;
-1,37386176398863E-5;
-4,27725958753713E-5;
-6,52597364700398E-5;
-6,91502694606578E-5;
-5,9339367613593E-5;
-5,37491487862203E-5;
-6,62517641985429E-5;
-9,13904254666724E-5;
-0,000104970351351936;
-8,15857950130292E-5;
-1,57937569847851E-5;
7,01173576728196E-5;
0,000138726441175875;
0,000161534527424943;
0,000136653359926065;
8,73989780834509E-5;
4,38944668702836E-5;
2,24268813710665E-5;
1,79118214699987E-5;
1,34739772666036E-5;
-2,53917619232779E-6;
-2,67688907285699E-5;
-4,56791381382626E-5;
-4,95071117682341E-5;
-4,22334883844242E-5;
-3,83630899121731E-5;
-4,9091544550593E-5;
-6,99906272927862E-5;
-8,15446004506922E-5;
-6,33166693576837E-5;
-1,09753574278642E-5;
5,75307784668179E-5;
0,000112165327621123;
0,000130119490649185;
0,000109933017207048;
7,02846580291318E-5;
3,52327950761473E-5;
1,7746855663171E-5;
1,37587079838901E-5;
9,84652710423687E-6;
-3,22770441976595E-6;
-2,27834010104382E-5;
-3,80998888979785E-5;
-4,1472602309926E-5;
-3,60617132778378E-5;
-3,33039434066511E-5;
-4,19944531748683E-5;
-5,86320159762128E-5;
-6,79022955075729E-5;
-5,38264189988712E-5;
-1,30690689541603E-5;
4,03110301920254E-5;
8,28918736298635E-5;
9,69569507065191E-5;
8,14250176698266E-5;
5,08221372703538E-5;
2,37806599603039E-5;
1,03034334897373E-5;
7,23002527703857E-6;
4,22218869405164E-6;
-5,80429957093855E-6;
-2,07761688578881E-5;
-3,24855676010129E-5;
-3,50635604111688E-5;
-3,09389245266343E-5;
-2,88153896960487E-5;
-3,53517530689024E-5;
-4,78736275182423E-5;
-5,48058359280746E-5;
-4,41336598559067E-5;
-1,34054920917385E-5;
2,67783543253381E-5;
5,88715655638992E-5;
6,96777644398901E-5;
5,84502263072628E-5;
3,60299599206855E-5;
1,62381180380504E-5;
6,44927459879249E-6;
4,30816506473761E-6;
2,20738301407804E-6;
-5,03136155786972E-6;
-1,58725241694157E-5;
-2,43300785499631E-5;
-2,61565335648996E-5;
-2,31332215691526E-5;
-2,15496991902812E-5;
-2,61791406177641E-5;
-3,50770290360376E-5;
-3,99653111663464E-5;
-3,23219254865361E-5;
-1,04713509383033E-5;
0,0093514681189962;
0,0226705510016871;
0,0164214075632436;
0,0094742241964421;
0,0121951876323603;
0,00703843587590041;
0,00564043114687699;
0,00458689506048949;
0,000843270556180167;
0,00103025565067012;
-0,00119991194702721;
-0,00200714930419742;
-0,00282361739935841;
-0,00456821873715098;
-0,00490086968739644;
-0,00587252771268927;
-0,00596369531218419;
-0,00620818762068996;
-0,00701439311782485;
-0,00792753265426366;
-0,00933751763028972;
-0,0102169699453625;
-0,0104874388550904;
-0,0100819263736352;
-0,00919035570199219;
-0,00842118094497596;
-0,0078253533609026;
-0,00745329897866879;
-0,00704479208765437;
-0,00641838729701045;
-0,00567954083758584;
-0,00496600426542064;
-0,00446148103088072;
-0,00409822355963375;
-0,00367086092983258;
-0,00303540289700165;
-0,00224033621329507;
-0,0015867591201906;
-0,00137254846355345;
-0,00166955614026998;
-0,00222076732667859;
-0,00257470180950397;
-0,00239163825523359;
-0,00164391526594832;
-0,000615584665407638;
0,000322189634304338;
0,000967385062528634;
0,00137912132599783;
0,00176790165169485;
0,00227992243873304;
0,00287333849766674;
0,00337638343121343;
0,0036625933882628;
0,00378218332895087;
0,00392245798109565;
0,00423047617979856;
0,0046500946359339;
0,00492451359788436;
0,00478119903223754;
0,00415922803371368;
0,00329724798159645;
0,00260139221961406;
0,0023849881372327;
0,00267265390159685;
0,00321078002605289;
0,00366727599216216;
0,00386077862657057;
0,00384789172791406;
0,00381916768141149;
0,00390818554365599;
0,00407874186618354;
0,00417723192849267;
0,00409158087694753;
0,00386781104214356;
0,00367541917853569;
0,00364728605464572;
0,00373353177544186;
0,00370436086770455;
0,00331579243159765;
0,00251392875423787;
0,00151326959169741;
0,000678048506514202;
0,000288959124097059;
0,000367791993143521;
0,000687325405183082;
0,00095027343330192;
0,000994357555200668;
0,000870081759282648;
0,000747470952458365;
0,000745459981972063;
0,000831261190966802;
0,000867345819432946;
0,000753334089649312;
0,000529840218226803;
0,000347422162185782;
0,000323826902127196;
0,000413947342778182;
0,00041260794870853;
0,000102228207882944;
-0,000565535946775713;
-0,010733887128362;
-0,024709220482663;
-0,0187268892309267;
-0,0116391017096881;
-0,0140069487094247;
-0,00853939253927891;
-0,00701229305015217;
-0,00596880556409821;
-0,00222956696574996;
-0,00231413966594235;
9,66091979293062E-5;
0,00104436825030616;
0,00187485526210781;
0,00354118463960455;
0,00383159821087621;
0,00489733693543243;
0,00517982772656676;
0,00553680174520099;
0,00618994013776149;
0,00664265432069538;
0,00744735527427098;
0,00785294069376659;
0,00799346152725536;
0,00781741106128534;
0,00734096471451129;
0,00694578575033598;
0,00655880937436674;
0,00626813975481512;
0,00594193839666511;
0,00548830124733792;
0,00498710842797979;
0,00447118683513878;
0,00404760845118836;
0,00367892834603872;
0,00327335704836315;
0,00277557456097189;
0,00219943585097562;
0,0016903736616082;
0,00138140514341631;
0,00130767232712659;
0,00135583954420448;
0,00131834414543049;
0,0010428959920513;
0,00051542630418457;
-0,000133147549261468;
-0,000731335823655471;
-0,00118611280175973;
-0,00152322386785867;
-0,0018400668246223;
-0,00220399184101236;
-0,00259551500992643;
-0,00293487075680067;
-0,00316265498658018;
-0,00330225852742483;
-0,00344117296696195;
-0,00364858958963304;
-0,00389859277856261;
-0,00407054214488055;
-0,00403594958332313;
-0,00376568053893154;
-0,00337242838361339;
-0,00304892687943374;
-0,00294468308924242;
-0,00307243567294707;
-0,00331218419693691;
-0,00350588934993741;
-0,00356701805901401;
-0,00352288174068967;
-0,00346536321593613;
-0,00345930634602046;
-0,00348788343105208;
-0,00347738272415968;
-0,00337385984850728;
-0,00319987552214373;
-0,0030381523872702;
-0,00295394927159655;
-0,00292357413639452;
-0,002835186154788;
-0,00256944606136564;
-0,00209977391863087;
-0,00153148682922972;
-0,00104416378322084;
-0,000776923687095466;
-0,000741396587420165;
-0,00082580990553655;
-0,000883084873388188;
-0,000832668596091975;
-0,000699740547138005;
-0,000569293525268563;
-0,000501109628641822;
-0,000479120786682977;
-0,00043452309892746;
-0,000316873988115691;
-0,000146600248929722;
2,27675849546097E-7;
6,38173942180847E-5;
6,67389649069915E-5;
0,000113050711757905;
0,000313631626394662;
0,00069354261968617;
0,00115601893027559;
0,00153585869303323;
0,00170538650925242;
0,00165466685277788;
0,00148755245855733;
0,00134031518230027;
0,00128777754309587;
0,0013072980915048;
0,00132118698163409;
0,00127502378309191;
0,00118419925964516;
0,00111255570257514;
0,00110696882603296;
0,00114913252649081;
0,00116963905447796;
0,0011140788865952;
0,00100365817749876;
0,000934282045798523;
0,00100797755995689;
0,0012479751906388;
0,00156583608336963;
0,0018105138470079;
0,00186545590473764;
0,00172195878709038;
0,00147539577309091;
0,00125066083991003;
0,00111632597494047;
0,00105181714873256;
0,000986282416979766;
0,000870165254955947;
0,000717647265511696;
0,00058707109590949;
0,000521224477465739;
0,000503415544880124;
0,000470389838785464;
0,000372602198386817;
0,000229385484773409;
0,000128016438805056;
0,000161231494396576;
0,000349997682389159;
0,00061373585472768;
0,000815048363244519;
0,000847998662147276;
0,000704669741060393;
0,000471602311269739;
0,000262023788734148;
0,00013796510953576;
8,05793317519959E-5;
2,54755322605233E-5;
-7,23887657890173E-5;
-0,000200307780368204;
-0,000305626856947622;
-0,000349821131706188;
-0,000348195032124081;
-0,000358127799028377;
-0,000424552072663797;
-0,000530142080136774;
-0,000596246194098117;
-0,000539366391185157;
-0,000340835994267496;
-7,35785383774155E-5;
0,000138341479710524;
0,000199336471304479;
0,000102204787999125;
-7,51996065983753E-5;
-0,000231076496563209;
-0,000309774731056479;
-0,000328417078181289;
-0,000345038881731326;
-0,000400227664403222;
-0,000482661978843142;
-0,000545164161187547;
-0,000553278358929591;
-0,000520861099949059;
-0,000499472253433477;
-0,000529456634191049;
-0,000595335737814189;
-0,000626723802101075;
-0,000548963736089278;
-0,000345478259032698;
-8,16193413071753E-5;
0,000131611460516641;
0,000208778189668164;
0,000143488973108;
5,31046674892617E-6;
-0,000114879922446606;
-0,000167457569868225;
-0,000167734602691038;
-0,000167468674565171;
-0,000202815240978793;
-0,000263661017916888;
-0,000307981486104403;
-0,000305111980703524;
-0,000267385460355581;
-0,00024063739889548;
-0,000260685554841853;
-0,00031372159205302;
-0,0003371985269144;
-0,000264842308147301;
-8,19696647359025E-5;
0,000153440097777399;
0,000343007602975341;
0,000411104696338632;
0,000352178482972436;
0,000227917874830082;
0,000118806521979994;
6,87683721516079E-5;
6,42862176994336E-5;
5,96582058294728E-5;
2,30082816070258E-5;
-3,66662310803844E-5;
-8,22242614728423E-5;
-8,65836585819759E-5;
-6,05933384137205E-5;
-4,46088923922007E-5;
-7,01205514052144E-5;
-0,000124901859537789;
-0,000153858815270635;
-9,86817295120317E-5;
5,35236241653981E-5;
0,000251792335199982;
0,000409732161859958;
0,000461011427861144;
0,000400848514761424;
0,000283432601470423;
0,000179369123638117;
0,000127160398840285;
0,000114970979529585;
0,000102810113557876;
6,28229812614126E-5;
2,91858808641361E-6;
-4,4412118757228E-5;
-5,55033544379776E-5;
-3,98318352845023E-5;
-3,26111112083292E-5;
-6,12839221985255E-5;
-0,000115156114846453;
-0,000146200262933475;
-0,000103646936900557;
2,3684283642919E-5;
0,000191406612152011;
0,000324379053178862;
0,000364976957310583;
0,000309098630878501;
0,000203837715986341;
0,000110477618040374;
6,23952769180408E-5;
4,9305008045602E-5;
3,65461391526526E-5;
3,95261331179392E-9;
-5,34661881055275E-5;
-9,57627393872825E-5;
-0,000106447449754407;
-9,37356792671138E-5;
-8,80510594173159E-5;
-0,000113074461298808;
-0,00015957109907302;
-0,000186143719058856;
-0,000149087137778093;
-3,88336644098545E-5;
0,000106362705955071;
0,000221850428847466;
0,000258111269328249;
0,000211657188112573;
0,000122947954412293;
4,45663065346738E-5;
5,10714224368075E-6;
-4,27666577163487E-6;
-1,32893796911208E-5;
-4,25720862606644E-5;
-8,62555341082915E-5;
-0,000120322614451344;
-0,000127334758349092;
-0,000114333931265796;
-0,000107294750245009;
-0,000126406578423628;
-0,000163789003954749;
-0,000184191566703264;
-0,00015045133404865;
-5,44847429091769E-5;
7,11458732444811E-5;
0,000171509327707105;
0,000204593962865511;
0,000167480717744107;
9,44966145929464E-5;
3,01871695073302E-5;
-1,26191461085779E-6;
-7,3577198185861E-6;
-1,32178896731584E-5;
-3,62691499874044E-5;
-7,1544380785487E-5;
-9,87843981080333E-5;
-0,00010330509757667;
-9,10554679939385E-5;
-8,39013733685107E-5;
-9,88087224176623E-5;
-0,0001291361292677;
-0,000145279662089581;
-0,000116081519247691;
-3,48085870331006E-5;
7,12208072412325E-5;
0,000156015035756949;
0,000184461628868278;
0,000154167611382298;
9,38372353165225E-5;
4,06511136546053E-5;
1,47613779307895E-5;
9,89816932203024E-6;
5,1531622851221E-6;
-1,39513265576592E-5;
-4,3269268496155E-5;
-6,59746557103594E-5;
-6,98962618454403E-5;
-5,99771696106723E-5;
-5,43229411644683E-5;
-6,6951446698527E-5;
-9,23505835300736E-5;
-0,000106067747856861;
-8,24195760573266E-5;
-1,58981120180524E-5;
7,09655870692822E-5;
0,000140330646931027;
0,00016336990055868;
0,00013816731648881;
8,83067564861231E-5;
4,42670279925129E-5;
2,25329357575395E-5;
1,7961315991176E-5;
1,34700452322917E-5;
-2,74047743132476E-6;
-2,72716989066733E-5;
-4,6415380660249E-5;
-5,02807034721505E-5;
-4,28982579780566E-5;
-3,89650747572637E-5;
-4,98295800341314E-5;
-7,10059913149744E-5;
-8,27092182487903E-5;
-6,42121846013403E-5;
-1,11146468059975E-5;
5,83832453180189E-5;
0,000113808930911777;
0,000132012076509674;
0,000111502240274392;
7,12342651077566E-5;
3,56338960722699E-5;
1,78750017339018E-5;
1,38292656687929E-5;
9,8620258078065E-6;
-3,41611191373456E-6;
-2,32836890525294E-5;
-3,88430341763716E-5;
-4,22579122368575E-5;
-3,67393490540318E-5;
-3,39208306728803E-5;
-4,27540429365784E-5;
-5,96791745402474E-5;
-6,91067725082377E-5;
-5,47612362217912E-5;
-1,32362242834236E-5;
4,11541340513892E-5;
8,45442708533383E-5;
9,88698773343517E-5;
8,30178559267498E-5;
5,17932422102039E-5;
2,42001719474333E-5;
1,04485930810888E-5;
7,31759572301965E-6;
4,25414348083614E-6;
-5,97878471050079E-6;
-2,12667546243183E-5;
-3,32234638884797E-5;
-3,58471373821694E-5;
-3,16174396515876E-5;
-2,94358314805663E-5;
-3,61185097241463E-5;
-4,89324997478268E-5;
-5,60266533146466E-5;
-4,5088383490407E-5;
-1,3594144282739E-5;
2,76008899371592E-5;
6,05070458449022E-5;
7,15798821818216E-5;
6,00398330499654E-5;
3,70052149090274E-5;
1,66672705911351E-5;
6,60692128037172E-6;
4,40908301821546E-6;
2,25303476625413E-6;
-5,19129939236421E-6;
-1,63475651344915E-5;
-2,50526487459967E-5;
-2,69271539950124E-5;
-2,38025749602441E-5;
-2,21641422158018E-5;
-2,69409032396817E-5;
-3,61306141748912E-5;
-4,11825142117845E-5;
-3,32799874022499E-5;
-1,06758071565103E-5;
1,88269988656339E-5;
4,24184860317832E-5;
5,0535686121784E-5;
4,26919616470338E-5;
2,67606456645069E-5;
1,26998263533912E-5;
5,7801508304889E-6;
4,29597463260043E-6;
2,82726860813251E-6;
-2,28182855805728E-6;
-9,92730517497333E-6;
-1,58957000323631E-5;
-1,72289311740278E-5;
-1,51893340757659E-5;
-1,41452175166047E-5;
-1,73736540367174E-5;
-2,35121569526185E-5;
-2,68961944497668E-5;
-2,17638875382178E-5;
-7,04432527301727E-6;
1,21265870165354E-5;
2,74606967482461E-5;
3,28680724364888E-5;
2,81166328560862E-5;
1,82512134956901E-5;
9,542917713031E-6;
5,25191992114457E-6;
4,29059608823021E-6;
3,32682136478673E-6;
1,59485561553824E-7;
-4,51830684969036E-6;
-8,18602983429371E-6;
-9,11856481136944E-6;
-8,08396527275421E-6;
-7,61525360713842E-6;
-9,55873434069257E-6;
-1,31067099190774E-5;
-1,50929269689024E-5;
-1,23972405688032E-5;
-4,53212280438178E-6;
5,67224914865079E-6;
1,38329416438712E-5;
1,6856881328191E-5;
1,47304517149215E-5;
1,00592299229185E-5;
5,93749791602552E-6;
3,89459436956409E-6;
3,37504943544788E-6;
2,84225544447269E-6;
1,34478858707412E-6;
-7,7807429068634E-7;
-2,45965761660472E-6;
-3,03259165586634E-6;
-2,84075255908053E-6;
-2,84442072836056E-6;
-3,66519146259763E-6;
-4,97118617845438E-6;
-5,73373253717597E-6;
-5,09070237527862E-6;
-3,05192642258763E-6;
-4,77890114975626E-7;
1,58097180995394E-6;
2,58645660859769E-6;
2,71003948679166E-6;
2,47914049701631E-6;
2,28418786274141E-6;
2,18275792698231E-6;
2,07191968282089E-6;
1,93984100777375E-6;
1,89506663735958E-6;
1,97597128555229E-6;
2,01658158762852E-6;
1,78852248217813E-6;
1,30731496821418E-6;
9,42959263600619E-7;
1,10844795167355E-6;
1,73292030298612E-6;
2,04040315705581E-6;
9,88953298709752E-7;
-1,84933690299906E-6;
-5,67495899310696E-6;
-8,73335535757861E-6;
-9,41465516511611E-6;
-7,39276277766818E-6;
-3,88593638351868E-6;
-7,72432815069634E-7;
7,7183262361583E-7;
1,02339559202757E-6;
1,24663522216034E-6;
2,43604625673012E-6;
4,37789180041718E-6;
5,87667071543821E-6;
5,95694959135263E-6;
4,93434513596556E-6;
4,2870588122963E-6;
5,28867153714215E-6;
7,53269589385523E-6;
8,74343206305181E-6;
6,29880402401024E-6;
-5,74656199312347E-7;
-9,7006031778E-6;
-1,70015274725076E-5;
-1,90909969053955E-5;
-1,55159594597709E-5;
-8,93670151255919E-6;
-3,1030051531067E-6;
-2,06900596689568E-7;
3,41036836852107E-7;
8,54929252274889E-7;
3,05679781616253E-6;
6,52532900087599E-6;
9,22046538551762E-6;
9,55504413112659E-6;
8,09083718222444E-6;
7,21234489665344E-6;
8,89566281816996E-6;
1,24597324417198E-5;
1,44060901380845E-5;
1,0826582869403E-5;
6,67926359560125E-7;
-1,27736052471154E-5;
-2,35346736377707E-5;
-2,67890006638562E-5;
-2,19816042820574E-5;
-1,29398011139817E-5;
-4,92537606236374E-6;
-9,4980711776407E-7;
-1,71043264284755E-7;
5,70012825995958E-7;
3,57973759101511E-6;
8,26949926004437E-6;
1,19217223180646E-5;
1,24596216030755E-5;
1,06424001970927E-5;
9,57871116356805E-6;
1,18046330706492E-5;
1,64195732171292E-5;
1,89518101336279E-5;
1,44718748549206E-5;
1,7057607673882E-6;
-1,51615906734525E-5;
-2,86742409159666E-5;
-3,28688350725345E-5;
-2,71109880238701E-5;
-1,6148047158879E-5;
-6,43101863542548E-6;
-1,61436415034378E-6;
-6,57513672660726E-7;
2,59950975919023E-7;
3,90042666918163E-6;
9,54403558938715E-6;
1,39452773709493E-5;
1,46470388462627E-5;
1,25622960689997E-5;
1,13608806570798E-5;
1,4011401038928E-5;
1,94429305128119E-5;
2,24334149857716E-5;
1,72684979165294E-5;
2,50615662335181E-6;
-1,69864186515887E-5;
-3,26114746384302E-5;
-3,75385607464741E-5;
-3,10739955473387E-5;
-1,86651535201516E-5;
-7,66489519284234E-6;
-2,21363469508142E-6;
-1,12042625834652E-6;
-6,68317221027726E-8;
4,05152511834008E-6;
1,041559498629E-5;
1,5384813315255E-5;
1,62187411727796E-5;
1,39453818634808E-5;
1,26512002180968E-5;
1,56243555352515E-5;
2,16672280009988E-5;
2,50049085553613E-5;
1,93474721758926E-5;
3,13151550888297E-6;
-1,82761303996678E-5;
-3,54460663742247E-5;
-4,09193461101933E-5;
-3,39607757910295E-5;
-2,0523542803896E-5;
-8,60876913824186E-6;
-2,70430811547264E-6;
-1,51126217380894E-6;
-3,57054021993927E-7;
4,10425301097537E-6;
1,09827191888446E-5;
1,63596580864494E-5;
1,72966448569557E-5;
1,49026416360254E-5;
1,35537300702366E-5;
1,67584199227901E-5;
2,32307397587637E-5;
2,68162545598683E-5;
2,08330977590204E-5;
3,6373698166671E-6;
-1,90644688438406E-5;
-3,72830431102628E-5;
-4,31398229484624E-5;
-3,58736850890817E-5;
-2,17738023037642E-5;
-9,26791580851234E-6;
-3,07030137020705E-6;
-1,81113801474116E-6;
-5,89248094440368E-7;
4,09531015982465E-6;
1,13063960636449E-5;
1,694912867483E-5;
1,79614227348342E-5;
1,55035462895279E-5;
1,41307005915888E-5;
1,74854915570014E-5;
2,42269493848423E-5;
2,79717173620618E-5;
2,18054434745735E-5;
4,03922620285931E-6;
-1,94196406366698E-5;
-3,82573341808691E-5;
-4,43567626726929E-5;
-3,69444169138549E-5;
-2,2498526091247E-5;
-9,68175096440362E-6;
-3,33017942528897E-6;
-2,03504550150252E-6;
-7,74943555831612E-7;
4,02853905752085E-6;
1,14143756092798E-5;
1,71993640170717E-5;
1,82618065030728E-5;
1,57877413180375E-5;
1,44163880710523E-5;
1,7850285257092E-5;
2,4722155091254E-5;
2,85491144604721E-5;
2,23212490779055E-5;
4,33510754200036E-6;
-1,94202083495249E-5;
-3,85082887769975E-5;
-4,47285720751081E-5;
-3,73067985018898E-5;
-2,27846109219233E-5;
-9,89575645523598E-6;
-3,50876496436881E-6;
-2,20321353008298E-6;
-9,29913611728578E-7;
3,90364124119926E-6;
1,13297194921131E-5;
1,71516422669595E-5;
1,82425929261311E-5;
1,57926586746684E-5;
1,44442659811508E-5;
1,78968948547972E-5;
2,47813334134594E-5;
2,86249447740337E-5;
2,24383130687319E-5;
4,52925478567224E-6;
-1,91320722545845E-5;
-3,81574504488047E-5;
-4,4393970660196E-5;
-3,7076504888089E-5;
-2,27041173233452E-5;
-9,94348319848764E-6;
-3,62026158157904E-6;
-2,32533874989257E-6;
-1,05951270497033E-6;
3,72970699924459E-6;
1,1083181411507E-5;
1,68535997419616E-5;
1,79547536926803E-5;
1,55625692762089E-5;
1,42549825600549E-5;
1,76757036990563E-5;
2,44739855650725E-5;
2,82792020207635E-5;
2,22193746141612E-5;
4,63512976521067E-6;
-1,86063178615233E-5;
-3,73072092163338E-5;
-4,34714587923682E-5;
-3,63513455749288E-5;
-2,23153263891891E-5;
-9,84834646174107E-6;
-3,67074320074291E-6;
-2,40371996497006E-6;
-1,16241903418507E-6;
3,52090423523615E-6;
1,07083678489249E-5;
1,63539258051566E-5;
1,74496993383587E-5;
1,51424458250998E-5;
1,38898753015176E-5;
1,7236589096402E-5;
2,38670854253238E-5;
2,75880995365686E-5;
2,17246259317077E-5;
4,66775917279397E-6;
-1,7886986347069E-5;
-3,60486609600767E-5;
-4,206722067344E-5;
-3,52191369343105E-5;
-2,16705639425482E-5;
-9,63138632719692E-6;
-3,665815339561E-6;
-2,4408088984015E-6;
-1,23805058404742E-6;
3,28922601968818E-6;
1,02346699817691E-5;
1,56954922024234E-5;
1,67726119341641E-5;
1,45715082629317E-5;
1,33847524321834E-5;
1,66229578946156E-5;
2,30193883041876E-5;
2,66186722754412E-5;
2,10065689589964E-5;
4,63880041536916E-6;
-1,70158235286874E-5;
-3,44661377249207E-5;
-4,02793535792917E-5;
-3,37615976101202E-5;
-2,08197059779307E-5;
-9,3143758797021E-6;
-3,61340116783909E-6;
-2,44169822271331E-6;
-1,28876335465679E-6;
3,04260454594132E-6;
9,68571036498719E-6;
1,49140971646506E-5;
1,59614545239252E-5;
1,38824669080819E-5;
1,27693613119852E-5;
1,58714822865174E-5;
2,19814392916825E-5;
2,54290043139833E-5;
2,01104070149771E-5;
4,55700597683023E-6;
-1,60317962674944E-5;
-3,26366774349423E-5;
-3,81972173959382E-5;
-3,20534526595706E-5;
-1,98090201805247E-5;
-8,91844810246159E-6;
-3,52218254306774E-6;
-2,41244146056435E-6;
-1,3180586469812E-6;
2,78681839713575E-6;
9,08136751290917E-6;
1,40406095564731E-5;
1,50491635277594E-5;
1,31037260192403E-5;
1,2069610880252E-5;
1,5014357786132E-5;
2,07979037386152E-5;
2,40706031461797E-5;
1,90763382741916E-5;
4,43032497315384E-6;
-1,49692284611749E-5;
-3,06283548156818E-5;
-3,58998339669386E-5;
-3,01607991005735E-5;
-1,86794207386798E-5;
-8,46224853937021E-6;
-3,39975598841642E-6;
-2,35826571578623E-6;
-1,32885370560813E-6;
2,52721465904904E-6;
8,43950729256422E-6;
1,31026590635393E-5;
1,40652772662072E-5;
1,2260908085084E-5;
1,13089887639453E-5;
1,40806763914877E-5;
1,95089147490985E-5;
2,25896868000767E-5;
1,79406972172011E-5;
4,26676934018356E-6;
-1,38572843257255E-5;
-2,8500052252822E-5;
-3,34557987219254E-5;
-2,81409925435026E-5;
-1,74662504992139E-5;
-7,96164988935629E-6;
-3,25233347875462E-6;
-2,28331193552201E-6;
-1,32327855684216E-6;
2,26888348727611E-6;
7,77617527166584E-6;
1,21248559851715E-5;
1,30360965447593E-5;
1,13769096137477E-5;
1,05085479133585E-5;
1,30963960117722E-5;
1,81500828872957E-5;
2,10272042987277E-5;
1,67358409594271E-5;
4,0740207109752E-6;
-1,27206798918677E-5;
-2,63024220710691E-5;
-3,09243289526463E-5;
-2,60436026689947E-5;
-1,62000666049861E-5;
-7,43037887100061E-6;
-3,08530284432133E-6;
-2,19120704660804E-6;
-1,30323274888477E-6;
2,01617662974119E-6;
7,10520657047784E-6;
1,11284501217805E-5;
1,19843518572441E-5;
1,04715464397808E-5;
9,68653136759112E-6;
1,20840127608786E-5;
1,67522590311716E-5;
1,94186374759926E-5;
1,54898723909271E-5;
3,85894592248919E-6;
-1,1580469356632E-5;
-2,40789188503388E-5;
-2,83563475007663E-5;
-2,3911371395733E-5;
-1,49073656421216E-5;
-6,88053661605854E-6;
-2,90364314896957E-6;
-2,08542414148526E-6;
-1,2707116378418E-6;
1,77244790565911E-6;
6,43808753306024E-6;
1,01313027312772E-5;
1,09292109979736E-5;
9,56153461084982E-6;
8,85834760926393E-6;
1,10626010634715E-5;
1,53416788508406E-5;
1,77942178587587E-5;
1,42267963689588E-5;
3,62750190191827E-6;
-1,04544520525021E-5;
-2,18664226084681E-5;
-2,57951635360556E-5;
-2,17807567797552E-5;
-1,36109018098593E-5;
-6,32271748291774E-6;
-2,71192176076157E-6;
-1,96925558620741E-6;
-1,22774863293175E-6;
1,54020258622173E-6;
5,78421478443316E-6;
9,14822844028687E-6;
9,88663767333818E-6;
8,66082107064227E-6;
8,03688966446863E-6;
1,0048184605238E-5;
1,39404392855707E-5;
1,61794539627499E-5;
1,29669399890646E-5;
3,38491034476852E-6;
-9,35732175892403E-6;
-1,96956616983809E-5;
-2,32769658246352E-5;
-1,96823047692517E-5;
-1,2329837974656E-5;
-5,76597374262694E-6;
-2,51417822558334E-6;
-1,84567366093629E-6;
-1,17625903430368E-6;
1,32132510245507E-6;
5,15123240742225E-6;
8,19140607340313E-6;
8,86980783175674E-6;
7,78095726741353E-6;
7,23288019669445E-6;
9,05411259862976E-6;
1,25669548247758E-5;
1,45956348855656E-5;
1,17273682972647E-5;
3,1358062800143E-6;
-8,30086499719287E-6;
-1,75916776742514E-5;
-2,08313729654837E-5;
-1,76410868157982E-5;
-1,10799758290822E-5;
-5,21785722580705E-6;
-2,31387425743582E-6;
-1,7172644354275E-6;
-1,11795483246169E-6;
1,1172042381599E-6;
4,54524283716243E-6;
7,27066930695935E-6;
7,8894104648006E-6;
6,93135572663963E-6;
6,45509171599701E-6;
8,0913279478994E-6;
1,12363191182676E-5;
1,30602261152168E-5;
1,0522175466399E-5;
2,88426958637634E-6;
-7,29426307334987E-6;
-1,55743859707522E-5;
-1,84820729292447E-5;
-1,56772361684757E-5;
-9,87408292828786E-6;
-4,68456843519368E-6;
-2,11395493721851E-6;
-1,58628181683007E-6;
-1,05439259439536E-6;
9,28777552377929E-7;
3,97095713351702E-6;
6,39372772177484E-6;
6,95387523463772E-6;
6,11946702901291E-6;
5,71051025513891E-6;
7,16857170414977E-6;
9,96058774217045E-6;
1,15872010516627E-5;
9,36272724367588E-6;
2,63382123588132E-6;
-6,34441698209477E-6;
-1,36591650999787E-5;
-1,62474903541014E-5;
-1,38064938983792E-5;
-8,72223750088692E-6;
-4,17112172137298E-6;
-1,91692196299596E-6;
-1,45469085373627E-6;
-9,86994165402958E-7;
7,56552211341966E-7;
3,43181701048777E-6;
5,56636464643925E-6;
6,06957991746418E-6;
5,35096861053921E-6;
5,00449679899609E-6;
6,29258426016479E-6;
8,74907373730571E-6;
1,01873864036873E-5;
8,2579213899276E-6;
2,38744058725518E-6;
-5,45624388263755E-6;
-1,18573874164316E-5;
-1,41413817832953E-5;
-1,20407132781187E-5;
-7,63213532549568E-6;
-3,68147175463701E-6;
-1,72488045139217E-6;
-1,32420190258281E-6;
-9,17057906377208E-7;
6,00670593289233E-7;
2,93015143197812E-6;
4,79266984657031E-6;
5,24109580982422E-6;
4,62996907198391E-6;
4,34097563777107E-6;
5,46833272600111E-6;
7,60866059106368E-6;
8,86881760210474E-6;
7,21445954401592E-6;
2,14760971684269E-6;
-4,6329258487875E-6;
-1,01769042745241E-5;
-1,21734074135797E-5;
-1,0388312265024E-5;
-6,60934812522363E-6;
-3,21862581905091E-6;
-1,53955956762721E-6;
-1,1962706179461E-6;
-8,45753487958329E-7;
4,60974857364269E-7;
2,46733226363433E-6;
4,07526145297386E-6;
4,4714293454885E-6;
3,95921423852627E-6;
3,72261550515752E-6;
4,69924097664989E-6;
6,54410822478464E-6;
7,63708444403367E-6;
6,23711184927E-6;
1,91636629255693E-6;
-3,87613815685447E-6;
-8,62250204210246E-6;
-1,03496358053585E-5;
-8,85470220567968E-6;
-5,65758930144687E-6;
-2,78473879610553E-6;
-1,36234653797393E-6;
-1,07211294905034E-6;
-7,74107026629636E-7;
3,37068156165319E-7;
2,04391906272272E-6;
3,41549887053998E-6;
3,76223172791826E-6;
3,34026846050836E-6;
3,15100428117645E-6;
3,98739196912365E-6;
5,55832647251754E-6;
6,49564511214434E-6;
5,32896338069315E-6;
1,69534493229558E-6;
-3,18627407164521E-6;
-7,19632840837393E-6;
-8,67304661666444E-6;
-7,44269657660082E-6;
-4,77895887409037E-6;
-2,38122214628032E-6;
-1,19430474845885E-6;
-9,5272169499389E-7;
-7,03018379428622E-7;
2,28359992702077E-7;
1,65978743039922E-6;
2,81367110574471E-6;
3,11400216927682E-6;
2,77369536792984E-6;
2,62679935567791E-6;
3,3337099020885E-6;
4,65263889583188E-6;
5,44612781250615E-6;
4,49164302608634E-6;
1,48581706125021E-6;
-2,56264913135397E-6;
-5,89829541974036E-6;
-7,14399511621675E-6;
-6,1528994656083E-6;
-3,97416884358629E-6;
-2,00883718960338E-6;
-1,03622482157977E-6;
-8,38886885392045E-7;
-6,33255701886073E-7;
1,34110724191788E-7;
1,31423885190244E-6;
2,26915889523793E-6;
2,52626370286701E-6;
2,25919872091234E-6;
2,14986761115925E-6;
2,73814254723284E-6;
3,82700826573771E-6;
4,48859159280277E-6;
3,7255273646023E-6;
1,28871736219167E-6;
-2,0036987076494E-6;
-4,72645047878877E-6;
-5,76063143703115E-6;
-4,98404953957083E-6;
-3,242765579075E-6;
-1,66780219055059E-6;
-8,88652284012177E-7;
-7,31218461250207E-7;
-5,65479854990419E-7;
5,34580423741569E-8;
1,00610630053886E-6;
1,78059690456996E-6;
1,99772906179675E-6;
1,79577626362761E-6;
1,71941361427193E-6;
2,19980717516155E-6;
3,08026635379956E-6;
3,62178472744237E-6;
3,02993613498573E-6;
1,1046911417967E-6;
-1,50713983988937E-6;
-3,67731156179615E-6;
-4,51929291916287E-6;
-3,93334873066571E-6;
-2,58332399599571E-6;
-1,35785906124843E-6;
-7,51910871882245E-7;
-6,30166464073826E-7;
-5,00235302439618E-7;
-1,45328101351609E-8;
7,33850566779825E-7;
1,34601768358506E-6;
1,52645663080236E-6;
1,38184129943106E-6;
1,33409822502254E-6;
1,71714938570622E-6;
2,41030933562691E-6;
2,84336713065755E-6;
2,40331040494901E-6;
9,34124755653902E-7;
-1,07012757862067E-6;
-2,7461638444257E-6;
-3,41484720374129E-6;
-2,99674829798945E-6;
-1,99362126978765E-6;
-1,07836588632212E-6;
-6,26139406828985E-7;
-5,36028319877848E-7;
-4,37965889179107E-7;
-7,08579083325551E-8;
4,95642265764193E-7;
9,62976271593448E-7;
1,10997823632891E-6;
1,01534577305472E-6;
9,92150992531634E-7;
1,28806461223824E-6;
1,81427447648221E-6;
2,15012908737511E-6;
1,84337997138387E-6;
7,77174815240338E-7;
-6,89391455781305E-7;
-1,92733736313623E-6;
-2,44101537400277E-6;
-2,16921447852089E-6;
-1,47079995099398E-6;
-8,28359028302052E-7;
-5,11314945534013E-7;
-4,48976493147007E-7;
-3,790186159531E-7;
-1,16532913341635E-7;
2,89444494434602E-7;
6,28669977259315E-7;
7,45431039116089E-7;
6,9388761504137E-7;
6,91462538096758E-7;
9,10025917876334E-7;
1,28871385918725E-6;
1,5381659598722E-6;
1,34730241068903E-6;
6,33808685275261E-7;
-3,61353032531971E-7;
-1,21444151290549E-6;
-1,59063837471571E-6;
-1,44495183217676E-6;
-1,01151061394356E-6;
-6,06621044947115E-7;
-4,07273244894586E-7;
-3,69072042932177E-7;
-3,23659560384435E-7;
-1,52582989740093E-7;
1,13072182839122E-7;
3,40034826985453E-7;
4,29657927780344E-7;
4,14799106973911E-7;
4,29670276115503E-7;
5,80182311272294E-7;
8,29729287789675E-7;
1,00305225735913E-6;
9,11797590929258E-7;
5,03823469291787E-7;
-8,22351322192856E-8;
-6,00577068768692E-7;
-8,55929839034073E-7;
-8,17622369004766E-7;
-6,12037964003155E-7;
-4,11733002616162E-7;
-3,13738509658754E-7;
-2,96274727965528E-7;
-2,72066623366296E-7;
-1,80017581984213E-7;
-3,57485665486441E-8;
9,38346709303366E-8;
1,59303614090052E-7;
1,75231504306343E-7;
2,04233764065218E-7;
2,95454584720434E-7;
4,33104745209159E-7;
5,39987795790358E-7;
5,33263160196115E-7;
3,868789493523E-7;
1,51857810220822E-7;
-7,85246244078198E-8;
-2,28698974946897E-7;
-2,80516709676725E-7;
-2,68413976299489E-7;
-2,4213161223009E-7;
-2,303361432623E-7;
-2,30461578091933E-7;
-2,24354538416362E-7;
-1,99824450113461E-7;
-1,59334193074817E-7;
-1,13262912168773E-7;
-6,9102824404127E-8;
-2,77753776417527E-8;
1,24993721280546E-8;
5,26153920978111E-8;
9,44179473013899E-8;
1,43926422538089E-7;
2,07880265984381E-7;
2,82522229290121E-7;
3,44848319576985E-7;
3,59099601572431E-7;
2,99476227039898E-7;
1,73282452976417E-7;
2,34829061396481E-8;
-9,6151249516056E-8;
-1,56620138960777E-7;
-1,71441991691693E-7;
-1,80572931968843E-7;
-2,12947394305541E-7;
-2,59994018026921E-7;
-2,84620604395542E-7;
-2,59080371356376E-7;
-1,97231340181383E-7;
-1,48240687482071E-7;
-1,51637733301493E-7;
-1,90867703784386E-7;
-1,90321092729712E-7;
-6,83090531567591E-8;
1,90203600864253E-7;
5,00634199628456E-7;
7,19712447473542E-7;
7,37081451256532E-7;
5,50773169485827E-7;
2,67849418904977E-7;
2,79351540467763E-8;
-9,20856722469313E-8;
-1,18966446547748E-7;
-1,40715752036752E-7;
-2,2028589645456E-7;
-3,40005819704976E-7;
-4,2357839311286E-7;
-4,14137479083597E-7;
-3,36141587439999E-7;
-2,80698001149518E-7;
-3,20627993118963E-7;
-4,27313895162151E-7;
-4,67975548823947E-7;
-2,99312020696063E-7;
1,09307304452452E-7;
6,23024828902425E-7;
1,01063858392719E-6;
1,09253611775445E-6;
8,58914847926558E-7;
4,68879410955238E-7;
1,31888953861082E-7;
-3,61809838218523E-8;
-7,27397960697677E-8;
-1,04731407639628E-7;
-2,22684253588618E-7;
-4,01580043842742E-7;
-5,33404041285528E-7;
-5,37713866314061E-7;
-4,47468987818207E-7;
-3,87562380961738E-7;
-4,57645837913212E-7;
-6,1944388187973E-7;
-6,94227126280517E-7;
-4,89130635915522E-7;
3,91615244871051E-8;
7,15707238331822E-7;
1,23903214944144E-6;
1,37407837427105E-6;
1,10453739324352E-6;
6,30709420071471E-7;
2,1746403785031E-7;
1,16690948871185E-8;
-3,24314303731627E-8;
-7,25270822733476E-8;
-2,20928110926896E-7;
-4,4684106389355E-7;
-6,17261105687229E-7;
-6,33154255349678E-7;
-5,34093247399168E-7;
-4,71443404978758E-7;
-5,65901992594532E-7;
-7,71678707512536E-7;
-8,74149930259452E-7;
-6,41698465608283E-7;
-2,09423482673596E-8;
7,8220132613924E-7;
1,41178596305734E-6;
1,58967472966408E-6;
1,29426033897056E-6;
7,57365259813081E-7;
2,86395337220895E-7;
5,20616210980512E-8;
2,31708464847963E-9;
-4,39713967167946E-8;
-2,15736352173456E-7;
-4,77807632461935E-7;
-6,78179389506019E-7;
-7,03665133516417E-7;
-5,98782913058969E-7;
-5,34868986610056E-7;
-6,48506903670369E-7;
-8,88296473956264E-7;
-1,0126614497566E-6;
-7,60842792783431E-7;
-7,17346419811465E-8;
8,25842930475006E-7;
1,53548571574218E-6;
1,74695545457804E-6;
1,43443703613318E-6;
8,52724935610855E-7;
3,4037166293192E-7;
8,56013608597235E-8;
3,18805605717492E-8;
-1,89145334079021E-8;
-2,077717350974E-7;
-4,96381661854814E-7;
-7,19027911113741E-7;
-7,52294243905347E-7;
-6,44175418844879E-7;
-5,80244758546082E-7;
-7,08428773371748E-7;
-9,73390804511802E-7;
-1,11447390208579E-6;
-8,50248539366036E-7;
-1,13959059278297E-7;
8,49757632561569E-7;
1,61635465183637E-6;
1,85315071838888E-6;
1,53109962615099E-6;
9,20483944045644E-7;
3,81020511955395E-7;
1,12887220110564E-7;
5,66449816556294E-8;
2,82353298239773E-9;
-1,97627124798888E-7;
-5,04332278335657E-7;
-7,42498594048598E-7;
-7,81910897151495E-7;
-6,72759781735464E-7;
-6,09852151080528E-7;
-7,48483404086408E-7;
-1,03084183438924E-6;
-1,18405924690391E-6;
-9,13424392608356E-7;
-1,4835546540099E-7;
8,56852197582108E-7;
1,66022575376785E-6;
1,91505079417181E-6;
1,5899289287884E-6;
9,64140005741306E-7;
4,09895560159974E-7;
1,34512356150634E-7;
7,70024859324184E-8;
2,14374840055641E-8;
-1,85832965168595E-7;
-5,03303580104479E-7;
-7,5110399254217E-7;
-7,95195837360483E-7;
-6,8686258756316E-7;
-6,25822543874931E-7;
-7,7131422994552E-7;
-1,06429889046432E-6;
-1,22562397629899E-6;
-9,53682132573928E-7;
-1,75650836968153E-7;
8,49805778991238E-7;
1,67251758802557E-6;
1,93898758834445E-6;
1,61622919455347E-6;
9,86964442606012E-7;
4,28470131594262E-7;
1,51054505371604E-7;
9,33420290039848E-8;
3,71329568073078E-8;
-1,72861208177904E-7;
-4,94798781554943E-7;
-7,47158851322522E-7;
-7,94625264489087E-7;
-6,88641970879712E-7;
-6,30144751389178E-7;
-7,79381879118964E-7;
-1,07716243729533E-6;
-1,24309774692578E-6;
-9,74128779276057E-7;
-1,96559979896995E-7;
8,31068190959627E-7;
1,65822736912512E-6;
1,93080794621333E-6;
1,61491013280853E-6;
9,91998367822054E-7;
4,38121207566413E-7;
1,63068763448746E-7;
1,06048671038913E-7;
5,01237483504233E-8;
-1,59124421364103E-7;
-4,80186222740402E-7;
-7,32785500448944E-7;
-7,82479029663598E-7;
-6,80082586293929E-7;
-6,24646740903021E-7;
-7,7496251848629E-7;
-1,07257698866223E-6;
-1,24011506934324E-6;
-9,77651023425027E-7;
-2,11772046403196E-7;
8,02857484975248E-7;
1,62192093035733E-6;
1,89587327958588E-6;
1,59048020089838E-6;
9,82045437468896E-7;
4,40136092579297E-7;
1,71086070280179E-7;
1,15495978602287E-7;
6,0628818466192E-8;
-1,44977299883865E-7;
-4,60700620641411E-7;
-7,09913454839158E-7;
-7,60831304087578E-7;
-6,62998990999773E-7;
-6,11009186531161E-7;
-7,60144914852803E-7;
-1,0534276681684E-6;
-1,22001485370183E-6;
-9,66907639113219E-7;
-2,21941968879798E-7;
7,67171419926009E-7;
1,56773925167436E-6;
1,83905896046073E-6;
1,5470539521163E-6;
9,59670333160461E-7;
4,35699428074167E-7;
1,75610143245363E-7;
1,22043768982288E-7;
6,88678480479987E-8;
-1,30722892440174E-7;
-4,37444866096947E-7;
-6,80275432758041E-7;
-7,31554345648248E-7;
-6,39029807615174E-7;
-5,90747398575417E-7;
-7,36821926850769E-7;
-1,02234351813131E-6;
-1,18584467449793E-6;
-9,44332248873187E-7;
-2,27697403380782E-7;
7,25785535021271E-7;
1,49940824987367E-6;
1,76475967809544E-6;
1,48834628439796E-6;
9,27202546659008E-7;
4,25898784777636E-7;
1,7711232016128E-7;
1,26037352113989E-7;
7,50569776461981E-8;
-1,16616880852957E-7;
-4,1139780466752E-7;
-6,4542521970868E-7;
-6,96327381841688E-7;
-6,09649640872838E-7;
-5,65232754236222E-7;
-7,06705961557118E-7;
-9,81695012164017E-7;
-1,14035474861753E-6;
-9,1213687068003E-7;
-2,29626870719955E-7;
6,80270952276376E-7;
1,4202522512317E-6;
1,67691368973059E-6;
1,41768898412485E-6;
8,86735846200359E-7;
4,11726472016217E-7;
1,76034434052057E-7;
1,2780456249177E-7;
7,94098487107366E-8;
-1,02870711696685E-7;
-3,83416521886828E-7;
-6,06735737194864E-7;
-6,56643340462095E-7;
-5,76169227260298E-7;
-5,35688488314796E-7;
-6,71331059164648E-7;
-9,33608824243284E-7;
-1,08601662342383E-6;
-8,72311995373731E-7;
-2,28278614396378E-7;
6,31999391942871E-7;
1,33320547236469E-6;
1,57900587487895E-6;
1,33804558296213E-6;
8,40140743923891E-7;
3,94072031288528E-7;
1,72784696010642E-7;
1,27651950364151E-7;
8,21299954705741E-8;
-8,96522614060664E-8;
-3,54244692098453E-7;
-5,65410819787761E-7;
-6,13813194982224E-7;
-5,39747270842925E-7;
-5,03197618341458E-7;
-6,32052872094138E-7;
-8,79971262220631E-7;
-1,02502671632177E-6;
-8,26636866237771E-7;
-2,24165336299892E-7;
5,82156822705504E-7;
1,24084099268459E-6;
1,47410470902001E-6;
1,25202927800942E-6;
7,89074658322116E-7;
3,73736490197935E-7;
1,67736970682255E-7;
1,25866492079429E-7;
8,34181266703348E-8;
-7,7093456629563E-8;
-3,24524326865551E-7;
-5,22496388521997E-7;
-5,68981387171279E-7;
-5,01394855407277E-7;
-4,68708479543326E-7;
-5,90071389067829E-7;
-8,22447119085021E-7;
-9,59323422337331E-7;
-7,76688321653547E-7;
-2,1775294970814E-7;
5,31756018235928E-7;
1,14538602546247E-6;
1,36487892023597E-6;
1,16191730792952E-6;
7,34989317277912E-7;
3,51429108568651E-7;
1,61231842361018E-7;
1,22713571231223E-7;
8,34597618326137E-8;
-6,52962365656521E-8;
-2,94797980503282E-7;
-4,7889152967966E-7;
-5,23133314839567E-7;
-4,61985079166809E-7;
-4,33043214874812E-7;
-5,46422365429679E-7;
-7,62482861461977E-7;
-8,90597059759249E-7;
-7,23849599058337E-7;
-2,09472044794446E-7;
4,81653531219275E-7;
1,04874960324267E-6;
1,2536199858031E-6;
1,06967629616008E-6;
6,79144835574384E-7;
3,27774709489037E-7;
1,53579390100179E-7;
1,18436844184986E-7;
8,24342714866482E-8;
-5,43309176082369E-8;
-2,65516925839934E-7;
-4,35352900579724E-7;
-4,77110189195455E-7;
-4,22266826628472E-7;
-3,96910774594439E-7;
-5,02006360093667E-7;
-7,01330804722325E-7;
-8,20312553982222E-7;
-6,69325981080521E-7;
-1,99711921411954E-7;
4,32557128449144E-7;
9,52544781826486E-7;
1,14228103656E-6;
9,769880925194E-7;
6,22624785028185E-7;
3,03315348766972E-7;
1,4505453711474E-7;
1,13259917737489E-7;
8,05069886996144E-8;
-4,42433171510882E-8;
-2,37052795290741E-7;
-3,9251671666349E-7;
-4,31614805242407E-7;
-3,82870504613741E-7;
-3,60908433981684E-7;
-4,57578819087139E-7;
-6,40053345232466E-7;
-7,49716829602249E-7;
-6,14149760127727E-7;
-1,88822103785484E-7;
3,8504361956971E-7;
8,5811490053511E-7;
1,03249271431344E-6;
8,85259240270178E-7;
5,66344103980657E-7;
2,78520965525609E-7;
1,3590548277992E-7;
1,07383011174236E-7;
7,7830232524149E-8;
-3,50548232854667E-8;
-2,09700300883991E-7;
-3,50902349088272E-7;
-3,87230587654165E-7;
-3,44317242208675E-7;
-3,25535600949226E-7;
-4,13783200892309E-7;
-5,79546285000447E-7;
-6,79861892130979E-7;
-5,59197569279611E-7;
-1,77112918860329E-7;
3,39566368160248E-7;
7,66554059914196E-7;
9,25601647365664E-7;
7,95661485262199E-7;
5,11069220087328E-7;
2,53790353776234E-7;
1,26347468981892E-7;
1,00986150005299E-7;
7,45470407964445E-8;
-2,67723866397027E-8;
-1,83692947636612E-7;
-3,10926339253414E-7;
-3,44425149110677E-7;
-3,07030799392527E-7;
-2,9120348613258E-7;
-3,71144521274507E-7;
-5,20547903895515E-7;
-6,11620110872823E-7;
-5,05205692444581E-7;
-1,64861640252566E-7;
2,96480012409477E-7;
6,78738743764683E-7;
8,22687621042454E-7;
7,09140244431048E-7;
4,57426874343388E-7;
2,29457614212344E-7;
1,16571179037952E-7;
9,42322320277417E-8;
7,07851630614595E-8;
-1,93851881496764E-8;
-1,59200299103066E-7;
-2,72911358426405E-7;
-3,0357063019212E-7;
-2,71350625680393E-7;
-2,58238522631357E-7;
-3,30086539457001E-7;
-4,63656681822191E-7;
-5,45699763453745E-7;
-4,52776565252165E-7;
-1,5230976167392E-7;
2,56036824475019E-7;
5,95342956108444E-7;
7,24600894206385E-7;
6,26448296758456E-7;
4,05920095193255E-7;
2,05798003717594E-7;
1,06740248736281E-7;
8,72591812504382E-8;
6,66625074050939E-8;
-1,2867983995961E-8;
-1,36346143376204E-7;
-2,37097104424503E-7;
-2,6494560443771E-7;
-2,37534319968258E-7;
-2,26894253641477E-7;
-2,90942173780596E-7;
-4,09343317300754E-7;
-4,82659995723639E-7;
-4,02394155198177E-7;
-1,39666407317497E-7;
2,18414927054435E-7;
5,16869811504546E-7;
6,31978126782579E-7;
5,48153328592163E-7;
3,56938410448312E-7;
1,8303459557259E-7;
9,69940312241001E-8;
8,01943427032325E-8;
6,22852169609096E-8;
-7,18812648603839E-9;
-1,15205173173049E-7;
-2,03654974954841E-7;
-2,28754257748024E-7;
-2,05770828152996E-7;
-1,97362223748352E-7;
-2,53962877716829E-7;
-3,57966924268101E-7;
-4,22934511112076E-7;
-3,54437185810307E-7;
-1,27109772061196E-7;
1,83714595170695E-7;
4,4366490119562E-7;
5,45277975586999E-7;
4,74674076503658E-7;
3,10774354580449E-7;
1,61342199379389E-7;
8,7447620633085E-8;
7,31392026975309E-8;
5,7743923884953E-8;
-2,30158265699095E-9;
-9,58143265011615E-8;
-1,72690475460469E-7;
-1,95127359398695E-7;
-1,76188105517281E-7;
-1,69774311765211E-7;
-2,19328739892045E-7;
-3,0978576735767E-7;
-3,66833720293623E-7;
-3,09189514765926E-7;
-1,14790990151245E-7;
1,51976731839728E-7;
3,75938928600304E-7;
4,64794070235369E-7;
4,06287277840173E-7;
2,67632457388445E-7;
1,4085174353406E-7;
7,81974396954815E-8;
6,61871013606559E-8;
5,31224026701075E-8;
1,83811499288168E-9;
-7,81793282594582E-8;
-1,44254357845715E-7;
-1,64141159770666E-7;
-1,48862786669652E-7;
-1,44214542403733E-7;
-1,87158024125679E-7;
-2,6496876664695E-7;
-3,14570643830707E-7;
-2,66853199482414E-7;
-1,02834326763814E-7;
1,23191519101947E-7;
3,13788608083166E-7;
3,90682621518242E-7;
3,43152788344266E-7;
2,27639513087847E-7;
1,21659513674684E-7;
6,93254687776641E-8;
5,94139789544641E-8;
4,84903891306505E-8;
5,28517810163587E-9;
-6,22741973008398E-8;
-1,18353314691016E-7;
-1,358184421996E-7;
-1,23823527864642E-7;
-1,20722254810863E-7;
-1,57512900491869E-7;
-2,23615157460224E-7;
-2,6626932609245E-7;
-2,27555050759922E-7;
-9,13441969837633E-8;
9,73062596838676E-8;
2,57214682730217E-7;
3,2298180499911E-7;
2,85329788311643E-7;
1,90859672420249E-7;
1,03824860001195E-7;
6,08888358828794E-8;
5,2880140353855E-8;
4,39097979986419E-8;
8,09480016165442E-9;
-4,80588695010876E-8;
-9,49548660345322E-8;
-1,10136007840126E-7;
-1,01065305324121E-7;
-9,93016035320145E-8;
-1,30407338306295E-7;
-1,85754192502562E-7;
-2,21974880723296E-7;
-1,91356983106807E-7;
-8,03978144328854E-8;
7,42324526766743E-8;
2,06134820809664E-7;
2,61630701587448E-7;
2,32787059523895E-7;
1,57297867745687E-7;
8,73815294688778E-8;
5,29345560465023E-8;
4,6636134509709E-8;
3,94327792140063E-8;
1,03238010306604E-8;
-3,54663845685033E-8;
-7,39945056306277E-8;
-8,70433399009287E-8;
-8,05464422292399E-8;
-7,99262759255027E-8;
-1,05823500772599E-7;
-1,51361261834314E-7;
-1,81670179559577E-7;
-1,58273102609393E-7;
-7,00571673890442E-8;
5,38537406499234E-8;
1,60397350750166E-7;
2,06486348550029E-7;
1,85426434997517E-7;
1,26913551078302E-7;
7,2336475202034E-8;
4,54927115088476E-8;
4,07187074239542E-8;
3,51010433419838E-8;
1,20297971456781E-8;
-2,442030221033E-8;
-5,53828609989709E-8;
-6,64522170009925E-8;
-6,22019789027423E-8;
-6,25438733380573E-8;
-8,37004198443981E-8;
-1,20366997291719E-7;
-1,45285394213623E-7;
-1,28267492436016E-7;
-6,03663590427346E-8;
3,60325566041248E-8;
1,19799029357774E-7;
1,57337735398228E-7;
1,43090457305535E-7;
9,96292447546745E-8;
5,86788232180062E-8;
3,85880598494762E-8;
3,51591020390927E-8;
3,09499082647291E-8;
1,32685426062947E-8;
-1,48320789307487E-8;
-3,90081611333924E-8;
-4,82561774421865E-8;
-4,59425944946714E-8;
-4,70809247401382E-8;
-6,39610774930117E-8;
-9,26646504231833E-8;
-1,1270412115638E-7;
-1,01268670945172E-7;
-5,1354173616048E-8;
2,06161016031702E-8;
8,40949789253609E-8;
1,13920708884437E-7;
1,05571437200684E-7;
7,53310989647036E-8;
4,63759660733911E-8;
3,22273637960009E-8;
2,99751882253456E-8;
2,70064723722596E-8;
1,40938569001873E-8;
-6,60554462297819E-9;
-2,47459375642718E-8;
-3,23299639724833E-8;
-3,16667972942621E-8;
-3,34511916201998E-8;
-4,65004228698748E-8;
-6,81173449998166E-8;
-8,37758896462398E-8;
-7,71730928894839E-8;
-4,30367099283077E-8;
7,43844774358079E-9;
5,30073580757478E-8;
7,59338658008044E-8;
7,26292073258381E-8;
5,38837403319185E-8;
3,53854693746053E-8;
2,64142216635493E-8;
2,51778962097994E-8;
2,32923789283702E-8;
1,45617496760603E-8;
3,5759732978344E-10;
-1,24644389293168E-8;
-1,85391214328578E-8;
-1,92604003773556E-8;
-2,15526463336239E-8;
-3,12002992820863E-8;
-4,65657236491479E-8;
-5,83230959630062E-8;
-5,58553581177938E-8;
-3,54179576193999E-8;
-3,66959320334348E-9;
2,62361537615846E-8;
4,30405676037813E-8;
4,39953089513822E-8;
3,51350304319907E-8;
2,56522549738441E-8;
2,11424458996447E-8;
2,0773583919953E-8;
1,98212668325872E-8;
1,47194968429368E-8;
6,16464601056373E-9;
-2,01401668010106E-9;
-6,73181828978973E-9;
-8,59646807477724E-9;
-1,12779123654606E-8;
-1,79321636423819E-8;
-2,78330363489943E-8;
-3,61455709918537E-8;
-3,71665122904592E-8;
-2,84907103567041E-8;
-1,28842729320501E-8;
3,46668647057314E-9;
1,4890306185845E-8;
1,93844595084883E-8;
1,89162995679102E-8;
1,71096762196082E-8;
1,63973824798532E-8;
1,67611965206668E-8;
1,6605365670715E-8;
1,46138415754722E-8;
1,09133191547277E-8;
6,74690076680655E-9;
3,23818267009364E-9;
4,50917807696948E-10;
-2,50801357897688E-9;
-6,55499061191018E-9;
-1,17308350996975E-8;
-1,70311595279638E-8;
-2,0951320070602E-8;
-2,22423199464795E-8;
-2,03785334044498E-8;
-1,56214180287572E-8;
-8,88185217692824E-9;
-1,50613890305069E-9;
5,04824149863319E-9;
9,68982416682866E-9;
1,21642380500889E-8;
1,31326664032937E-8;
1,36454877195741E-8;
1,42913803930848E-8;
1,4710545351221E-8;
1,39670121168116E-8;
1,15300026416872E-8;
8,01567028109247E-9;
4,87104391093289E-9;
3,07255586219457E-9;
1,93554290825766E-9;
-7,5601740566612E-10;
-7,03916623940858E-9;
-1,665246882648E-8;
-2,63218715718855E-8;
-3,13510102337237E-8;
-2,86448015787554E-8;
-1,89760351695011E-8;
-6,64856649793224E-9;
3,31750556852926E-9;
8,4197807991356E-9;
9,87950412077661E-9;
1,09438906878842E-8;
1,37880246857565E-8;
1,76557861646869E-8;
1,97939122489035E-8;
1,82933430549651E-8;
1,4228502657789E-8;
1,09803407405514E-8;
1,10960496452836E-8;
1,33647750375705E-8;
1,29046051359079E-8;
4,74365099084239E-9;
-1,16939853689713E-8;
-3,08834662186855E-8;
-4,40408333942147E-8;
-4,47648942000542E-8;
-3,33305991717665E-8;
-1,63585698461192E-8;
-2,08753758526819E-9;
5,13915679139695E-9;
6,98981412510859E-9;
8,49955138278044E-9;
1,31431423862874E-8;
1,98441876874219E-8;
2,43688588025607E-8;
2,36809245341627E-8;
1,92185315864401E-8;
1,59360220255966E-8;
1,76606246530846E-8;
2,27549722592129E-8;
2,41787458833409E-8;
1,45715799275293E-8;
-7,33778725937628E-9;
-3,42209003893317E-8;
-5,40031071129904E-8;
-5,76022816471989E-8;
-4,48690083383415E-8;
-2,42650824268158E-8;
-6,60116972672024E-9;
2,29600072377108E-9;
4,44368578747349E-9;
6,30459083684813E-9;
1,23897801878236E-8;
2,13684786659418E-8;
2,78294425905782E-8;
2,78371789393414E-8;
2,31139152825995E-8;
1,98562344506313E-8;
2,29081696455927E-8;
3,030375200383E-8;
3,32932808862371E-8;
2,26209257880503E-8;
-3,54834785646621E-9;
-3,64879472056813E-8;
-6,15403847356146E-8;
-6,75055139741886E-8;
-5,38815580868559E-8;
-3,05454894362138E-8;
-1,03026491353593E-8;
-1,39777828237046E-10;
2,22472827122194E-9;
4,35327012965766E-9;
1,15557200923192E-8;
2,23135415127178E-8;
3,03081352009968E-8;
3,09029750243797E-8;
2,60346726641055E-8;
2,28500975493226E-8;
2,69767364561208E-8;
3,61992513836758E-8;
4,04627811276823E-8;
2,90634027475484E-8;
-2,89030047382163E-10;
-3,78254662260586E-8;
-6,6935139162035E-8;
-7,4809335134149E-8;
-6,06502644031114E-8;
-3,53729551504412E-8;
-1,32697621794107E-8;
-2,1967265485208E-9;
3,12484647069292E-10;
2,63216527744567E-9;
1,0669099690491E-8;
2,27625327700855E-8;
3,19279902040894E-8;
3,30128333636282E-8;
2,80982251579685E-8;
2,50275534731687E-8;
2,9998738103489E-8;
4,06225576794385E-8;
4,59033103903459E-8;
3,40663398832889E-8;
2,47396713013557E-9;
-3,83691196785622E-8;
-7,04623918580279E-8;
-7,98326023864014E-8;
-6,54406205121998E-8;
-3,89138719224451E-8;
-1,55799451702729E-8;
-3,90720297666058E-9;
-1,31356856721775E-9;
1,13253579812725E-9;
9,75093416942989E-9;
2,27910581760503E-8;
3,28088832645957E-8;
3,42911280661341E-8;
2,94147897900526E-8;
2,64877508543374E-8;
3,20993667903176E-8;
4,37516044475539E-8;
4,98141667349215E-8;
3,77888161950017E-8;
4,7840557627421E-9;
-3,82393076976543E-8;
-7,23760318218639E-8;
-8,28733917742742E-8;
-6,85062590271235E-8;
-4,13256283537845E-8;
-1,73025784246325E-8;
-5,29980267543094E-9;
-2,6742308829224E-9;
-1,58710772852662E-10;
8,82154499314647E-9;
2,24669718516308E-8;
3,30580327344221E-8;
3,48575103771306E-8;
3,00862352535693E-8;
2,73258353781485E-8;
3,33986006839431E-8;
4,57497002109882E-8;
5,23864664572721E-8;
4,03840614610909E-8;
6,6771209094669E-9;
-3,75524235386688E-8;
-7,29116310857514E-8;
-8,42105611935661E-8;
-7,0083721920056E-8;
-4,27558632857006E-8;
-1,85085442792291E-8;
-6,40697562281328E-9;
-3,79432508416746E-9;
-1,25679347507798E-9;
7,8976707866698E-9;
2,18542491144522E-8;
3,277415977341E-8;
3,48169640977385E-8;
3,02082856892673E-8;
2,76318944728618E-8;
3,40087003070519E-8;
4,67716421882841E-8;
5,37996347406064E-8;
4,19966535590655E-8;
8,19087087476505E-9;
-3,64077776990718E-8;
-7,22852512178385E-8;
-8,41048632259149E-8;
-7,03918007353556E-8;
-4,334301601683E-8;
-1,92640030832572E-8;
-7,25516912008142E-9;
-4,69228725714386E-9;
-2,17539101213976E-9;
6,99309194882601E-9;
2,10102260288751E-8;
3,20498987345446E-8;
3,42711789761667E-8;
2,98699008487718E-8;
2,7488087923631E-8;
3,40307267665658E-8;
4,69603988848599E-8;
5,42211427340864E-8;
4,27617617744111E-8;
9,36622091275665E-9;
-3,4901030443741E-8;
-7,0701207305758E-8;
-8,27905792992858E-8;
-6,96308024533597E-8;
-4,32144113682416E-8;
-1,96278423860804E-8;
-7,8746328803248E-9;
-5,39234073575344E-9;
-2,92898548585608E-9;
6,11781815926601E-9;
1,99851308737988E-8;
3,0970257644392E-8;
3,33107648747387E-8;
2,91491271949404E-8;
2,69699366348015E-8;
3,35599483200502E-8;
4,6446585541721E-8;
5,38038436541022E-8;
4,28028949073618E-8;
1,02369296470623E-8;
-3,31128358117575E-8;
-6,83366606507608E-8;
-8,04864692106017E-8;
-6,79876273115284E-8;
-4,24893390099851E-8;
-1,96595714883896E-8;
-8,29152681458053E-9;
-5,91468108335982E-9;
-3,53057078687732E-9;
5,28458691637388E-9;
1,88256822426506E-8;
2,96077184915956E-8;
3,20179110943966E-8;
2,81207831271883E-8;
2,61446598658634E-8;
3,26833056442782E-8;
4,53529966585009E-8;
5,26896095036195E-8;
4,22361670216626E-8;
1,08374333958276E-8;
-3,11188673776252E-8;
-6,53540454697208E-8;
-7,73853433875221E-8;
-6,56290400973346E-8;
-4,12727203051266E-8;
-1,94113640947659E-8;
-8,53218652824974E-9;
-6,27693908706415E-9;
-3,99715293754083E-9;
4,49629805504252E-9;
1,75711593146223E-8;
2,80283013470043E-8;
3,04642870667039E-8;
2,6848403315496E-8;
2,50750042909003E-8;
3,14791069596272E-8;
4,37881621991539E-8;
5,10071380107251E-8;
4,11675633432826E-8;
1,12022655167028E-8;
-2,89822259647919E-8;
-6,19002113734233E-8;
-7,36644405399129E-8;
-6,27045643398258E-8;
-3,96623587474603E-8;
-1,89306199991965E-8;
-8,61910769885615E-9;
-6,50090509964602E-9;
-4,34097932009274E-9;
3,75989802530249E-9;
1,62551098003361E-8;
2,62929933858705E-8;
2,87192094496516E-8;
2,53917697703619E-8;
2,38147040147489E-8;
3,00175054423421E-8;
4,18497054789577E-8;
4,88699660006099E-8;
3,96914929082577E-8;
1,13614404272731E-8;
-2,67588055639819E-8;
-5,81017349209293E-8;
-6,94786329628786E-8;
-5,93497603252726E-8;
-3,77440224384653E-8;
-1,82603390927606E-8;
-8,57573242797116E-9;
-6,60414811587025E-9;
-4,57725805530884E-9;
3,07890291122818E-9;
1,49099717621074E-8;
2,44516607507658E-8;
2,68366763212098E-8;
2,38024685825734E-8;
2,24141626833188E-8;
2,83608947193376E-8;
3,96278081696334E-8;
4,63833895854363E-8;
3,78944635091715E-8;
1,13458887463958E-8;
-2,44977264985006E-8;
-5,40708169399916E-8;
-6,49625930584619E-8;
-5,56834475632946E-8;
-3,5596235962635E-8;
-1,74414884192302E-8;
-8,4236965545075E-9;
-6,60246665246089E-9;
-4,71644400847297E-9;
2,45503349347816E-9;
1,35594127347331E-8;
2,25498060465554E-8;
2,4866243469476E-8;
2,21227885244326E-8;
2,09167526197757E-8;
2,65661095642493E-8;
3,71983733181246E-8;
4,36386311076308E-8;
3,58530435138481E-8;
1,11805100066962E-8;
-2,22373615454982E-8;
-4,99055745212739E-8;
-6,02397266018157E-8;
-5,18075184277603E-8;
-3,3287099352409E-8;
-1,65101521321476E-8;
-8,18043693121387E-9;
-6,51364045680888E-9;
-4,77329246270078E-9;
1,88943898242682E-9;
1,22253344900613E-8;
2,06252536821833E-8;
2,28529492246022E-8;
2,03952958822523E-8;
1,93607569796359E-8;
2,46799844706791E-8;
3,46301299780205E-8;
4,07173844358666E-8;
3,36348004791443E-8;
1,08908410353239E-8;
-2,00146457147809E-8;
-4,56907411286073E-8;
-5,54099269447984E-8;
-4,78126003531369E-8;
-3,08739309368442E-8;
-1,54935943486132E-8;
-7,86302740264411E-9;
-6,35163044723317E-9;
-4,75854198226299E-9;
1,38242786082134E-9;
1,0926576212979E-8;
1,87118203328181E-8;
2,08342714673839E-8;
1,8651837887419E-8;
1,77750131465374E-8;
2,27443135204372E-8;
3,19828198053881E-8;
3,76870684804217E-8;
3,12988904127114E-8;
1,05006163963752E-8;
-1,78539682169497E-8;
-4,14923655083577E-8;
-5,05615137834626E-8;
-4,37763212153642E-8;
-2,84089162043903E-8;
-1,44236772754283E-8;
-7,48975848462099E-9;
-6,12945227409467E-9;
-4,68252432404404E-9;
9,32330715346964E-10;
9,67436107325075E-9;
1,68340689752864E-8;
1,88384660887939E-8;
1,69180519938411E-8;
1,6190555457702E-8;
2,07956493423015E-8;
2,93063381701082E-8;
3,46119238818348E-8;
2,88981126430298E-8;
1,00304176361046E-8;
-1,57806011187664E-8;
-3,73733480374358E-8;
-4,57677581959126E-8;
-3,97644146228823E-8;
-2,59369652462214E-8;
-1,33218429651789E-8;
-7,07070582261052E-9;
-5,85700383430575E-9;
-4,55620539093789E-9;
5,37060020460383E-10;
8,48305123248284E-9;
1,50140852654024E-8;
1,68929388132093E-8;
1,52224420918669E-8;
1,46276629754298E-8;
1,88632175990052E-8;
2,66437666960065E-8;
3,15388308563252E-8;
2,64746708773895E-8;
9,49736466720798E-9;
-1,38095705669124E-8;
-3,33794848517734E-8;
-4,10909134422826E-8;
-3,58293630787175E-8;
-2,34923099949666E-8;
-1,22081986342543E-8;
-6,62159282286883E-9;
-5,54836637798528E-9;
-4,38697077912352E-9;
1,94460573323364E-10;
7,35908174532698E-9;
1,32712483203694E-8;
1,50167777721696E-8;
1,35802953355066E-8;
1,31086038038745E-8;
1,69736238358508E-8;
2,40304317982563E-8;
2,85134599592142E-8;
2,40679036346529E-8;
8,91862049670415E-9;
-1,19553581914759E-8;
-2,95487884868806E-8;
-3,6578509820334E-8;
-3,20157720838772E-8;
-2,11065404384126E-8;
-1,11014557405291E-8;
-6,15182129871201E-9;
-5,21409339854466E-9;
-4,18679099693304E-9;
-9,83499539802783E-11;
6,30726801861786E-9;
1,16164554788406E-8;
1,32271705536674E-8;
1,20075265980095E-8;
1,16452128879509E-8;
1,51451651758032E-8;
2,1495737476687E-8;
2,55701103447605E-8;
2,17097732185802E-8;
8,31114531546832E-9;
-1,02261310905734E-8;
-2,59113838900592E-8;
-3,22698298354704E-8;
-2,83601662364186E-8;
-1,88046259200452E-8;
-1,0015346978276E-8;
-5,67156394660913E-9;
-4,86002719586226E-9;
-3,96045877467652E-9;
-3,44637978629059E-10;
5,33446939087289E-9;
1,00618539297527E-8;
1,15358481430365E-8;
1,05153643350522E-8;
1,02511036600181E-8;
1,33963221071277E-8;
1,90646012967577E-8;
2,27395424529769E-8;
1,94242544898966E-8;
7,68458357291027E-9;
-8,62739311082861E-9;
-2,2488918843374E-8;
-2,81940971666158E-8;
-2,48891482664749E-8;
-1,66066832431461E-8;
-8,96241405290071E-9;
-5,18737457374167E-9;
-4,49327309406926E-9;
-3,71553868332533E-9;
-5,48157222471974E-10;
4,44061190838665E-9;
8,61274163998777E-9;
9,95179116746104E-9;
9,11329621493703E-9;
8,93512355056771E-9;
1,17376469859486E-8;
1,67530394872318E-8;
2,00407181170139E-8;
1,72301385418694E-8;
7,05133172335837E-9;
-7,16104590819647E-9;
-1,92965093634229E-8;
-2,43733830530347E-8;
-2,16235598371844E-8;
-1,45258169881219E-8;
-7,95079086436037E-9;
-4,70890203586219E-9;
-4,1231754784016E-9;
-3,45757267740384E-9;
-7,11947414416669E-10;
3,62672884378442E-9;
7,27398684915197E-9;
8,48027810711474E-9;
7,80643593341103E-9;
7,70331693226763E-9;
1,01790408523753E-8;
1,45762734530593E-8;
1,74938219988443E-8;
1,51473301074472E-8;
6,42020142182331E-9;
-5,82910492757311E-9;
-1,63432932898492E-8;
-2,08210336682273E-8;
-1,85742889625708E-8;
-1,25733469345134E-8;
-6,99007891949867E-9;
-4,24054174518638E-9;
-3,75504758065477E-9;
-3,19155908413384E-9;
-8,3894894912179E-10;
2,89157886121136E-9;
6,04802672503916E-9;
7,1256490999485E-9;
6,59919765212346E-9;
6,56023730790463E-9;
8,72659618473055E-9;
1,25435852500168E-8;
1,51078097913357E-8;
1,31835009927112E-8;
5,80021057647522E-9;
-4,62838926730704E-9;
-1,36339696994231E-8;
-1,75461374510068E-8;
-1,57541847018622E-8;
-1,07566116822646E-8;
-6,08358675908723E-9;
-3,78651513710349E-9;
-3,39207235325209E-9;
-2,92368595485782E-9;
-9,33549303053927E-10;
2,23371010462585E-9;
4,93156037829153E-9;
5,88658466577469E-9;
5,49220170491286E-9;
5,5082109260364E-9;
7,38375781639608E-9;
1,06589079187435E-8;
1,28924755012347E-8;
1,13506329758964E-8;
5,19853646220635E-9;
-3,55541064986235E-9;
-1,11681641319923E-8;
-1,45492710018149E-8;
-1,31639614773251E-8;
-9,07990383606352E-9;
-5,23618564224355E-9;
-3,35020561761183E-9;
-3,03860000267278E-9;
-2,65802061366976E-9;
-9,99738011559392E-10;
1,65176426513003E-9;
3,92769664707705E-9;
4,76543930691606E-9;
4,48543223593362E-9;
4,54635089792766E-9;
6,15311882758744E-9;
8,92769502683905E-9;
1,08502157284723E-8;
9,65139807931173E-9;
4,61949901539655E-9;
-2,60626629938462E-9;
-8,94250103698907E-9;
-1,18300607386063E-8;
-1,08050831399816E-8;
-7,54423038212831E-9;
-4,45048570712059E-9;
-2,93819679180008E-9;
-2,69945500571918E-9;
-2,39537120496203E-9;
-1,04075768818944E-9;
1,13959082267917E-9;
3,02830617545111E-9;
3,75532771170182E-9;
3,57808278169433E-9;
3,67584357037324E-9;
5,03263787113033E-9;
7,34867662334284E-9;
8,98330919226799E-9;
8,08740726420937E-9;
4,06584955613113E-9;
-1,77415536090845E-9;
-6,9490238625275E-9;
-9,38217579019834E-9;
-8,67345325829393E-9;
-6,14848235136237E-9;
-3,72800642696439E-9;
-2,54896945354152E-9;
-2,37484804657409E-9;
-2,14111854276579E-9;
-1,05897717802949E-9;
6,94478958165086E-10;
2,23304622188612E-9;
2,85874040376547E-9;
2,76596900199825E-9;
2,89341421346976E-9;
4,02228001757316E-9;
5,91964054391295E-9;
7,29056246551661E-9;
6,66186599498969E-9;
3,54468632345432E-9;
-1,05254847826844E-9;
-5,18078019582149E-9;
-7,19715807778867E-9;
-6,76416432707975E-9;
-4,89108321990926E-9;
-3,06865411043894E-9;
-2,18579008592281E-9;
-2,06809301236033E-9;
-1,89715070147978E-9;
-1,05865790234605E-9;
3,13549753915082E-10;
1,53474445139416E-9;
2,0643262282217E-9;
2,04634459022178E-9;
2,19600306576202E-9;
3,11567866943683E-9;
4,63583378197173E-9;
5,76712878321961E-9;
5,37131964452937E-9;
3,05506626421695E-9;
-4,33720115300976E-10;
-3,62648638103632E-9;
-5,26420239748779E-9;
-5,06512650667585E-9;
-3,76658104764081E-9;
-2,47114723210276E-9;
-1,84850635343192E-9;
-1,78058263988045E-9;
-1,66462473847765E-9;
-1,04325598033053E-9;
-1,04648914133548E-11;
9,27732338139886E-10;
1,36968176337136E-9;
1,41329282077934E-9;
1,57966424081642E-9;
2,31328699449479E-9;
3,49447683138972E-9;
4,40615028773873E-9;
4,21150007261417E-9;
2,60000608972355E-9;
8,9151298411648E-11;
-2,27191083827652E-9;
-3,56991525781785E-9;
-3,57174342426398E-9;
-2,77006197452423E-9;
-1,9341719033467E-9;
-1,53893347871352E-9;
-1,51313549800715E-9;
-1,44403824756196E-9;
-1,01311169413585E-9;
-2,80398622385846E-10;
4,07850290409987E-10;
7,68914595795036E-10;
8,63700996526516E-10;
1,04164198940956E-9;
1,60579715298869E-9;
2,48854803480838E-9;
3,20454243468273E-9;
3,17797081918261E-9;
2,18102739986793E-9;
5,25113714176282E-10;
-1,1080039369522E-9;
-2,09965072251932E-9;
-2,26770363554305E-9;
-1,89574217443764E-9;
-1,45615145413584E-9;
-1,25659321909592E-9;
-1,26629626730606E-9;
-1,23677351238155E-9;
-9,72281866989912E-10;
-5,01671117664643E-10;
-3,29055112137987E-11;
2,56369596453871E-10;
3,91735018109264E-10;
5,74818508303974E-10;
9,9146381345417E-10;
1,60856582745355E-9;
2,14789925568066E-9;
2,26611632803253E-9;
1,79515698137876E-9;
8,78794742835902E-10;
-1,17055218636218E-10;
-8,39717643791971E-10;
-1,14406415757971E-9;
-1,13394210809812E-9;
-1,03319542037914E-9;
-1,00144859129187E-9;
-1,0407044598677E-9;
-1,04556344813106E-9;
-9,23724892335228E-10;
-6,79066746096142E-10;
-4,01695591465028E-10;
-1,7775703692328E-10;
-1,01915559161798E-11;
1,76441778625917E-10;
4,61862671805102E-10;
8,47736142190937E-10;
1,23245185668641E-9;
1,46699309781769E-9;
1,44551042506737E-9;
1,16336257420483E-9;
7,1269370539007E-10;
2,27546863011962E-10;
-1,85447808281896E-10;
-4,80361559334454E-10;
-6,64195803707688E-10;
-7,72094030281097E-10;
-8,35472440563927E-10;
-8,68365176792922E-10;
-8,67985003405585E-10;
-8,16899612211288E-10;
-7,03037210492483E-10;
-5,36558698114629E-10;
-3,45691219838883E-10;
-1,60762016881801E-10;
1,14691678806729E-11;
1,98288708477864E-10;
4,47002426333265E-10;
7,77138181148311E-10;
1,13037021964538E-9;
1,38145495948361E-9;
1,39616480877924E-9;
1,11680575841597E-9;
6,18401981665457E-10;
7,42897522773143E-11;
-3,43786875151925E-10;
-5,66836094549077E-10;
-6,50162982508968E-10;
-7,07102296993481E-10;
-8,07709089049404E-10;
-9,18433917366246E-10;
-9,44846136975489E-10;
-8,30146074248346E-10;
-6,21446704065832E-10;
-4,39450578475536E-10;
-3,65737089822046E-10;
-3,48377593998731E-10;
-2,17086073805411E-10;
1,85500015594548E-10;
8,48974042581909E-10;
1,54398713067313E-9;
1,9465913695367E-9;
1,84543455447127E-9;
1,28349447801697E-9;
5,38970088177042E-10;
-6,92666876407091E-11;
-3,86348744638403E-10;
-4,84281362579223E-10;
-5,60706061870538E-10;
-7,44952853794324E-10;
-9,89951582338523E-10;
-1,13388645164227E-9;
-1,06305330190541E-9;
-8,42520320356765E-10;
-6,67288338270298E-10;
-6,76857437854579E-10;
-8,02913384772467E-10;
-7,71841616278279E-10;
-3,12088149766887E-10;
5,98482584520428E-10;
1,65516587650835E-9;
2,37907456844915E-9;
2,42718071126214E-9;
1,82154665934228E-9;
9,19899406021335E-10;
1,61083064187087E-10;
-2,28087945175468E-10;
-3,37271073534173E-10;
-4,28666879327192E-10;
-6,81079481743882E-10;
-1,03487589253879E-9;
-1,27212176269687E-9;
-1,24162251665386E-9;
-1,0168493252751E-9;
-8,481954286555E-10;
-9,28162798476501E-10;
-1,17159344158441E-9;
-1,22605402308757E-9;
-7,28373456445107E-10;
3,78666567069383E-10;
1,72389149843328E-9;
2,70590044288111E-9;
2,88014198006972E-9;
2,24583893208719E-9;
1,22559683124762E-9;
3,53058851920326E-10;
-9,12440207918173E-11;
-2,09123461810544E-10;
-3,10589065364006E-10;
-6,14045475289815E-10;
-1,05583354002559E-9;
-1,37102633191158E-9;
-1,3728872339009E-9;
-1,14583387876793E-9;
-9,86782970659519E-10;
-1,12650500985659E-9;
-1,4653233583114E-9;
-1,58976068374315E-9;
-1,06612827218768E-9;
1,88219658716209E-10;
1,75384232987203E-9;
2,93741805289603E-9;
3,21527541407628E-9;
2,5686148566585E-9;
1,46558718701567E-9;
5,08902177163611E-10;
2,3297784197096E-11;
-9,78668838095699E-11;
-2,06565271156581E-10;
-5,51160488640623E-10;
-1,05804046774571E-9;
-1,43268473306566E-9;
-1,46226565326293E-9;
-1,23814398253149E-9;
-1,08989041173376E-9;
-1,27425302657932E-9;
-1,68917181299193E-9;
-1,87185917606899E-9;
-1,33354886259793E-9;
2,40751304035514E-11;
1,752354542999E-9;
3,08977743078928E-9;
3,45041484085731E-9;
2,80226077025977E-9;
1,6457960786101E-9;
6,33348922008522E-10;
1,22366427691962E-10;
-1,32375813647204E-12;
-1,16957833336446E-10;
-4,88604019721439E-10;
-1,04265193971228E-9;
-1,4632127064188E-9;
-1,51555468980544E-9;
-1,29691214276356E-9;
-1,15941454558536E-9;
-1,38027743544733E-9;
-1,85295793502962E-9;
-2,08179382447011E-9;
-1,54085631132329E-9;
-1,14710321790918E-10;
1,72527065163623E-9;
3,17072419082233E-9;
3,59634164923388E-9;
2,95686561431459E-9;
1,77301544385806E-9;
7,29187163215014E-10;
2,0308988906227E-10;
8,03409463166723E-11;
-3,70661078161762E-11;
-4,27821188830964E-10;
-1,01446457017431E-9;
-1,46730053747218E-9;
-1,53832947130688E-9;
-1,32669814607124E-9;
-1,20142167215094E-9;
-1,44984131488594E-9;
-1,96338065755887E-9;
-2,22929610692055E-9;
-1,69339032961553E-9;
-2,29804520649042E-10;
1,67626619131655E-9;
3,19173737492895E-9;
3,66610755414895E-9;
3,0439936979523E-9;
1,8545613719676E-9;
7,99928336653061E-10;
2,69457057015983E-10;
1,47784714855421E-10;
3,03470788012412E-11;
-3,70374757123053E-10;
-9,75900950664491E-10;
-1,44690204242435E-9;
-1,53328753881585E-9;
-1,33285809391555E-9;
-1,21834849382076E-9;
-1,48772835089587E-9;
-2,02896408276673E-9;
-2,31978228127668E-9;
-1,79705232782946E-9;
-3,24647285751887E-10;
1,60973523678644E-9;
3,16246140221316E-9;
3,671439736972E-9;
3,07240668251448E-9;
1,89516593771349E-9;
8,46603934038489E-10;
3,20555445846804E-10;
2,02928594385874E-10;
8,68447479528448E-11;
-3,16221366139675E-10;
-9,2802517174661E-10;
-1,41062264226834E-9;
-1,50937832797381E-9;
-1,31891368531841E-9;
-1,21598224498414E-9;
-1,4976581821973E-9;
-2,05431433976686E-9;
-2,36410784104324E-9;
-1,85870949162061E-9;
-4,00549725720042E-10;
1,53018511059926E-9;
3,0922230030745E-9;
3,62100364425976E-9;
3,05128291422462E-9;
1,90310788787819E-9;
8,74632688221133E-10;
3,58937392295583E-10;
2,46674295202214E-10;
1,34367086535385E-10;
-2,65305351096828E-10;
-8,73841330768694E-10;
-1,35806775053307E-9;
-1,4651753767401E-9;
-1,2872786933903E-9;
-1,19565462374067E-9;
-1,48388408418066E-9;
-2,04653170949272E-9;
-2,36748364071738E-9;
-1,88460532589818E-9;
-4,59235602453099E-10;
1,43973975003355E-9;
2,98667277581815E-9;
3,52743430510532E-9;
2,99042132100234E-9;
1,88175834498228E-9;
8,86294001327676E-10;
3,87773077636218E-10;
2,80293596499614E-10;
1,72724482663478E-10;
-2,18030184166913E-10;
-8,16654433777057E-10;
-1,29370699920058E-9;
-1,40602602757664E-9;
-1,24210273980685E-9;
-1,15985393832075E-9;
-1,45065634806104E-9;
-2,01009873466169E-9;
-2,33521324420961E-9;
-1,87956892132932E-9;
-5,02561804604713E-10;
1,3428721300567E-9;
2,85584839042678E-9;
3,39791791216996E-9;
2,89569003642034E-9;
1,83773912520923E-9;
8,83986533151034E-10;
4,06902176115174E-10;
3,05641653016166E-10;
2,01959516557305E-10;
-1,74534034973639E-10;
-7,54088915741903E-10;
-1,22153122597356E-9;
-1,33613385451722E-9;
-1,18569297979797E-9;
-1,11559469626837E-9;
-1,40254278731709E-9;
-1,95083763056472E-9;
-2,27611538976541E-9;
-1,84943812443015E-9;
-5,33114330097965E-10;
1,24129526336453E-9;
2,70351000884474E-9;
3,23849878253916E-9;
2,77388915113422E-9;
1,7739875353306E-9;
8,6867622728587E-10;
4,16204032432921E-10;
3,21794786013794E-10;
2,24320700774869E-10;
-1,3579050344832E-10;
-6,92422805363101E-10;
-1,1428062799143E-9;
-1,25884051555557E-9;
-1,12250901714688E-9;
-1,06067113341389E-9;
-1,34174429505523E-9;
-1,87392501182621E-9;
-2,19355598376835E-9;
-1,79782243404767E-9;
-5,51135825145004E-10;
1,13771944749617E-9;
2,53568349868968E-9;
3,05998303178437E-9;
2,63383181964529E-9;
1,6938354979378E-9;
8,43629200204343E-10;
4,19797591257937E-10;
3,3154481155553E-10;
2,4090115687593E-10;
-1,00350933144275E-10;
-6,29761312313823E-10;
-1,0599331856484E-9;
-1,17486341177805E-9;
-1,05151076741018E-9;
-1,00033483103857E-9;
-1,2724669590204E-9;
-1,78199885875738E-9;
-2,09324621000569E-9;
-1,72836858359655E-9;
-5,58611133903917E-10;
1,0341182123612E-9;
2,35968747468325E-9;
2,86464686376258E-9;
2,47715454991115E-9;
1,60469769675345E-9;
8,11060183578076E-10;
4,1593736963201E-10;
3,35925535447345E-10;
2,51917101322546E-10;
-6,91991569331114E-11;
-5,67600604187624E-10;
-9,74929987876577E-10;
-1,08803570020407E-9;
-9,77356075648426E-10;
-9,34347633657164E-10;
-1,19511169834548E-9;
-1,68000843462074E-9;
-1,98008375153334E-9;
-1,64655518169846E-9;
-5,57735109092247E-10;
9,31084571745209E-10;
2,1762724447518E-9;
2,65930837790028E-9;
2,30939744751762E-9;
1,50513779916558E-9;
7,72170388940588E-10;
4,07738574938699E-10;
3,34458351488411E-10;
2,56421906919423E-10;
-4,18408067095607E-11;
-5,05436440979572E-10;
-8,88819348505242E-10;
-1,00053195816639E-9;
-9,01626679339008E-10;
-8,66503031155449E-10;
-1,11430828997737E-9;
-1,56924162804002E-9;
-1,8556838890307E-9;
-1,55495055467067E-9;
-5,4921363174542E-10;
8,31864568504133E-10;
1,99254970628982E-9;
2,45005428777056E-9;
2,13580844684626E-9;
1,40137664979029E-9;
7,29222492923852E-10;
3,93947063525375E-10;
3,28473886959541E-10;
2,58294705280972E-10;
-1,75254989869866E-11;
-4,48327136258436E-10;
-8,03928933928727E-10;
-9,09511619965922E-10;
-8,24065579867618E-10;
-7,9582490611869E-10;
-1,02890976490326E-9;
-1,45507993541555E-9;
-1,72598570726521E-9;
-1,45623974257708E-9;
-5,34267397222275E-10;
7,36425655689446E-10;
1,80732596940742E-9;
2,23768101140889E-9;
1,96070542271047E-9;
1,29368727126131E-9;
6,8109396570064E-10;
3,77464143812266E-10;
3,19195585483746E-10;
2,54900312866739E-10;
2,75390964185376E-12;
-3,92621811767994E-10;
-7,2129054421562E-10;
-8,21931393690965E-10;
-7,47444345143115E-10;
-7,25344649647789E-10;
-9,43428744341973E-10;
-1,33847874670476E-9;
-1,59161326542907E-9;
-1,35161182806727E-9;
-5,15468033470631E-10;
6,44039337840776E-10;
1,62702011329495E-9;
2,02828679343164E-9;
1,785207543582E-9;
1,18543719933331E-9;
6,32601735103755E-10;
3,58387241365236E-10;
3,07310804735465E-10;
2,50633493470762E-10;
2,07251401996613E-11;
-3,40336260768499E-10;
-6,41227785144533E-10;
-7,35930442519314E-10;
-6,72733320403858E-10;
-6,56367117930482E-10;
-8,56743436804334E-10;
-1,2211743921665E-9;
-1,45793286761918E-9;
-1,24562125639227E-9;
-4,91937796990882E-10;
5,59245223859801E-10;
1,45301703016316E-9;
1,82238652341486E-9;
1,61253516356539E-9;
1,07709226130481E-9;
5,81426300384682E-10;
3,37586436618262E-10;
2,93130397918598E-10;
2,42249752468144E-10;
3,48080306597411E-11;
-2,91185961990453E-10;
-5,65181189651539E-10;
-6,53832296863048E-10;
-5,98307657833598E-10;
-5,8821204543722E-10;
-7,74442600546241E-10;
-1,10541737330871E-9;
-1,32385483256025E-9;
-1,13882465275331E-9;
-4,65239156729839E-10;
4,77568611676359E-10;
1,28592653971015E-9;
1,62526467500802E-9;
1,44361211409093E-9;
9,71505492461404E-10;
5,32240190271045E-10;
3,16061329228303E-10;
2,77321902216549E-10;
2,31795983411554E-10;
4,6750860671723E-11;
-2,45565572115509E-10;
-4,92185546823716E-10;
-5,74812296296043E-10;
-5,30155259130017E-10;
-5,23334139115085E-10;
-6,92544425188897E-10;
-9,93029087214321E-10;
-1,19243079192731E-9;
-1,03290376354341E-9;
-4,36359101696524E-10;
4,03683364748444E-10;
1,12718301990573E-9;
1,43583922689113E-9;
1,2813734470993E-9;
8,68188553003103E-10;
4,8217226560009E-10;
2,91430951821989E-10;
2,58381391364006E-10;
2,20288703159038E-10;
5,65051678638349E-11;
-2,04591077714304E-10;
-4,25566628666031E-10;
-5,01030606359734E-10;
-4,64219917105465E-10;
-4,6144497401684E-10;
-6,14237513747695E-10;
-8,84239871071212E-10;
-1,0656063068004E-9;
-9,29112371344038E-10;
-4,05834897928625E-10;
3,34957885404551E-10;
9,77063333580321E-10;
1,25654605348036E-9;
1,12813941671868E-9;
7,69868562112225E-10;
4,33734558330577E-10;
2,69041168903774E-10;
2,41108825295859E-10;
2,06911097788067E-10;
6,31904432349536E-11;
-1,66725260836217E-10;
-3,6273107583919E-10;
-4,31264057899089E-10;
-4,02058392090704E-10;
-4,02784589522596E-10;
-5,39514292546269E-10;
-7,80425398390444E-10;
-9,44687434759479E-10;
-8,29614508267451E-10;
-3,75230510119805E-10;
2,72998340471241E-10;
8,38425264578265E-10;
1,08751953639398E-9;
9,81945327344648E-10;
6,75749860468917E-10;
3,87239276116489E-10;
2,45404799649064E-10;
2,21709443337476E-10;
1,93948544367592E-10;
6,8647635747549E-11;
-1,31989733217388E-10;
-3,04005104974128E-10;
-3,67026552111923E-10;
-3,43141183630159E-10;
-3,4741369372017E-10;
-4,7015788562324E-10;
-6,81357413695604E-10;
-8,28752774886372E-10;
-7,33880878825538E-10;
-3,43122258871503E-10;
2,16543524098896E-10;
7,08766489457751E-10;
9,31325220772837E-10;
8,47209207863364E-10;
5,87852871840549E-10;
3,42230316655751E-10;
2,2218023414922E-10;
2,02456859916122E-10;
1,78825356515284E-10;
7,16696897837345E-11;
-1,01931590227502E-10;
-2,50660267577834E-10;
-3,06717359843793E-10;
-2,91139585726437E-10;
-2,97001645965181E-10;
-4,04116139611062E-10;
-5,89862665102896E-10;
-7,20410898258047E-10;
-6,43645669772675E-10;
-3,12029983476116E-10;
1,67492742939563E-10;
5,91265347764419E-10;
7,86696228473357E-10;
7,20944160112103E-10;
5,0515377206811E-10;
2,99515326126666E-10;
1,98927930101934E-10;
1,84392877358573E-10;
1,65343581442681E-10;
7,37416493024838E-11;
-7,45221382832658E-11;
-2,03512089614077E-10;
-2,53114054790737E-10;
-2,41500317120205E-10;
-2,4948390020787E-10;
-3,43531323959776E-10;
-5,04407812755549E-10;
-6,1866186047557E-10;
-5,5830925368367E-10;
-2,8141552467811E-10;
1,23577573548652E-10;
4,83579077505824E-10;
6,53355666418945E-10;
6,05434848119444E-10;
4,29778836634939E-10;
2,59922140793715E-10;
1,77317966855178E-10;
1,65068167147152E-10;
1,50048379410373E-10;
7,4317060923634E-11;
-5,10567959706264E-11;
-1,59684804772701E-10;
-2,04198968049134E-10;
-1,97605592808878E-10;
-2,05393209254888E-10;
-2,87288248580949E-10;
-4,25312947548797E-10;
-5,24640026247897E-10;
-4,79649358924322E-10;
-2,52011298242907E-10;
8,44656962876503E-11;
3,85481958782446E-10;
5,32866354414295E-10;
4,99577745053304E-10;
3,58415996064302E-10;
2,21978387854089E-10;
1,55815392039302E-10;
1,47885869000698E-10;
1,36375876880157E-10;
7,33514658784331E-11;
-2,96350219574172E-11;
-1,21192186387098E-10;
-1,59973313470988E-10;
-1,5645885585396E-10;
-1,67052416080717E-10;
-2,36934861872425E-10;
-3,52948593905176E-10;
-4,39544116684033E-10;
-4,06060596494918E-10;
-2,2264946549146E-10;
5,00218485762943E-11;
2,99079354654889E-10;
4,24811659444892E-10;
4,02927325635182E-10;
2,94424757382028E-10;
1,88433221850093E-10;
1,37852546677347E-10;
1,321133235816E-10;
1,21665520406221E-10;
7,04557684694781E-11;
-1,2358745460502E-11;
-8,6713546518851E-11;
-1,20544649064739E-10;
-1,20052666542564E-10;
-1,30694159838808E-10;
-1,90689842215015E-10;
-2,86933300891843E-10;
-3,59801808902063E-10;
-3,38500081281259E-10;
-1,95306834330483E-10;
2,19888288674348E-11;
2,22172141218723E-10;
3,26862658267132E-10;
3,15997220564805E-10;
2,36649092252522E-10;
1,56593059165695E-10;
1,18189350864582E-10;
1,15187498722183E-10;
1,07758181485842E-10;
6,88258863358201E-11;
2,73575820007036E-12;
-5,88371561951908E-11;
-8,67107352906494E-11;
-8,90716636495702E-11;
-1,00913405700626E-10;
-1,50003180158607E-10;
-2,27733691330302E-10;
-2,88662995351114E-10;
-2,77906516361635E-10;
-1,70677587321389E-10;
0,00933343404385412;
0,0226297299806858;
0,0163727375184775;
0,00943309641820329;
0,0121693919709659;
0,00702616745946214;
0,00563481723102359;
0,0045827101529218;
0,000840500185639444;
0,00103239243781196;
-0,00119043947994703;
-0,00199195268957396;
-0,00280713699198254;
-0,00455368138164323;
-0,0048873250729692;
-0,00585590082189878;
-0,00594121744869683;
-0,00618248854888308;
-0,00699357689011106;
-0,00792070369392101;
-0,00934888801816358;
-0,0102428886156806;
-0,0105184992278499;
-0,0101085229694107;
-0,00920766452700335;
-0,00843029669968792;
-0,0078304340845045;
-0,00745747141260298;
-0,00704805319600412;
-0,00641867700705253;
-0,00567545360703593;
-0,00495848728261029;
-0,00445308144470362;
-0,00409076744862574;
-0,00366382591653238;
-0,00302656751677367;
-0,00222823267203761;
-0,00157282924229796;
-0,00136107663196925;
-0,00166524569894883;
-0,00222572546257682;
-0,00258706172757099;
-0,00240676222011936;
-0,00165718460176225;
-0,000624733917146213;
0,000316669776092309;
0,000963663593597114;
0,00137586894057863;
0,00176513181968985;
0,00227846199016865;
0,00287371187031786;
0,00337820906094736;
0,00366494226683427;
0,00378442557479049;
0,0039247476088796;
0,00423344801088586;
0,00465410306058777;
0,00492912936615882;
0,00478539598747157;
0,00416205580386996;
0,00329839406177093;
0,00260120493885517;
0,00238404680289166;
0,00267133453379117;
0,00320917069318375;
0,00366539561598459;
0,00385876832401878;
0,00384594470747273;
0,00381730508429454;
0,00390618892826087;
0,00407638934710582;
0,00417461998083731;
0,0040891481737088;
0,00386593851238197;
0,00367395076485538;
0,00364551932917269;
0,00373088370983279;
0,00370125618297285;
0,00331394884952474;
0,00251555475401964;
0,00151956430901555;
0,000688088748660498;
0,000299921503126199;
0,000376496353863907;
0,000692035041953218;
0,00095143242184052;
0,000993755315325267;
0,000869183538737504;
0,000746304700660379;
0,00074293588606731;
0,000826535962417175;
0,000860914917534366;
0,000746775480518362;
0,00052437676303868;
0,000342641820450928;
0,000317918798394584;
0,000405552480817503;
0,000402860366181611;
9,51196105502323E-5;
-0,000565181017593033;
-0,0107236165599818;
-0,0246910038461408;
-0,0187063545312838;
-0,0116223593125696;
-0,0139972387300523;
-0,00853592287382072;
-0,00701192123861561;
-0,00596902282220921;
-0,00223033985439937;
-0,00231727174883392;
8,97661822645678E-5;
0,0010346361429486;
0,00186474295395258;
0,00353260262646057;
0,00382392666269858;
0,00488786328075943;
0,00516656254781464;
0,00552145619327117;
0,00617835277035281;
0,00664177259838467;
0,00746064866896104;
0,00787759588939041;
0,0080215861791443;
0,00784053007610923;
0,00735462447042599;
0,00695105594291755;
0,00655991792880842;
0,00626843177466562;
0,00594145079270747;
0,00548465816441849;
0,00497855080642462;
0,0044587966455392;
0,00403463687625291;
0,00366783367938;
0,00326335431816206;
0,00276323495713416;
0,00218226987841575;
0,00167054998256357;
0,00136622431200537;
0,00130576059902626;
0,00137147118947049;
0,00134804336213096;
0,0010769906287556;
0,000543583726384071;
-0,000116334536872041;
-0,000724583161713975;
-0,00118434702432384;
-0,00152244933940814;
-0,00184024510943386;
-0,00220794455944708;
-0,00260531812065752;
-0,00294924147734552;
-0,00317776856710484;
-0,00331523393249421;
-0,00345292226743709;
-0,00366309223084283;
-0,00391872195103027;
-0,00409377835846322;
-0,00405387357088172;
-0,00376838332806567;
-0,00335502052836861;
-0,00301538537371281;
-0,00290602848216382;
-0,00304040654101174;
-0,00329290968276322;
-0,0034979267841171;
-0,00356466124169884;
-0,00352164919627389;
-0,00346521640103932;
-0,00346340003320596;
-0,00349852992823249;
-0,00349315071910487;
-0,00339050030181957;
-0,00321419521579251;
-0,00305115657130127;
-0,00297002117322483;
-0,00294586738016224;
-0,00286092453190563;
-0,00258939492641789;
-0,00210309157055448;
-0,00151283621126228;
-0,00100788073564424;
-0,000734996376839309;
-0,000706570922589478;
-0,000804732324017991;
-0,000874202738599725;
-0,000829829984338225;
-0,000698122795468795;
-0,000568858955010817;
-0,000505246854994798;
-0,000490307390813033;
-0,000451224943148085;
-0,000334548663915838;
-0,000161839275224707;
-1,36442546384849E-5;
4,66544668622069E-5;
4,29416343197512E-5;
8,55695506868655E-5;
0,00029225100270001;
0,000689730456601896;
0,0011754130413237;
0,00157388862221024;
0,00174942918612409;
0,00169131736001433;
0,00150982600095688;
0,00134983221231059;
0,00129097283655245;
0,00130920954067709;
0,00132185063975834;
0,00127090374976899;
0,00117271461805938;
0,00109530372011448;
0,00108867145802327;
0,00113332924000397;
0,00115522388567745;
0,00109623076318324;
0,000978922548010778;
0,000905712369911861;
0,000985677510292554;
0,00124377308625106;
0,00158554295260604;
0,00184943176452835;
0,00191061443073838;
0,00175959506198945;
0,00149834137698526;
0,00126056783937437;
0,00111977159511388;
0,00105394594161448;
0,000987128158728698;
0,000866119322754444;
0,000706078748997906;
0,000569606236181883;
0,00050266685398824;
0,000487363104461413;
0,000455721349368856;
0,000354429575500344;
0,0002042104580774;
9,8934006746368E-5;
0,000138467020010554;
0,00034551194125784;
0,00063340355049347;
0,00085413537196572;
0,00089343273814342;
0,000742587254640546;
0,000494783461811893;
0,000272121584803088;
0,00014157968480262;
8,28694831165131E-5;
2,64722441128178E-5;
-7,63033623558267E-5;
-0,000211769186993594;
-0,000323008841277992;
-0,000368321637746761;
-0,000364219205008533;
-0,000372793412171694;
-0,000442732912033492;
-0,000555323032686243;
-0,000625342665729155;
-0,000562198561955475;
-0,000345503517622984;
-5,42358871097449E-5;
0,000177000699454532;
0,000244345129047342;
0,000139815239410523;
-5,2146985226434E-5;
-0,000220953309656975;
-0,000306058226591242;
-0,00032601172595577;
-0,000343916850240675;
-0,000403962743373917;
-0,000493856108883042;
-0,000562215310238442;
-0,000571455541712243;
-0,000536624037703514;
-0,000513919622293211;
-0,00054738003182098;
-0,000620158992796856;
-0,000655416007834453;
-0,000571529982204659;
-0,000350239351048911;
-6,28364347199176E-5;
0,00016934872772583;
0,000252779399814832;
0,000180302265087044;
2,79290434908878E-5;
-0,00010487315793129;
-0,000163699969025717;
-0,000165257806689756;
-0,000166248201831797;
-0,000206336737036024;
-0,000274461341882715;
-0,000324502629739935;
-0,000322751165061101;
-0,000282699286498758;
-0,000254692625923253;
-0,000278135903509168;
-0,000337890750230439;
-0,000365144682538306;
-0,000286869476452947;
-8,67512899159158E-5;
0,000171472634566634;
0,000379420043442524;
0,000453622883831832;
0,000387792604247256;
0,000249849418555892;
0,00012857621673438;
7,25119383533412E-5;
6,67932511955446E-5;
6,09497498318667E-5;
1,9722487949589E-5;
-4,69756129151699E-5;
-9,80591433505752E-5;
-0,000103515421779244;
-7,53094677259904E-5;
-5,81339616683328E-5;
-8,692576265482E-5;
-0,000148179437705334;
-0,000180784368804795;
-0,000119949369170664;
4,87827112692462E-5;
0,000268925603023967;
0,000444501319085063;
0,000501669260952133;
0,000434943318292507;
0,000304474121532843;
0,000188802972288596;
0,000130842803270778;
0,000117472209724599;
0,000104147781846004;
5,97871385756002E-5;
-6,82630849063235E-6;
-5,94402863889818E-5;
-7,15962543895999E-5;
-5,38344222892458E-5;
-4,54977914477912E-5;
-7,73086391333337E-5;
-0,000137355273467166;
-0,000171888868316523;
-0,000123979921862759;
1,90364779692044E-5;
0,00020753062063165;
0,000357263495134311;
0,000403486487653153;
0,000341428742807478;
0,000223832544385868;
0,000119498031530536;
6,59781335605587E-5;
5,17705149077288E-5;
3,79085524738454E-5;
-2,77341956336431E-6;
-6,2592887895197E-5;
-0,000109894568046158;
-0,000121602958866775;
-0,000106937270069054;
-0,000100217034959542;
-0,00012821553699719;
-0,000180549682636144;
-0,000210430580556612;
-0,000168350603261298;
-4,33440000593959E-5;
0,000121401691870585;
0,000252676708630337;
0,000294263504844758;
0,000242043297684346;
0,000141780342427909;
5,311437838795E-5;
8,55970862395099E-6;
-1,87152829414974E-6;
-1,19206296520658E-5;
-4,50877449572599E-5;
-9,47281204279041E-5;
-0,000133496045549558;
-0,000141483828615723;
-0,000126672648685683;
-0,000118681157056641;
-0,000140589932116497;
-0,000183444965022722;
-0,000206958086129661;
-0,000168546763174857;
-5,88213178351795E-5;
8,5053123022174E-5;
0,000200162723932444;
0,000238248355100238;
0,000195800767512607;
0,000112086112842192;
3,82198722168009E-5;
2,03586956002883E-6;
-5,03341166540431E-6;
-1,1859038006205E-5;
-3,8524893501794E-5;
-7,9342909652782E-5;
-0,000110961888508342;
-0,000116404896870069;
-0,00010249227324453;
-9,44703547052657E-5;
-0,000111986175213663;
-0,000147402964728994;
-0,000166448121471535;
-0,000132942710584075;
-3,89428394177224E-5;
8,39741754972493E-5;
0,000182431275251198;
0,000215536638682412;
0,000180348955663954;
0,000110133873566123;
4,8139133483982E-5;
1,78852940324574E-5;
1,21248424302727E-5;
6,48781777788893E-6;
-1,59532407593882E-5;
-5,03875401746459E-5;
-7,71398051288178E-5;
-8,19265790066038E-5;
-7,04927452471365E-5;
-6,40548055586342E-5;
-7,90972351688975E-5;
-0,000109192529327526;
-0,000125595788870456;
-9,80083657952509E-5;
-1,98083784890209E-5;
8,25638339304982E-5;
0,000164488660989962;
0,000191834640544687;
0,000162179841867714;
0,000103286951526767;
5,11931253861624E-5;
2,54688854444825E-5;
2,00770400840295E-5;
1,47682285867225E-5;
-4,49794808102626E-6;
-3,37148989021444E-5;
-5,65695213910669E-5;
-6,12403714586585E-5;
-5,24899021887867E-5;
-4,78554538939866E-5;
-6,0936911065556E-5;
-8,64133864746849E-5;
-0,000100584573806085;
-7,85143099937049E-5;
-1,47852353794802E-5;
6,8842759204865E-5;
0,000135724255568446;
0,000157878669742441;
0,000133352049820169;
8,48970497597121E-5;
4,19913815540446E-5;
2,06134627577352E-5;
1,58240383267397E-5;
1,11135212073427E-5;
-4,94097571156984E-6;
-2,9066304731732E-5;
-4,80021796101695E-5;
-5,21615893333246E-5;
-4,54181941752972E-5;
-4,19781497549682E-5;
-5,28320300007605E-5;
-7,3664295251094E-5;
-8,53425015113137E-5;
-6,77826389142811E-5;
-1,6656671753764E-5;
5,05058328212555E-5;
0,00010426287145347;
0,000122186304110742;
0,000102741337426007;
6,41566632236161E-5;
2,99913573826863E-5;
1,29840754436659E-5;
9,18438739359631E-6;
5,45066159760795E-6;
-7,28471428090084E-6;
-2,64108110835605E-5;
-4,14156628834356E-5;
-4,4722514145283E-5;
-3,94060449084465E-5;
-3,66791286949007E-5;
-4,51894853680442E-5;
-6,15258637288011E-5;
-7,06569129132937E-5;
-5,68519254764606E-5;
-1,67586191287188E-5;
3,58872983094346E-5;
7,8099616509831E-5;
9,24233886047114E-5;
7,76981588450098E-5;
4,81029504546142E-5;
2,19019493042922E-5;
8,93738382198888E-6;
6,14345282571221E-6;
3,38801164996248E-6;
-6,29330601995122E-6;
-2,08810847639325E-5;
-3,23156391008995E-5;
-3,48124600747699E-5;
-3,07327816884688E-5;
-2,86211146755736E-5;
-3,50380121626116E-5;
-4,73776480661969E-5;
-5,4258710817805E-5;
-4,38224677095955E-5;
-1,35825439043411E-5;
2,60996532806625E-5;
5,79753216111455E-5;
6,90068508363176E-5;
5,83661425181664E-5;
3,66389716080772E-5;
1,739392818812E-5;
7,90647865308038E-6;
5,89572851401659E-6;
3,8957028537488E-6;
-3,19581826909437E-6;
-1,3882926982166E-5;
-2,22747840026681E-5;
-2,41706722993956E-5;
-2,13003102313197E-5;
-1,98504341124122E-5;
-2,45386370571739E-5;
-3,34701468148133E-5;
-3,84834934821527E-5;
-3,11333100609143E-5;
-9,69505938617266E-6;
1,84437542614987E-5;
4,10871481756572E-5;
4,90855312192148E-5;
4,1903122283676E-5;
2,69663027472922E-5;
1,37173128260955E-5;
7,17748597221468E-6;
5,75549892813541E-6;
4,32513114178898E-6;
-5,82860350885887E-7;
-7,93200403602021E-6;
-1,3732147959711E-5;
-1,51694746025919E-5;
-1,34204231310708E-5;
-1,26085258786353E-5;
-1,58399285320921E-5;
-2,18420634937768E-5;
-2,52670963094852E-5;
-2,06503328371351E-5;
-6,93154666792625E-6;
1,10969486416948E-5;
2,56454172030848E-5;
3,09526680818494E-5;
2,67372576370303E-5;
1,76747659557448E-5;
9,61693446722471E-6;
5,62484885068424E-6;
4,70656003315567E-6;
3,76816072987855E-6;
7,57608207477823E-7;
-3,68806204233244E-6;
-7,22769953728188E-6;
-8,24982664797731E-6;
-7,4513866063678E-6;
-7,1693662846954E-6;
-9,11576142845882E-6;
-1,25569991450851E-5;
-1,45783545763571E-5;
-1,22907225230631E-5;
-5,20718051915611E-6;
4,12038505728923E-6;
1,17034259146677E-5;
1,47019085282796E-5;
1,30532919659805E-5;
9,06420608460085E-6;
5,49634534936308E-6;
3,72485591833993E-6;
3,27293964503037E-6;
2,79222087649943E-6;
1,44676436579386E-6;
-4,69796070799353E-7;
-2,0307563556029E-6;
-2,65505503497748E-6;
-2,62880765904047E-6;
-2,75983383848234E-6;
-3,56794400007674E-6;
-4,78101328106686E-6;
-5,56361915518956E-6;
-5,22584942505933E-6;
-3,76956893832429E-6;
-1,83553877951639E-6;
-1,72479086380482E-7;
8,67525135835916E-7;
1,40819149673971E-6;
1,7412793477383E-6;
2,00220163135849E-6;
2,13428125501134E-6;
2,0980240508979E-6;
2,02539076185576E-6;
2,11075955297246E-6;
2,3563777090342E-6;
2,49143177426056E-6;
2,2254963440349E-6;
1,61997215228781E-6;
1,1587644488317E-6;
1,32806429912549E-6;
2,0102542233398E-6;
2,28781534215929E-6;
9,98445892355285E-7;
-2,27061614834941E-6;
-6,55221580193194E-6;
-9,87191707003023E-6;
-1,04923727585251E-5;
-8,1335076892146E-6;
-4,19279068402726E-6;
-7,34804764140307E-7;
9,85446605262583E-7;
1,2943441293324E-6;
1,56085073667205E-6;
2,83928047399886E-6;
4,88830567066944E-6;
6,43856176099026E-6;
6,4738158986594E-6;
5,3450049527495E-6;
4,61034411305053E-6;
5,5916487227537E-6;
7,84725536110027E-6;
9,00526565547266E-6;
6,36842907330671E-6;
-8,15740751634123E-7;
-1,0249240573352E-5;
-1,77063720429668E-5;
-1,97241742444967E-5;
-1,58935192716255E-5;
-9,00409525013577E-6;
-2,9318278020616E-6;
8,27455316483692E-8;
6,66785285664495E-7;
1,20464773565136E-6;
3,45550807487752E-6;
6,97797981102478E-6;
9,68511777216672E-6;
9,96731836006092E-6;
8,4123030877943E-6;
7,45503301660367E-6;
9,09820104027078E-6;
1,26357355868507E-5;
1,45123016633508E-5;
1,07834672427547E-5;
4,21504023457636E-7;
-1,3195931185222E-5;
-2,4019495709051E-5;
-2,71901899680513E-5;
-2,21946430019248E-5;
-1,29460597693322E-5;
-4,78020003587794E-6;
-7,30784383874247E-7;
7,12679338654628E-8;
8,25494177819339E-7;
3,85587863960212E-6;
8,56026210182092E-6;
1,21974088496653E-5;
1,26837622392731E-5;
1,07962345177608E-5;
9,66844267351859E-6;
1,18445343646846E-5;
1,64077410567546E-5;
1,88631882497676E-5;
1,42782116532897E-5;
1,40782660407665E-6;
-1,5516534858434E-5;
-2,90062450890063E-5;
-3,31024203522849E-5;
-2,72097925020002E-5;
-1,61239629900384E-5;
-6,3252046463688E-6;
-1,4679125575301E-6;
-4,93834770167782E-7;
4,32347254375068E-7;
4,07401221314802E-6;
9,70341737072903E-6;
1,40711823986529E-5;
1,47266435644755E-5;
1,25933351313645E-5;
1,13443431119768E-5;
1,39407067572614E-5;
1,93029534637455E-5;
2,22144413841663E-5;
1,6985377115396E-5;
2,2052768194254E-6;
-1,72420408440864E-5;
-3,27712379996144E-5;
-3,7587414721227E-5;
-3,10333808227468E-5;
-1,85725888001756E-5;
-7,54931488045158E-6;
-2,08521607575649E-6;
-9,79725339127362E-7;
7,89140016057697E-8;
4,18212928357641E-6;
1,05078658171937E-5;
1,54283028318557E-5;
1,62204418743703E-5;
1,39167189879893E-5;
1,25886456611223E-5;
1,5503842045312E-5;
2,14626426564474E-5;
2,4719400338525E-5;
1,90316711293398E-5;
2,86926701216581E-6;
-1,84095515640481E-5;
-3,54253689645521E-5;
-4,07803192081594E-5;
-3,37729944288584E-5;
-2,03455057677566E-5;
-8,45882643702917E-6;
-2,56666318099185E-6;
-1,36736843858491E-6;
-2,12998958897025E-7;
4,21796472512989E-6;
1,10366887633489E-5;
1,63509688210249E-5;
1,72487797113625E-5;
1,48383434506339E-5;
1,34657701304004E-5;
1,66084607181778E-5;
2,29838727872077E-5;
2,64863821543315E-5;
2,05001242429931E-5;
3,41537568740438E-6;
-1,90909326013977E-5;
-3,71101329079706E-5;
-4,28452751183003E-5;
-3,55663056213439E-5;
-2,15287733156749E-5;
-9,09443208227512E-6;
-2,93101301924907E-6;
-1,67171943899229E-6;
-4,5467593572372E-7;
4,18638854916915E-6;
1,13198607420539E-5;
1,6888459857741E-5;
1,78636304510183E-5;
1,5400588011584E-5;
1,40124171421632E-5;
1,73022109185975E-5;
2,39369574935427E-5;
2,75977721649306E-5;
2,14508693269157E-5;
3,84185726591082E-6;
-1,9368597623249E-5;
-3,797193750866E-5;
-4,39486618177297E-5;
-3,6553638515345E-5;
-2,2213109562986E-5;
-9,50308313846218E-6;
-3,20338675616079E-6;
-1,91306577070343E-6;
-6,61723545570063E-7;
4,08812263750854E-6;
1,13827595486727E-5;
1,70853511744425E-5;
1,81132145241759E-5;
1,56438002092482E-5;
1,42646612604714E-5;
1,76323454175479E-5;
2,4391196732872E-5;
2,81349884309151E-5;
2,19454109220504E-5;
4,15332926389887E-6;
-1,93124021917961E-5;
-3,81396874389283E-5;
-4,42375670020973E-5;
-3,68575275785721E-5;
-2,2474634654967E-5;
-9,71993796634388E-6;
-3,39838388352151E-6;
-2,10124320118436E-6;
-8,39395388273988E-7;
3,93324490138194E-6;
1,12584836445656E-5;
1,69926710264616E-5;
1,80520416721656E-5;
1,56152674900018E-5;
1,42658578525659E-5;
1,76525403287584E-5;
2,44206145437839E-5;
2,81831926040239E-5;
2,20504026164844E-5;
4,36373782935238E-6;
-1,89774112529917E-5;
-3,77232811978659E-5;
-4,38390622361029E-5;
-3,65828310372072E-5;
-2,23758368360465E-5;
-9,77012413012788E-6;
-3,52255128409497E-6;
-2,23876299070188E-6;
-9,86333822397724E-7;
3,73687561147085E-6;
1,09829842105101E-5;
1,66625220090779E-5;
1,77350937760754E-5;
1,53630212006487E-5;
1,40601019351484E-5;
1,74160365107895E-5;
2,40967982693109E-5;
2,78238806954697E-5;
2,18300750401226E-5;
4,48868521598528E-6;
-1,84116066335138E-5;
-3,68213365662538E-5;
-4,28679471103183E-5;
-3,5824477229888E-5;
-2,19733152998738E-5;
-9,67644741817091E-6;
-3,58201888999108E-6;
-2,32833982204155E-6;
-1,1019753884636E-6;
3,51190611652441E-6;
1,0587952104447E-5;
1,61411570911865E-5;
1,72111118489074E-5;
1,49293326376884E-5;
1,36859555775445E-5;
1,69696213838614E-5;
2,34831488055193E-5;
2,71294031562778E-5;
2,13410148824367E-5;
4,54047387327412E-6;
-1,76605856210079E-5;
-3,55256111636715E-5;
-4,14308582459788E-5;
-3,46712463107872E-5;
-2,13212074694224E-5;
-9,46247489454614E-6;
-3,5852779079846E-6;
-2,37537914004232E-6;
-1,18874038283073E-6;
3,2671118747271E-6;
1,00992403496183E-5;
1,54676829150478E-5;
1,65215406092311E-5;
1,43499109751514E-5;
1,31758891131237E-5;
1,63533009381619E-5;
2,26347987962734E-5;
2,6163110074035E-5;
2,06324927454051E-5;
4,5285528719914E-6;
-1,67670331762704E-5;
-3,39203732977148E-5;
-3,96254914186745E-5;
-3,32047801778368E-5;
-2,046997418416E-5;
-9,15112553742046E-6;
-3,54160411999319E-6;
-2,38628212705136E-6;
-1,2502371039188E-6;
3,00906015384346E-6;
9,53886997549985E-6;
1,46761607994854E-5;
1,57026968044884E-5;
1,36560734472345E-5;
1,25584578600846E-5;
1,56025272051063E-5;
2,16008918178489E-5;
2,49816508167515E-5;
1,97486990413394E-5;
4,4616033739088E-6;
-1,57688210941266E-5;
-3,20806614077648E-5;
-3,75389225588612E-5;
-3,14978726058313E-5;
-1,94646037812852E-5;
-8,76280648838757E-6;
-3,45920770157731E-6;
-2,36664168665007E-6;
-1,28952045841584E-6;
2,74381312052479E-6;
8,92673635908031E-6;
1,37972736240099E-5;
1,47873536027043E-5;
1,28762370946346E-5;
1,18596985839428E-5;
1,47495308438708E-5;
2,04258852286838E-5;
2,36362223656343E-5;
1,87298478472369E-5;
4,34838437033526E-6;
-1,46984702551562E-5;
-3,00719971653184E-5;
-3,52474460166055E-5;
-2,96142911832504E-5;
-1,83443581548483E-5;
-8,31510032821562E-6;
-3,34491742101068E-6;
-2,32099031899962E-6;
-1,30888438839945E-6;
2,47712079423266E-6;
8,28079903350414E-6;
1,28585258662796E-5;
1,38048859825036E-5;
1,20359612729636E-5;
1,11030988104339E-5;
1,3823273583968E-5;
1,9149530939925E-5;
2,21725347488524E-5;
1,76120193581783E-5;
4,19734335681444E-6;
-1,35838359122596E-5;
-2,79513044219868E-5;
-3,2817569044615E-5;
-2,76096944219979E-5;
-1,71435309027555E-5;
-7,82338413910537E-6;
-3,20473420026682E-6;
-2,25335141832029E-6;
-1,31041620915542E-6;
