-0,00451874909758509;
-0,00303426172163518;
-0,0017250110245577;
0,000395203387447315;
0,00117627456334699;
0,00279602430033854;
0,00368151217255428;
0,00457590700858232;
0,00560574974794031;
0,00625148173033307;
0,0164844543523279;
0,0303392619288302;
0,0245464894317089;
0,0179380517435906;
0,0207926564930728;
0,015807729365489;
0,0144677037306713;
0,0134593041539503;
0,00968831565768854;
0,00973722356094918;
0,00732961421913886;
0,00628570297718691;
0,00524176159058554;
0,00326223225083014;
0,00265992461662338;
0,00137512140765868;
0,000913924684164556;
0,000290356183498424;
-0,000870274253848546;
-0,00209709637422483;
-0,00380117100032709;
-0,00500882798098648;
-0,00567470191859376;
-0,00573407748248706;
-0,00533897378512288;
-0,00505136119643124;
-0,00490118796696493;
-0,00494924722932628;
-0,00496521250947996;
-0,00478372737947629;
-0,0138310249261097;
-0,0268427167444465;
-0,0204614130569028;
-0,0134937135098805;
-0,0161198010230702;
-0,0106656255652229;
-0,00880948886526974;
-0,0074082242887978;
-0,00369286361530071;
-0,00434754595801686;
-0,00279442777109285;
-0,00246971763862244;
-0,00163908600459298;
0,000640482264550784;
0,00177509443501103;
0,00348470947051506;
0,00406962677917129;
0,00461492193238791;
0,00571461824458732;
0,00704264203465837;
0,0089518918869309;
0,0102640277425063;
0,0107899419782817;
0,0105073953827085;
0,00977047030885266;
0,00931491783911987;
0,00913964834255483;
0,00906735284905307;
0,00859785428952522;
0,00749687926674878;
0,00608023046503913;
0,00484217972013391;
0,00424063925049533;
0,00422865808372135;
0,00437801543200973;
0,00425306091240698;
0,00374180148846795;
0,00319208511233177;
0,00306561422586634;
0,00354984049819498;
0,00435766951912983;
0,00490703064256395;
0,00476361506553806;
0,00394048354886831;
0,00286676883049844;
0,00202510103053458;
0,00157080365971653;
0,00124425882578677;
0,000624523665523387;
-0,000479487937075323;
-0,00183928697705509;
-0,00296832295975036;
-0,00349817816766064;
-0,00346026023008478;
-0,00323733297509706;
-0,0032327336008502;
-0,0035319034132857;
-0,00383806489556002;
-0,00373577294474345;
-0,00306255377510872;
-0,00208204499471598;
-0,0013127428447836;
-0,00114912608816776;
-0,00157976045517136;
-0,0022251210427518;
-0,00265743186173804;
-0,00273769517312751;
-0,00269828999961177;
-0,00291320367511699;
-0,00355447251213216;
-0,00442254443055883;
-0,00508922785894716;
-0,00523170723075988;
-0,00487974657377535;
-0,00437317541487615;
-0,00406839877224033;
-0,00403980044842849;
-0,00402437489173572;
-0,00365526934944545;
-0,0027907074000409;
-0,00166595289622773;
-0,00074108319184097;
-0,000365854678584006;
-0,000530728838501569;
-0,000900696536682844;
-0,00109760650141544;
-0,000997502725481849;
-0,000803597096707391;
-0,000844234075483666;
-0,00127098251052819;
-0,00190965528824886;
-0,00238581275002086;
-0,00241753629975568;
-0,00203155018567208;
-0,00152522756036285;
-0,00120914987690737;
-0,00114612258921101;
-0,00110383365570623;
-0,000760292439720725;
8,11564384333504E-6;
0,000994356933701166;
0,00179490706001064;
0,00210347491305345;
0,00192871297596673;
0,00156435309457355;
0,00134228617676526;
0,00137278240110135;
0,00148063148514976;
0,0013810068208076;
0,000942178330597055;
0,000315025404304375;
-0,000176026841725793;
-0,000287022995051674;
-4,14652459346666E-5;
0,000303353749503787;
0,000479882320116416;
0,000436045499888421;
0,000375189092040399;
0,000577140654712235;
0,00114853444655185;
0,00190892884244874;
0,00250789686728693;
0,002679838977507;
0,00243238146202721;
0,00202026887596048;
0,00173165959771147;
0,0016635435321177;
0,00166643128583049;
0,00149576555000945;
0,00103802680903681;
0,000422082414321564;
-7,45325050952149E-5;
-0,000243510189251408;
-0,000105666814025422;
0,000118614358420285;
0,000201297245919347;
9,96617933715612E-5;
-1,0516614246377E-5;
0,000110868122514395;
0,000554315861267421;
0,00116387582881547;
0,00163825502793949;
0,00174937471243992;
0,0015035118547912;
0,00111871937051438;
0,000842020683176099;
0,000757539267006677;
0,000739142049327731;
0,000579190146845811;
0,000180731332199655;
-0,000347963863605581;
-0,00077291853930088;
-0,000918956341348302;
-0,000804608294542637;
-0,000616425268773408;
-0,000546305861863954;
-0,000628745787530883;
-0,000713799018528193;
-0,000598273649167021;
-0,000206659683532853;
0,000327687480161515;
0,000748812762662295;
0,000863206840871849;
0,000675801974951075;
0,000370673941910107;
0,000156746991107791;
0,000106080867458546;
0,000113856046408811;
6,29162157593033E-6;
-0,000298331512735148;
-0,000710576268775839;
-0,00103632688793493;
-0,00113067856301408;
-0,00100997486410381;
-0,000829731141682943;
-0,000748793748389072;
-0,000794238925365852;
-0,000839865568903666;
-0,000716267302774981;
-0,000361512922306416;
0,00944538677375599;
0,0231196309649145;
0,0169833741112249;
0,00991107295857055;
0,0124143702504097;
0,00711190968094697;
0,00569609958143554;
0,00466894594100521;
0,000858280209448512;
0,000820626578254855;
-0,0017203581392376;
-0,00277058636989908;
-0,00364747638257644;
-0,00528289126194569;
-0,0054597542750706;
-0,00635467601399119;
-0,00646983569015724;
-0,00673984562797065;
-0,00743979444608314;
-0,00806613794837089;
-0,0184305494492643;
-0,0323033240363943;
-0,0262167407473114;
-0,0189713271520276;
-0,0209954117630094;
-0,0152054006270866;
-0,0132357425842226;
-0,0117909697058183;
-0,00769315113843076;
-0,00743787209344276;
-0,00472511103784681;
-0,00340539519875222;
-0,00213599881487697;
5,7126424681038E-5;
0,000935851687430325;
0,00259199390847663;
0,00344369705556793;
0,00431120789089264;
0,00541882268845956;
0,00627937603905302;
0,00746173788792867;
0,0082444870515705;
0,00877953483064691;
0,00902945841951976;
0,0090022008615557;
0,00905222235209129;
0,00907198053093318;
0,0091184292172467;
0,00905042837689367;
0,00878810729634578;
0,00843919470700899;
0,00806776986007861;
0,00780326353198159;
0,0076174927949565;
0,00741211335390152;
0,00711138363945893;
0,00669886256198621;
0,00628839041406723;
0,00599395382721171;
0,00585616107408261;
0,00579460897242196;
0,00564988404629593;
0,00531017540423082;
0,00477367742283048;
0,00414988046814023;
0,00356901458622991;
0,00308670891998224;
0,00266180693090565;
0,00220552802161055;
0,00167105868863128;
0,001096113444179;
0,000571046456846127;
0,000162880179576715;
-0,000141474669348717;
-0,000419604956290895;
-0,000743025776786611;
-0,00110989466685177;
-0,0014397512489024;
-0,00163775075615904;
-0,00167583659424048;
-0,00162590869424923;
-0,00161597066357347;
-0,00174280961033223;
-0,00200861107712073;
-0,00232836883364217;
-0,00259923218089143;
-0,0027748347554575;
-0,00288769386930946;
-0,00300727205920851;
-0,00317319305852334;
-0,00336052064170858;
-0,00350372263502707;
-0,00355561783216585;
-0,00352892933592232;
-0,00348436133473189;
-0,00347558511491355;
-0,00349853301254046;
-0,00348936876896728;
-0,0033750746610814;
-0,00313661558995027;
-0,00283336948934761;
-0,00256798709130734;
-0,00241808396301432;
-0,00238687564443006;
-0,00240897002621702;
-0,00240378150884998;
-0,00233304491936354;
-0,00221885096005327;
-0,00211277258853843;
-0,00204599310675191;
-0,00200303195814207;
-0,0019389152657085;
-0,00182191673254196;
-0,0016631121542777;
-0,00150663732677479;
-0,00138906660579994;
-0,00130324849411423;
-0,00119875155542494;
-0,00102069828259245;
-0,000756586279291713;
-0,000453270480719523;
-0,000189558735655341;
-2,47550898296092E-5;
3,81393927066365E-5;
4,81814827698442E-5;
6,71003503164294E-5;
0,000126725611245921;
0,000214874994869507;
0,000296490712087391;
0,000348665986266693;
0,000379436706754073;
0,000416556922342543;
0,000478941134905675;
0,000557578228952153;
0,000623322339694333;
0,000654872639224643;
0,000662246813564021;
0,000684265192898765;
0,000760114175668112;
0,000896887627434382;
0,00105908677782921;
0,00118915912916491;
0,00124410578902149;
0,00122122835402809;
0,00115523939371479;
0,00109118981810575;
0,00105502530231486;
0,00104296731829928;
0,00103419663961127;
0,00101294663235092;
0,000980756784870153;
0,000950386449674458;
0,000929544664131963;
0,000910848917202804;
0,000877876623981103;
0,000822161935246099;
0,000755706297076319;
0,00070676397647572;
0,000700519366536861;
0,000739123208647133;
0,000796775750108768;
0,000834226481761113;
0,000822423367319398;
0,000758633883309916;
0,000664729725361834;
0,000570812813427886;
0,000497190947118464;
0,000446841982367602;
0,000410841427965564;
0,00037930922785936;
0,000348009597239949;
0,000316651196906014;
0,000283138981018122;
0,000241254321491025;
0,00018516852859482;
0,000117002857185623;
4,99797802585364E-5;
2,84393577035832E-6;
-1,15542475240269E-5;
4,52715693458517E-6;
3,35537829512436E-5;
5,19533931776537E-5;
4,25762840859177E-5;
2,52219630819867E-6;
-5,75712783310378E-5;
-0,000120711511560835;
-0,000171753128249314;
-0,000202239830663852;
-0,000211126942170544;
-0,000203325450095761;
-0,000187935050947695;
-0,000176251607369097;
-0,000178624515444506;
-0,0002002759064176;
-0,000238135270511334;
-0,000281286529949481;
-0,000315699438597657;
-0,000330874937628968;
-0,000324481287239001;
-0,000302436141017414;
-0,000275092913408467;
-0,000252537047135423;
-0,000241672303449453;
-0,000245454044462946;
-0,000262755172359707;
-0,000287753270121508;
-0,000309790396110821;
-0,000315886000327848;
-0,000296595326188947;
-0,000252521331257198;
-0,000196623880341777;
-0,000149169512922329;
-0,000127192361226176;
-0,000134928687204528;
-0,000161821433428283;
-0,000189661920481957;
-0,000203853931258673;
-0,000200860280062862;
-0,000187099353829739;
-0,000171380683422356;
-0,000157809865588057;
-0,000144945500244513;
-0,000130919317532817;
-0,00011859451958601;
-0,000114730457885113;
-0,000122854869947944;
-0,000136140172180734;
-0,000137926478148057;
-0,000111792192179105;
-5,46433103595734E-5;
1,75940402560821E-5;
7,75063987216529E-5;
0,000102770975164937;
9,00939398279451E-5;
5,62023029065749E-5;
2,5203359180712E-5;
1,20128147619073E-5;
1,43409020704002E-5;
1,85817183815556E-5;
1,367029390045E-5;
8,26096516387867E-7;
-8,84418074923246E-6;
-6,1176480716611E-6;
6,29765081784791E-6;
1,51686139088335E-5;
9,21368024819547E-6;
-8,02831682318855E-6;
-1,70435906591049E-5;
4,20825463773579E-6;
6,18870088623366E-5;
0,000137825266544352;
0,000199026818692333;
0,000219060076044984;
0,000195459071449784;
0,000149865605817029;
0,000110970450900848;
9,37360179403418E-5;
9,10194191256749E-5;
8,33804150354942E-5;
5,80069735705199E-5;
2,05390727541243E-5;
-1,00025111328459E-5;
-1,83841863110751E-5;
-7,15716090057811E-6;
5,20146153437125E-6;
1,06070930251117E-6;
-1,88700063236704E-5;
-3,29945201175548E-5;
-1,49086549306076E-5;
4,40059958625784E-5;
0,000123948236852746;
0,000187700194935221;
0,000205742327133295;
0,00017630502997871;
0,000124801893165331;
8,33209986132089E-5;
6,66257191751977E-5;
6,35910734326079E-5;
5,01476555813503E-5;
1,21775985035575E-5;
-4,10871429116053E-5;
-8,42974798432123E-5;
-9,74244855866468E-5;
-8,2864902091361E-5;
-6,32341060312375E-5;
-6,12426607925767E-5;
-7,85811006205469E-5;
-9,2241338095547E-5;
-7,25623014194994E-5;
-9,00268075018496E-6;
7,75441978415132E-5;
0,000146850197685885;
0,000167219394189405;
0,000137471859172103;
8,57958500662077E-5;
4,66494934419519E-5;
3,4409636312245E-5;
3,47718871457316E-5;
2,01301049571848E-5;
-2,45339684026957E-5;
-8,71243686942256E-5;
-0,000137364998751985;
-0,000151500628698098;
-0,000131759952588767;
-0,000103893209676948;
-9,45360423852243E-5;
-0,000107366676903472;
-0,000118529028578928;
-9,60615202138023E-5;
-2,7959323216894E-5;
6,4277975317121E-5;
0,000138486152476671;
0,000161603887912551;
0,000132959145856897;
8,2655447481575E-5;
4,66413590334285E-5;
3,8769665781756E-5;
4,22877354325976E-5;
2,7031116144323E-5;
-2,2554142488419E-5;
-9,21472603010492E-5;
-0,000147778672244414;
-0,00016290576614411;
-0,000139571130703616;
-0,000105766009078336;
-9,1019835999528E-5;
-0,000100617224089633;
-0,000110331786662435;
-8,67296007341465E-5;
-1,67431280505623E-5;
7,79416228421866E-5;
0,000154155536856018;
0,000178174211344895;
0,000149760885275071;
0,000100189647219045;
6,61431739890978E-5;
6,08434635197379E-5;
6,57374170914531E-5;
4,89582950806218E-5;
-5,27082528020473E-6;
-8,09724403998133E-5;
-0,000141571036172888;
-0,000158565037520506;
-0,00013380108960306;
-9,67335539996286E-5;
-7,88833990944873E-5;
-8,68023024661375E-5;
-9,6302302904654E-5;
-7,31956605785997E-5;
-3,70738876007585E-6;
9,0639761613569E-5;
0,000166461513714885;
0,00018996374063334;
0,000161273711710771;
0,000112191342897366;
7,94848910146856E-5;
7,56602999040321E-5;
8,09272806700112E-5;
6,24531899039565E-5;
4,49846718274084E-6;
-7,5806837233952E-5;
-0,000140234191053999;
-0,000159049940500619;
-0,000133904449373893;
-9,50476955421471E-5;
-7,52125591007167E-5;
-8,19196337396481E-5;
-9,136520107161E-5;
-6,92244390082122E-5;
-1,32688135210694E-6;
9,12542456975202E-5;
0,000165580081829646;
0,000188281367985153;
0,000159781670256041;
0,000111856579875794;
8,0812855486508E-5;
7,83764357550307E-5;
8,40065523911982E-5;
6,45327695903457E-5;
4,46836772293125E-6;
-7,83445785086114E-5;
-0,000144847990732152;
-0,000164704385966645;
-0,000139372255290188;
-9,93284020749799E-5;
-7,78485344670109E-5;
-8,31593310828983E-5;
-9,21259415906895E-5;
-7,08055023531944E-5;
-4,89973081438012E-6;
8,52002490056005E-5;
0,000157547440496323;
0,000179605717269648;
0,000152034563140838;
0,000106125631907054;
7,72732938056375E-5;
7,63815374855136E-5;
8,25779012374866E-5;
6,28856664895083E-5;
2,24874767447204E-6;
-8,11566998826759E-5;
-0,000148143475137507;
-0,000168304215239097;
-0,000142911327187784;
-0,000102188137092045;
-7,93840140342883E-5;
-8,32000956023292E-5;
-9,13976670833955E-5;
-7,08436868683286E-5;
-7,33701438109579E-6;
7,95992219866727E-5;
0,00014945436078464;
0,000170856819677736;
0,00014464985034527;
0,000101265042639611;
7,48214505676195E-5;
7,53790226645495E-5;
8,20901460404483E-5;
6,26153417224608E-5;
2,47330350191471E-6;
-8,01455097070761E-5;
-0,000146511845766373;
-0,000166595648388066;
-0,000141490104795806;
-0,000100765860969811;
-7,71688529929871E-5;
-7,96727962524913E-5;
-8,71114194257554E-5;
-6,75072682666471E-5;
-6,94277798929107E-6;
7,60704786214864E-5;
0,000142810234246509;
0,000163331039344623;
0,0001386146501265;
9,79310148421804E-5;
7,38389946091017E-5;
7,55484976499132E-5;
8,25351845844156E-5;
6,34593614929857E-5;
4,52745953316409E-6;
-7,63231575609708E-5;
-0,000141305834465445;
-0,000161136870596291;
-0,000136738866827196;
-9,67052228234802E-5;
-7,28862859445111E-5;
-7,43552463750805E-5;
-8,11503081384501E-5;
-6,27225692982357E-5;
-5,59042405206167E-6;
7,28512902586072E-5;
0,000135937409457632;
0,000155347128782308;
0,000132161042007822;
9,42518101834378E-5;
7,24019349524055E-5;
7,49781216946808E-5;
8,20240565273579E-5;
6,3488698423016E-5;
6,35081643679966E-6;
-7,19256037921557E-5;
-0,000134888959086661;
-0,000154300716703188;
-0,000130923352868449;
-9,21160688270014E-5;
-6,85186523026417E-5;
-6,91576258712789E-5;
-7,536906449219E-5;
-5,82409636785594E-5;
-4,84959551589703E-6;
6,85982356540165E-5;
0,000127689367075181;
0,000145870286144199;
0,000124285840644577;
8,92342902282715E-5;
6,95661807277925E-5;
7,28224589376948E-5;
7,98111361328605E-5;
6,19928637298938E-5;
7,17841566711261E-6;
-6,7819189034209E-5;
-0,000128192901357491;
-0,000146984933542571;
-0,000124809334810584;
-8,75943145266386E-5;
-6,45231267444058E-5;
-6,44539983826186E-5;
-7,00803748467712E-5;
-5,42781670054072E-5;
-4,77593648781125E-6;
6,34497142286393E-5;
0,000118368118546725;
0,000135287112679568;
0,00011538622570951;
8,32639685134075E-5;
6,57365466285391E-5;
6,95455025988128E-5;
7,64163435171353E-5;
5,94863760671787E-5;
7,43657127014626E-6;
-6,3710043761818E-5;
-0,000121026314165407;
-0,000139014157304059;
-0,000118151490146876;
-8,27916994717859E-5;
-6,04766157907802E-5;
-5,97965898523712E-5;
-6,4832479148328E-5;
-5,03487270852256E-5;
-4,7959772535288E-6;
5,8096746133954E-5;
0,000108756174953183;
0,000124403673361192;
0,000106228630180877;
7,70497623330351E-5;
6,15927259784877E-5;
6,58332464550123E-5;
7,25293068632004E-5;
5,66089491571106E-5;
7,64310961572466E-6;
-5,92398251003875E-5;
-0,000113162340796192;
-0,000130214955608836;
-0,000110751986719502;
-7,74544941453818E-5;
-5,6091763005405E-5;
-5,49065519197438E-5;
-5,93720403375661E-5;
-4,61981424656481E-5;
-4,60571388846492E-6;
5,29202011397489E-5;
9,92910025607406E-5;
0,000113657928159478;
9,7199703298329E-5;
7,09142511916458E-5;
5,74199143261767E-5;
6,19657167466914E-5;
6,84234532748584E-5;
5,35816978613018E-5;
7,9053365732552E-6;
-5,44462952921875E-5;
-0,000104757770249494;
-0,000120793354561777;
-0,000102796352584199;
-7,17182597558583E-5;
-5,14716440044996E-5;
-4,98898151595066E-5;
-5,38221618841946E-5;
-4,19436621367913E-5;
-4,27474277900117E-6;
4,79223714500892E-5;
9,00306868135967E-5;
0,000103117319572534;
8,83336133381978E-5;
6,48488858554671E-5;
5,31905815942526E-5;
5,79241631776886E-5;
6,40871580152205E-5;
5,03603117042052E-5;
8,09310974320868E-6;
-4,95722719372917E-5;
-9,61453975823407E-5;
-0,000111111628977457;
-9,46157407197836E-5;
-6,58569776333141E-5;
-4,68476259783497E-5;
-4,49655895392787E-5;
-4,84030137655586E-5;
-3,77880428698912E-5;
-3,95390755244283E-6;
4,30244013495881E-5;
8,09548135496638E-5;
9,27811048449527E-5;
7,96138698629582E-5;
5,88138540040765E-5;
4,88615487292383E-5;
5,36847119727699E-5;
5,95131436899481E-5;
4,69189787823823E-5;
8,11588474144699E-6;
-4,47965339108875E-5;
-8,75733663944914E-5;
-0,00010143606555831;
-8,64430882542687E-5;
-6,00479994983557E-5;
-4,23538314334289E-5;
-4,02511190586984E-5;
-4,32272964848574E-5;
-3,38255559300981E-5;
-3,69145540871403E-6;
3,82401389481006E-5;
7,21279350681391E-5;
8,2732561585093E-5;
7,11135034781158E-5;
5,28659913874766E-5;
4,4489912063207E-5;
4,93228231828563E-5;
5,47917283507444E-5;
4,33322469393532E-5;
7,99284576655044E-6;
-4,01754788118679E-5;
-7,91580904268854E-5;
-9,19002106075139E-5;
-7,83857200657118E-5;
-5,43534345018684E-5;
-3,80172464923156E-5;
-3,5760510914959E-5;
-3,83074307233279E-5;
-3,00566981174888E-5;
-3,45420669457233E-6;
3,36492394128739E-5;
6,36670944340356E-5;
7,31006802887838E-5;
6,29506458891806E-5;
4,71084144377524E-5;
4,01774454719588E-5;
4,49533089425592E-5;
5,00470015711258E-5;
3,97074366067126E-5;
7,78141030847168E-6;
-3,5718429591921E-5;
-7,09627123598021E-5;
-8,25853691546135E-5;
-7,05068631243611E-5;
-4,88021102963066E-5;
-3,3840027390742E-5;
-3,14874438392643E-5;
-3,36383831299457E-5;
-2,64704073534042E-5;
-3,20826488534082E-6;
2,93185944015147E-5;
5,56653863964696E-5;
6,39853623440859E-5;
5,52149280475204E-5;
4,16181029100748E-5;
3,5999797547054E-5;
4,06617247811773E-5;
4,53706721937888E-5;
3,6120714259163E-5;
7,51509355582158E-6;
-3,14481504842815E-5;
-6,30556473383724E-5;
-7,35764407222954E-5;
-6,28780633424447E-5;
-4,34383000127549E-5;
-2,98447512882451E-5;
-2,74472853582269E-5;
-2,92367232343331E-5;
-2,30796697099301E-5;
-2,95060002958805E-6;
2,52750306250187E-5;
4,81686672293389E-5;
5,54374310573878E-5;
4,79500497023749E-5;
3,64307362365418E-5;
3,19937839671637E-5;
3,64944068950125E-5;
4,08148509137508E-5;
3,26121676998201E-5;
7,20020134911298E-6;
-2,74029395107554E-5;
-5,55113240961262E-5;
-6,49607537815323E-5;
-5,5575577857026E-5;
-3,83155855069942E-5;
-2,60661138254265E-5;
-2,36671167758967E-5;
-2,51291772795948E-5;
-1,99083475660888E-5;
-2,69371930077765E-6;
2,15229766671757E-5;
4,1195184005715E-5;
4,74794451827069E-5;
4,1175065999243E-5;
3,15621277094752E-5;
2,81790844956008E-5;
3,24806946750175E-5;
3,64147434565419E-5;
2,92084986536799E-5;
6,83790264194752E-6;
-2,36155715340473E-5;
-4,83899897172766E-5;
-5,68081746626851E-5;
-4,8660266434663E-5;
-3,34763768971381E-5;
-2,25303942368281E-5;
-2,0165566382025E-5;
-2,13329553177674E-5;
-1,69717402259191E-5;
-2,44599290270945E-6;
1,80645959996828E-5;
3,4755897470945E-5;
4,01255799084673E-5;
3,49031893021436E-5;
2,70257189365517E-5;
2,45746418990174E-5;
2,86485376428907E-5;
3,2203522663234E-5;
2,59367970378986E-5;
6,43634528637393E-6;
-2,01031086914504E-5;
-4,17292212421444E-5;
-4,91637137126402E-5;
-4,21706905384211E-5;
-2,89453023589128E-5;
-1,92493206470048E-5;
-1,69474772568168E-5;
-1,7851305877221E-5;
-1,42726864901232E-5;
-2,20780245374595E-6;
0,00934833792753395;
0,0226585884540045;
0,0164061225493408;
0,0094622406111597;
0,0121922258672029;
0,00704736659229255;
0,00565984167152157;
0,00461092194619982;
0,000863323392338668;
0,00103840053469438;
-0,00120731037295101;
-0,00202750180189143;
-0,00284919030346867;
-0,00458981029406703;
-0,00491205983975128;
-0,00587212636856105;
-0,00595522701835316;
-0,00619716796408095;
-0,00700538432865688;
-0,00792268067947837;
-0,018670280213917;
-0,0328491146934778;
-0,0268639775350124;
-0,019517718149593;
-0,0213580624728285;
-0,0154383977218424;
-0,0134436224739552;
-0,0120157184912194;
-0,00786866517095744;
-0,00744550480444737;
-0,00449893331948797;
-0,00299639441036498;
-0,00168143604005628;
0,000432366130965301;
0,0012026474956215;
0,00281587424501022;
0,00370163782563677;
0,00459784826421685;
0,00562292840023063;
0,00625370419831855;
0,00713263586397671;
0,00767450934078067;
0,00813347416875323;
0,00847050465732552;
0,00859843494512701;
0,0087621486588905;
0,00881257092533788;
0,0088543116241837;
0,00883032916318616;
0,00870225276548114;
0,00853791955510725;
0,00831203211088841;
0,00808853946537256;
0,00784976011919348;
0,00757127512061997;
0,0072490682433853;
0,00687338341272374;
0,0064927215816528;
0,0061389129801917;
0,00582576223240046;
0,00553130754096682;
0,00520264402671062;
0,00480760957005693;
0,00434344406976053;
0,00384626239949818;
0,00336127269661276;
0,00291066790720157;
0,0024878195238308;
0,00206677137402344;
0,00163238852808636;
0,00119383148045834;
0,000776452415271103;
0,000400176909897054;
6,07298686029113E-5;
-0,000264870079513649;
-0,000596614173177958;
-0,000930036364415006;
-0,00123482012103759;
-0,00147721082246824;
-0,00164783620565809;
-0,00177365683246809;
-0,00190254950649341;
-0,0020717001714387;
-0,00228368051728073;
-0,00250759225043753;
-0,0027038059192627;
-0,00285211319482226;
-0,00296197808313553;
-0,00305874693423636;
-0,00315903944375802;
-0,00325656415062542;
-0,00332943691049452;
-0,00336148815898684;
-0,00335815190876752;
-0,00334247842913463;
-0,00333426616295829;
-0,00333026073338747;
-0,00330332318175106;
-0,00322300360770286;
-0,00308187806323248;
-0,0029063332781691;
-0,00274213746564134;
-0,00262495580313308;
-0,00255791769992563;
-0,00251283428280242;
-0,00245318017211134;
-0,00236037823713569;
-0,00224340814352271;
-0,00212603375557036;
-0,00202404028397508;
-0,00193203781868864;
-0,00183019916572431;
-0,00170389608894916;
-0,00155829577082954;
-0,00141461670081393;
-0,00129083335813492;
-0,0011834834613163;
-0,00106705540676494;
-0,000913123929957548;
-0,000714710949862534;
-0,000496162543527483;
-0,000299693185397274;
-0,000158052814639507;
-7,37778825263157E-5;
-2,0338166952186E-5;
3,66051728268727E-5;
0,000114890263176636;
0,000206927572928492;
0,000291404998820316;
0,000354210694540025;
0,000400584852548317;
0,000448980452417156;
0,000513108942853806;
0,000588629514695159;
0,000656645777194444;
0,000701397131930029;
0,00072684944899442;
0,000757115948457658;
0,000818802045320285;
0,000918654382571424;
0,0010345834966307;
0,0011281124115996;
0,00116951400691428;
0,0011568531299501;
0,00111491968538714;
0,00107572273012972;
0,00105618857352385;
0,0010499339069764;
0,00103790891431097;
0,00100747917797504;
0,000963529426564102;
0,000922916948449416;
0,000898186740047211;
0,000885530988687345;
0,000868029390396478;
0,000831743799599538;
0,000780730526201938;
0,000737297334521878;
0,000725845037272508;
0,000752523255248135;
0,000797136336151666;
0,000824569463725762;
0,000807726171723763;
0,000744868881460144;
0,000658637169706632;
0,000578292879204566;
0,000519422265676856;
0,000476414474691898;
0,000432062136617312;
0,000374827223538912;
0,000308908405840969;
0,000249272329642881;
0,000207002764902562;
0,000178497910497851;
0,000148449548172322;
0,00010436900597393;
5,0062318183262E-5;
5,74761469431743E-6;
-6,61597195075608E-6;
1,83013222223657E-5;
6,19614675916951E-5;
9,23630247747991E-5;
8,48056871301938E-5;
3,75567192136138E-5;
-2,90439884379227E-5;
-8,86155592694795E-5;
-0,000127063015845597;
-0,000149400381387999;
-0,000171162422430326;
-0,00020290898965826;
-0,000241170643893338;
-0,000272861591426511;
-0,000288351035764959;
-0,000291074090644153;
-0,000294815025049747;
-0,000310704863170731;
-0,000335227721623243;
-0,000350221781083579;
-0,000336093434403552;
-0,000288270614621544;
-0,000223621634076577;
-0,000171057724611342;
-0,000152888236900882;
-0,000170781918700621;
-0,000206575805471682;
-0,000236632404528505;
-0,000248252296080409;
-0,000245815008349614;
-0,000243163460017124;
-0,000249814864826926;
-0,000262885474081874;
-0,000270974616425897;
-0,000265725206639218;
-0,00025029874964212;
-0,000236918265903736;
-0,000235329683653333;
-0,000242221835162638;
-0,000241326423049203;
-0,000215221718289253;
-0,000159943984542442;
-9,06284906884621E-5;
-3,30917641727315E-5;
-7,23117196958496E-6;
-1,45514749686366E-5;
-3,88895189857755E-5;
-5,91619167286529E-5;
-6,39381691791209E-5;
-5,69223634307621E-5;
-5,02626372746092E-5;
-5,23903885719594E-5;
-6,08814241466351E-5;
-6,58409561169171E-5;
-6,00323053189161E-5;
-4,62787717165501E-5;
-3,5259747502821E-5;
-3,53643792593225E-5;
-4,34476791698304E-5;
-4,5011604690598E-5;
-2,46573144342425E-5;
2,10562209739039E-5;
7,87033227939718E-5;
0,000125467097019677;
0,000143788455650901;
0,000132349370473363;
0,000105429803550167;
8,16921056832396E-5;
7,13584901155952E-5;
7,13601312442784E-5;
7,11563276620848E-5;
6,33563532592601E-5;
4,99714373437991E-5;
3,94967345615777E-5;
3,81278159798688E-5;
4,33641823628243E-5;
4,59693184114122E-5;
3,88049980131445E-5;
2,48234075973969E-5;
1,68211655249909E-5;
2,82696949414687E-5;
6,21097355293747E-5;
0,00010652599358955;
0,000141525573617048;
0,000151741793247479;
0,000136011623114288;
0,000106810823475497;
8,04834613802772E-5;
6,60703180997937E-5;
6,10560686707908E-5;
5,63747241217386E-5;
4,55896210882067E-5;
3,03127686641439E-5;
1,77201347222058E-5;
1,30213709766083E-5;
1,39974572606283E-5;
1,27283361762236E-5;
3,20131333885302E-6;
-1,1860010746099E-5;
-2,12922364588321E-5;
-1,34553999315582E-5;
1,41072978914611E-5;
5,1077200334149E-5;
8,0092402620756E-5;
8,78218484031565E-5;
7,32277423977726E-5;
4,70746831324065E-5;
2,3510420280198E-5;
1,0437869251963E-5;
5,82430564986513E-6;
1,95308157990966E-6;
-6,73617952410549E-6;
-1,90035874267208E-5;
-2,88949747108583E-5;
-3,21141564762709E-5;
-3,06243378432743E-5;
-3,11400294036974E-5;
-3,86548433667614E-5;
-5,06849182688347E-5;
-5,76033244752391E-5;
-4,94782942240526E-5;
-2,42994564099223E-5;
9,01155254413624E-6;
3,55418596616284E-5;
4,38533375250536E-5;
3,30248461099445E-5;
1,22305685771597E-5;
-6,42623187549004E-6;
-1,61098337258063E-5;
-1,84191404881705E-5;
-1,98285350338384E-5;
-2,50827473502054E-5;
-3,32691228277211E-5;
-3,95397016352327E-5;
-4,04219734307054E-5;
-3,76330577310562E-5;
-3,67772204084617E-5;
-4,19183439295207E-5;
-5,08042588969818E-5;
-5,52280651862085E-5;
-4,68257770400322E-5;
-2,39837481862924E-5;
5,68104173724525E-6;
2,95277096848763E-5;
3,78743638748797E-5;
2,99171431977179E-5;
1,33726528211972E-5;
-1,5357186098582E-6;
-8,95767480230685E-6;
-1,00989353982758E-5;
-1,02934001176111E-5;
-1,35275042625115E-5;
-1,91689689623687E-5;
-2,33593972383501E-5;
-2,3359658060065E-5;
-2,0649881721917E-5;
-1,98178549783625E-5;
-2,40844652177889E-5;
-3,14181969728715E-5;
-3,49137877186117E-5;
-2,76350455711875E-5;
-8,31843919740779E-6;
1,66263874463429E-5;
3,66480043414621E-5;
4,36791700328887E-5;
3,70300265069156E-5;
2,3089369160424E-5;
1,03627836160751E-5;
3,79454694065087E-6;
2,52882930345277E-6;
2,26671590848435E-6;
-2,828984915208E-7;
-4,72899623203519E-6;
-8,09515190905179E-6;
-8,29395121010416E-6;
-6,58422073346578E-6;
-6,63519139919658E-6;
-1,09143090329862E-5;
-1,76030914828641E-5;
-2,09848993912953E-5;
-1,54184703726373E-5;
4,86930674158055E-8;
2,01104123618799E-5;
3,61169041019541E-5;
4,14690527549827E-5;
3,55820785126784E-5;
2,36403288275747E-5;
1,25876400471714E-5;
6,53744304413718E-6;
4,93820758161655E-6;
4,41859038682691E-6;
2,31611057090603E-6;
0,0093322470171649;
0,0226258326308086;
0,0163684328946343;
0,00942963041677409;
0,0121651614236871;
0,00701776638557019;
0,00562045179848735;
0,00456522377735835;
0,000827210147625412;
0,00103129244029017;
-0,00117566340762703;
-0,00196454918781061;
-0,00277563112369441;
-0,00452708821976771;
-0,00487056024991;
-0,00584834569018551;
-0,00593889677731578;
-0,0061817177168342;
-0,00699321902357962;
-0,00792172115460636;
-0,00935223982628801;
-0,0102480286716588;
-0,0105238782522173;
-0,010113466406094;
-0,00921362058904366;
-0,008439935210239;
-0,00784500986307926;
-0,00747457380214766;
-0,0070618408512506;
-0,0064228743061028;
-0,0056671955665248;
-0,00494030841489184;
-0,0044316097319508;
-0,00407303494009548;
-0,00365373322093969;
-0,00302374157419102;
-0,00222962658220786;
-0,00157546460144415;
-0,00136379677828294;
-0,00166849149212969;
-0,00223008436477292;
-0,00259221449921596;
-0,00241182561475104;
-0,00166198507975261;
-0,000630582204477873;
0,000307745574070064;
0,000950865044518321;
0,00136119673378664;
0,00175309446049613;
0,0022737931983487;
0,00287853499397598;
0,00339061143639407;
0,00367996778410752;
0,00379679252890979;
0,00393145072676562;
0,00423463901706747;
0,00465199761011174;
0,00492606187649732;
0,00478251371588796;
0,0041593522176085;
0,00329559325237637;
0,00259842410903331;
0,00238159166309519;
0,00266894973651775;
0,00320567296110142;
0,00365931731463691;
0,00384969918417484;
0,00383550837733571;
0,00380882452038681;
0,00390303420632297;
0,00408002807942658;
0,00418368402495099;
0,00410014970688892;
0,00387513537502046;
0,00367912929192992;
0,00364664288571658;
0,00372943945239955;
0,00369900533892664;
0,00331201427972035;
0,00251429418981234;
0,00151896771854662;
0,000688103897084927;
0,000300367702681126;
0,000376764448667962;
0,00069106722205657;
0,000948253423241096;
0,000988288059373331;
0,00086271509681581;
0,000741120031893172;
0,000741217114922551;
0,000829182749729326;
0,000867037092265635;
0,000754167591844054;
0,000530642900397098;
0,000346266751978076;
0,0003187126083732;
0,000404374754348919;
0,000400970695108664;
9,36078835192183E-5;
-0,000565653463400155;
-0,0107228330601906;
-0,0246891537809662;
-0,0187040194460319;
-0,0116204323248224;
-0,0139966540889313;
-0,0085372263405233;
-0,00701490658107982;
-0,00597270015374699;
-0,00223332334172214;
-0,00231840291968294;
9,09005063615169E-5;
0,00103756066747888;
0,00186835973724338;
0,00353567985123171;
0,00382555837216405;
0,00488773661691438;
0,00516500165878454;
0,00551928458317852;
0,00617661888469848;
0,00664138429585124;
0,00746201119175096;
0,00788040957676086;
0,00802494378824602;
0,00784331478399161;
0,00735601982526268;
0,00695088441871127;
0,00655862074186655;
0,00626673638406234;
0,00593997060550044;
0,00548367775879003;
0,00497806952002692;
0,00445869266142743;
0,00403475481607432;
0,00366793399418851;
0,00326305442514084;
0,00276212382488598;
0,00218021873037046;
0,0016680051043914;
0,00136418395819729;
0,00130532560327828;
0,00137319860833022;
0,00135154529043524;
0,00108109979675961;
0,000547011420878898;
-0,000114295260732895;
-0,000723799872201915;
-0,00118418894299756;
-0,00152242002430168;
-0,00184038773951726;
-0,0022087117500283;
-0,00260705878801916;
-0,00295178157645237;
-0,00318047362439088;
-0,00331751031215944;
-0,00345470945317282;
-0,00366487796798056;
-0,00392101291758365;
-0,00409645126847781;
-0,00405598739233067;
-0,00376869222738625;
-0,00335284888646614;
-0,00301118981554195;
-0,00290117768691088;
-0,0030363152794759;
-0,00329018386396992;
-0,00349617716341879;
-0,00356310806046417;
-0,00351999715625182;
-0,00346405850890931;
-0,003463800659589;
-0,00350112590965389;
-0,00349752421909546;
-0,00339536577552145;
-0,00321827054653312;
-0,00305401119510061;
-0,00297219989481179;
-0,00294818590208498;
-0,00286353187347927;
-0,00259141169468065;
-0,00210316853416133;
-0,00151020807937981;
-0,00100305485341633;
-0,000729490166419723;
-0,000701884323690646;
-0,000801378055801329;
-0,000871582237551677;
-0,000827049937604041;
-0,000695060443135548;
-0,000566559132510772;
-0,000505271164279138;
-0,000493525258280035;
-0,000457021206742689;
-0,000341111671183402;
-0,00016732892621812;
-1,73258719762607E-5;
4,41968559652118E-5;
4,06459611285181E-5;
8,30613726648004E-5;
0,000290345754968911;
0,000689844886234384;
0,00117837703627581;
0,00157916031359299;
0,00175538901647432;
0,00169641603377584;
0,0015136364126132;
0,00135311976952303;
0,00129471338593788;
0,00131337999441878;
0,00132504313075845;
0,0012711627151331;
0,00116898792176021;
0,00108836226534464;
0,00108074091707266;
0,00112669048999526;
0,00115085618561051;
0,00109352639373917;
0,000976629121619851;
0,000903272537386317;
0,00098384171211282;
0,00124399453281921;
0,00158869413720054;
0,00185495025803086;
0,00191681894366392;
0,00176491755084721;
0,00150243267084517;
0,00126432211035958;
0,00112421993655606;
0,00105894372901982;
0,000990983937016895;
0,000866575581673039;
0,000701944903985737;
0,000561771728976875;
0,000493671401783911;
0,000479823684445541;
0,000450808235046165;
0,000351524500539656;
0,000201920183691389;
9,65563178028863E-5;
0,000136687239333453;
0,000345793012534529;
0,000636641329405264;
0,000859758649062521;
0,000899733010949122;
0,000748003440738876;
0,00049903660316588;
0,000276200714736672;
0,000146547332852154;
8,84814304109608E-5;
3,08239008055958E-5;
-7,56901876090494E-5;
-0,000216184579540881;
-0,000331477778364771;
-0,000378078701725688;
-0,000372403936987977;
-0,000378092266242134;
-0,000445763676702229;
-0,000557576467776036;
-0,000627632014425459;
-0,00056390288099913;
-0,000345172748857991;
-5,09673539278664E-5;
0,000182636904554252;
0,000250642500513563;
0,000145241021748682;
-4,78090540368631E-5;
-0,000216649123896584;
-0,000300714241587522;
-0,000319951972720296;
-0,000339197005593479;
-0,000403210445660778;
-0,000498426866425438;
-0,000571077312545291;
-0,000581694863773896;
-0,000545217783506752;
-0,000519453022824383;
-0,00055046118103171;
-0,000622338483072803;
-0,000657588163635031;
-0,000573136666027479;
-0,000349862121651072;
-5,95797366159571E-5;
0,000174924193872603;
0,000258993582400878;
0,000185668262260848;
3,22861365466054E-5;
-0,000100431620065006;
-0,000158106636670781;
-0,000158898761639207;
-0,000161276020063156;
-0,000205466633405451;
-0,0002790846743442;
-0,00033355562497711;
-0,000333238085972582;
-0,000291504942495877;
-0,000260337653575182;
-0,000281211106554304;
-0,000339974106636941;
-0,000367185310093595;
-0,000288369783457418;
-8,63396475200148E-5;
0,00950810716601658;
0,0230145947030442;
0,0168324158612602;
0,00982612834790363;
0,012423552722552;
0,00715923746382134;
0,00571305224718777;
0,00465602340719302;
0,000906564200805989;
0,00105307381485588;
-0,00124201342083966;
-0,00209909281246643;
-0,00292119547858877;
-0,00463784857389093;
-0,00495111905437173;
-0,00594585627908279;
-0,00609137403983586;
-0,00636517865272304;
-0,00711492080718989;
-0,00787149164370728;
-0,00907686042075854;
-0,00979313547670352;
-0,0100109990212621;
-0,00966852571927444;
-0,00889898289593282;
-0,00823702387781564;
-0,00769384439442222;
-0,00733344001328097;
-0,00693874676467469;
-0,00635787084983213;
-0,00568679145778884;
-0,00502690214961772;
-0,00453511791538953;
-0,0041533787665289;
-0,00371491889581649;
-0,00310682889352694;
-0,00236745281211935;
-0,00174648869257193;
-0,00148634769232498;
-0,00164577631685286;
-0,00201522470424628;
-0,00222478781155119;
-0,00199772041890107;
-0,00131093293417999;
-0,000396843719004658;
0,000440551550105687;
0,00103532478751819;
0,00143413680874647;
0,00180816255489954;
0,00227674457491543;
0,0028067465964331;
0,00325955940058772;
0,00353313589193132;
0,00366890483272342;
0,00381906876313459;
0,00410238470157763;
0,00447180718967871;
0,0047170646423545;
0,00461585722312532;
0,00411913932774769;
0,0034226107772172;
0,00285861621990655;
0,00268355378648915;
0,00291793741883337;
0,00335482487637651;
0,00372275914156199;
0,00387287703022328;
0,00385042709185635;
0,00381040495413556;
0,00386217610202782;
0,00397747161184415;
0,00403268160520716;
0,00393780823290967;
0,00373096907739112;
0,00354999840943649;
0,0035022102592592;
0,00354581654057546;
0,00349280108317794;
0,00314431655784495;
0,00245714957413687;
0,00160726139331547;
0,00089268648521949;
0,000543076688141488;
0,0005765709432007;
0,000807786102953489;
0,000993728740828171;
0,00100114964483875;
0,000870294593714271;
0,000739311449706659;
0,000705489417738434;
0,000743220014124046;
0,000741896950676095;
0,000620949213855673;
0,000413948295673141;
0,000243136024267752;
0,000203360039146781;
0,000256653877988227;
0,000235050852317195;
-3,88079210117299E-5;
-0,000603724171442593;
-0,0106371806340884;
-0,0245044529934511;
-0,0184862640599343;
-0,0114380374737108;
-0,0138836673872901;
-0,00848391007778473;
-0,00698891330387997;
-0,00595101603021365;
-0,0022191840287821;
-0,00233215695500046;
3,56464164433027E-5;
0,000949881579692347;
0,00177389588068818;
0,0034545902489711;
0,00375510594324929;
0,00480635233864644;
0,00505600075072945;
0,00539463090562545;
0,00607945674580168;
0,00662234298232655;
0,00754548487026232;
0,00804587947022334;
0,00821761254829263;
0,00800637295886251;
0,00746110856670139;
0,00700589709266094;
0,00659023850686754;
0,0062940869518565;
0,00596065536648818;
0,0054812056888051;
0,00494136066393072;
0,00439509286132977;
0,00396502458072934;
0,00360828122809766;
0,00321102663611916;
0,00270005108632792;
0,00209461150855507;
0,00156886272529165;
0,00128691511153535;
0,00129132976481595;
0,00144239367711431;
0,00148723484862758;
0,00123869650929141;
0,000680285956423689;
-2,8488011993894E-5;
-0,000679185352075169;
-0,00115917842597993;
-0,00150138131311955;
-0,00182495210930516;
-0,00221187267534941;
-0,00263759301655289;
-0,00300387164987659;
-0,00323772148803704;
-0,00336723015491492;
-0,0034990627818961;
-0,00371800004373241;
-0,00399351020365975;
-0,00418010250688289;
-0,0041223630270187;
-0,00378471215917333;
-0,00330262723657148;
-0,00290798047128236;
-0,00278037598247025;
-0,00293462567822853;
-0,00322605360729321;
-0,00346478032466821;
-0,00354743564713608;
-0,00350757549397761;
-0,0034558605207781;
-0,00346971247193793;
-0,00352787844882537;
-0,00354067380582815;
-0,00344241502320323;
-0,00325967861037427;
-0,00309167888730413;
-0,00301711374887006;
-0,00300840035788936;
-0,0029324483381844;
-0,00264687049585177;
-0,00211955006999357;
-0,00147525035469801;
-0,000926957268096886;
-0,000639459468987963;
-0,000626137406829313;
-0,000754178308213947;
-0,000849401466849708;
-0,000816974440752367;
-0,000687456806796474;
-0,000561850678390933;
-0,000510614683180824;
-0,000513855799414188;
-0,000489123065633214;
-0,000375947361651133;
-0,000198142382407186;
-4,5786090379121E-5;
9,88496849125865E-6;
-5,33132096739714E-6;
3,05519339269393E-5;
0,000247882912009178;
0,00067641988445371;
0,00120302802179665;
0,00163438018284613;
0,00182120901557428;
0,00175212453215412;
0,00154867269628247;
0,00136986959408626;
0,00130247052909652;
0,00131925603549283;
0,00132907661492225;
0,00126858186181686;
0,00115643022274762;
0,00106796730527407;
0,00105851739087008;
0,00110696357885615;
0,00113217330742252;
0,00107012889319802;
0,000944663123673823;
0,000866570804645864;
0,000954071233955239;
0,00123432197209036;
0,00160532625825514;
0,00189274086661102;
0,00196214748208044;
0,00180365735060419;
0,00152727970891391;
0,00127667626978666;
0,0011302149476092;
0,00106348146869016;
0,000994493345524361;
0,00086635539867529;
0,000696003290119224;
0,000551322196659059;
0,000482105402163212;
0,00046937325807682;
0,000440227053469809;
0,000337189480066048;
0,000181678849195271;
7,31023008070802E-5;
0,000117410916101174;
0,000338796905525434;
0,000645673128771588;
0,000881723921237668;
0,000926524828793278;
0,000771216327891182;
0,000514204356229872;
0,000283883861561879;
0,000150151012600223;
9,09914408312218E-5;
3,29940995672988E-5;
-7,47840690654747E-5;
-0,000217353129398699;
-0,000334295471467385;
-0,000381390191237237;
-0,000375758822311784;
-0,000382543858180619;
-0,000453092393991813;
-0,000568476468570702;
-0,000640399586772449;
-0,000574833294354739;
-0,000350520631740628;
-4,90998753382358E-5;
0,000190385492932362;
0,000260897404928363;
0,000154509040196922;
-4,15510849931507E-5;
-0,00021354837404199;
-0,000299696720768004;
-0,000319677719737618;
-0,000338650038365447;
-0,000401812728462486;
-0,000495986647370682;
-0,000567833287171247;
-0,00057837959487428;
-0,000542879158620578;
-0,000518968300974017;
-0,000552042974190783;
-0,000625450132337538;
-0,000661379505245133;
-0,000577043419878573;
-0,000353843980056661;
-6,38026827496387E-5;
0,000170613983395533;
0,000255228408926637;
0,000183116758390053;
3,10002953685403E-5;
-0,000101188147360186;
-0,000159226420328793;
-0,000160439373146428;
-0,000162017314121395;
-0,000203581425349087;
-0,000273544482798522;
-0,000325151388137645;
-0,00032427260713047;
-0,000284266505270864;
-0,000255545070968392;
-0,000277762662579099;
-0,000336311168020144;
-0,00036318526831006;
-0,000286107402390601;
-8,8880545856678E-5;
0,000165654494401213;
0,000370760993042688;
0,000444463926095449;
0,000380848912518557;
0,000246798445011169;
0,000129310868288967;
7,55539409098991E-5;
7,04836470698577E-5;
6,44591754250449E-5;
2,31481469063308E-5;
-4,33205493622898E-5;
-9,43409468215973E-5;
-0,000100297230226483;
-7,27379619632409E-5;
-5,52733992284747E-5;
-8,21578943391989E-5;
-0,000140690235772352;
-0,000172043034649308;
-0,000113771119929997;
4,80864538042608E-5;
0,000259286539534848;
0,000427801944360669;
0,000483051472993258;
0,00042004110465598;
0,00029643775528652;
0,000187140715775897;
0,000132715721919035;
0,000120228958234791;
0,000107057897934498;
6,37720247648109E-5;
-8,90881094913636E-7;
-5,20846128018472E-5;
-6,4426121283839E-5;
-4,78091933167293E-5;
-3,95484311525925E-5;
-6,89126701846003E-5;
-0,000125011687227333;
-0,000157582773014721;
-0,000113345263622414;
1,95573831800389E-5;
0,000194832283872503;
0,000334064053598867;
0,000377196576941576;
0,000320044826887979;
0,000211694425729997;
0,000115801669343101;
6,67886249062028E-5;
5,36453184909248E-5;
4,02114145543663E-5;
1,55656787155183E-6;
-5,49003709673693E-5;
-9,96655906788229E-5;
-0,00011129211612524;
-9,81700961452889E-5;
-9,18281573301578E-5;
-0,000116961357672364;
-0,000164374721688346;
-0,000191722302802571;
-0,000154184418787596;
-4,18550171263361E-5;
0,000106281312343528;
0,000224322148876832;
0,000261875776551006;
0,000215481292997608;
0,000126318809545824;
4,77017983519086E-5;
8,40238794332546E-6;
-8,2769792708327E-7;
-1,02232176266827E-5;
-4,05927251020216E-5;
-8,57335319616682E-5;
-0,00012106258562526;
-0,000128740608442162;
-0,000115779320304472;
-0,000108408592017123;
-0,000127137381611044;
-0,000164321710267903;
-0,000184853344583958;
-0,00015164095461215;
-5,65512819726283E-5;
6,81166312796754E-5;
0,000167892822989918;
0,000201209928618573;
0,000165269369094452;
9,40445104575084E-5;
3,14265951827244E-5;
1,04912000559073E-6;
-4,72032735147416E-6;
-1,07111187629437E-5;
-3,39723243757183E-5;
-6,9400608496781E-5;
-9,68707880045836E-5;
-0,000101813132288635;
-8,99755012157997E-5;
-8,27640159393896E-5;
-9,68778383644982E-5;
-0,000126072933467924;
-0,000141798919997742;
-0,000113962208921542;
-3,60233941505711E-5;
6,5789977464094E-5;
0,000147374176516766;
0,000175158660128413;
0,000146948598891505;
9,02015883510596E-5;
4,02942591015022E-5;
1,62235569953716E-5;
1,18265299731798E-5;
7,16415312034247E-6;
-1,14126060812379E-5;
-3,97883729489129E-5;
-6,18551707724519E-5;
-6,59859710784417E-5;
-5,67829022744708E-5;
-5,12999349124018E-5;
-6,2800942048631E-5;
-8,62998599683988E-5;
-9,9145433410452E-5;
-7,75347909619248E-5;
-1,63556481695977E-5;
6,36279569794815E-5;
0,000127630142835084;
0,000149263148246436;
0,000126872491664994;
8,20667893043137E-5;
4,2584752588107E-5;
2,32676079241071E-5;
1,92715018153965E-5;
1,50394999508345E-5;
-3,36656768143212E-8;
-2,27191476131503E-5;
-4,05052937488464E-5;
-4,4397717032069E-5;
-3,79742426196744E-5;
-3,44001158576931E-5;
-4,38725145574443E-5;
-6,25315518643229E-5;
-7,29935853919808E-5;
-5,70688682766898E-5;
-1,09171679689412E-5;
4,95682401165319E-5;
9,79027172713503E-5;
0,000114092247477319;
9,69584485493638E-5;
6,29004748721904E-5;
3,28601921721084E-5;
1,79824979188674E-5;
1,4594666503938E-5;
1,10303234997467E-5;
-6,16614234947243E-7;
-1,79081617090398E-5;
-3,15265608541904E-5;
-3,48142018375814E-5;
-3,04426067910928E-5;
-2,81336832604844E-5;
-3,53717266909711E-5;
-4,9297108128383E-5;
-5,71895871073464E-5;
-4,5824749992179E-5;
-1,24866945984531E-5;
3,12352295325568E-5;
6,61867698704366E-5;
7,80153012958974E-5;
6,59587231078801E-5;
4,18183081548231E-5;
2,05422889519275E-5;
1,00180373423212E-5;
7,60404345224612E-6;
5,05784624401062E-6;
-3,15369351834715E-6;
-1,52905641869354E-5;
-2,4844452938191E-5;
-2,72116780304152E-5;
-2,42678898155127E-5;
-2,27127331374959E-5;
-2,76513416584589E-5;
-3,71027442224781E-5;
-4,24352268142235E-5;
-3,47740816166938E-5;
-1,23863231182397E-5;
1,69074553684505E-5;
4,03664281652127E-5;
4,85698886562825E-5;
4,11179038436216E-5;
2,57942033274262E-5;
1,23141344982403E-5;
5,72355278024241E-6;
4,28162766574075E-6;
2,7311611426976E-6;
-2,39391032212268E-6;
-9,96220284111489E-6;
-1,5910999143265E-5;
-1,74227604849202E-5;
-1,56799817904299E-5;
-1,47550061146345E-5;
-1,76863516233709E-5;
-2,32560500658367E-5;
-2,63795239601305E-5;
-2,19526585428363E-5;
-9,0920325352322E-6;
7,64876776000257E-6;
2,10828031463598E-5;
2,60569222071454E-5;
2,24836581599103E-5;
1,46738228477253E-5;
7,82294623786991E-6;
4,52511299423646E-6;
3,81820225870951E-6;
3,02022420801719E-6;
4,4653768922225E-7;
-3,2962734177829E-6;
-6,25097195313269E-6;
-7,13609783664733E-6;
-6,53698794409396E-6;
-6,26730007947945E-6;
-7,59047469835663E-6;
-9,94375907714895E-6;
-1,12853556928833E-5;
-9,74267622837091E-6;
-5,15825495528661E-6;
7,13758737227186E-7;
5,44020045043571E-6;
7,51739560645653E-6;
7,12400662740293E-6;
5,60378889437639E-6;
4,29437990916199E-6;
3,69938149082024E-6;
3,52156508360915E-6;
3,2732027730939E-6;
2,78575411660881E-6;
2,21833453097864E-6;
1,73739772925415E-6;
1,31937925494051E-6;
8,86618751041334E-7;
5,4242471813235E-7;
5,28261425629012E-7;
8,50921896409601E-7;
9,75149704810299E-7;
3,95020155782004E-8;
-2,41104189735799E-6;
-5,76356454317102E-6;
-8,43641084733189E-6;
-8,85433897644887E-6;
-6,61555613302363E-6;
-2,87735368532542E-6;
4,49530270769091E-7;
2,11050174862447E-6;
2,36796404491903E-6;
2,57747606994235E-6;
3,84225067243552E-6;
5,94483626220255E-6;
7,54994830442143E-6;
7,54101378598342E-6;
6,26553889279192E-6;
5,42978775858728E-6;
6,53198245495362E-6;
9,11388967676682E-6;
1,04901522798395E-5;
7,5211219772383E-6;
-7,5700963250716E-7;
-1,17605669358709E-5;
-2,05698290868875E-5;
-2,30528708485219E-5;
-1,86240739524769E-5;
-1,05155663273738E-5;
-3,32929752775703E-6;
2,25501729415073E-7;
8,74647332113469E-7;
1,49651750294236E-6;
4,24315092801083E-6;
8,58534827487799E-6;
1,19497968411164E-5;
1,23202566400707E-5;
1,03942413836385E-5;
9,19498863247501E-6;
1,12516486072462E-5;
1,57238785625545E-5;
1,81648173110553E-5;
1,35712515568289E-5;
5,64876179258206E-7;
-1,66599885466112E-5;
-3,04602419736437E-5;
-3,46213399589766E-5;
-2,8409311236339E-5;
-1,67442440493165E-5;
-6,41385880432922E-6;
-1,30672810978563E-6;
-3,20728790372557E-7;
6,5518694877751E-7;
4,62022007416593E-6;
1,07923134642781E-5;
1,55989193271528E-5;
1,62991178215299E-5;
1,38725951783786E-5;
1,24012454845514E-5;
1,52412917117148E-5;
2,1245323059325E-5;
2,45558640030848E-5;
1,86803388833149E-5;
1,91104612673067E-6;
-2,0271661865914E-5;
-3,80551596271299E-5;
-4,35692030740577E-5;
-3,59633058874253E-5;
-2,14972227099477E-5;
-8,68965790428886E-6;
-2,36092408685958E-6;
-1,11084608285639E-6;
1,43655008788699E-7;
5,06793210559218E-6;
1,26800596864377E-5;
1,86226465219278E-5;
1,95871390240576E-5;
1,67745872407284E-5;
1,50940230489583E-5;
1,85461479122069E-5;
2,57437396000373E-5;
2,97328813718231E-5;
2,28665044120432E-5;
3,18359790029121E-6;
-2,28397158899545E-5;
-4,37162982833574E-5;
-5,03016124696317E-5;
-4,16571040244323E-5;
-2,50713452280158E-5;
-1,0388311825391E-5;
-3,13929663787409E-6;
-1,69586446261352E-6;
-2,35137375705897E-7;
5,41318972586308E-6;
1,41145334104864E-5;
2,09174644510248E-5;
2,20854626898193E-5;
1,89868447613821E-5;
1,71519871223687E-5;
2,10638379133519E-5;
2,91550783394586E-5;
3,36541796502024E-5;
2,60566401394827E-5;
4,21557728405368E-6;
-2,46544665963013E-5;
-4,78304873316047E-5;
-5,52314912874594E-5;
-4,58561118393157E-5;
-2,77467778877326E-5;
-1,17140028301741E-5;
-3,80497156557225E-6;
-2,2246947013863E-6;
-6,15618259982239E-7;
5,55522857885015E-6;
1,50422805292692E-5;
2,24683576677446E-5;
2,37920854997017E-5;
2,05013461683969E-5;
1,85665822280611E-5;
2,28101462898984E-5;
3,15371611660135E-5;
3,64037228770782E-5;
2,8309025532392E-5;
4,97954845197215E-6;
-2,58577896912576E-5;
-5,06292203289765E-5;
-5,86137727294317E-5;
-4,87694781022624E-5;
-2,96516748770746E-5;
-1,27231808666641E-5;
-4,37626856393222E-6;
-2,70341423134742E-6;
-9,91815195298131E-7;
5,52978524140987E-6;
1,55413017172747E-5;
2,33868351311547E-5;
2,4827654189275E-5;
2,14295852147316E-5;
1,94450243597826E-5;
2,39112103288276E-5;
3,30514989744218E-5;
3,81631941312325E-5;
2,97764999188363E-5;
5,54281097110538E-6;
-2,64951249088182E-5;
-5,22474607885477E-5;
-6,06108009446642E-5;
-5,0521914463313E-5;
-3,08400440293831E-5;
-1,34078510794895E-5;
-4,8146730782934E-6;
-3,08723310485544E-6;
-1,31278327863899E-6;
5,41064692671149E-6;
1,57200328020095E-5;
2,38078818179097E-5;
2,53310010466617E-5;
2,18972397751863E-5;
1,99045231621095E-5;
2,44976110154457E-5;
3,38575778881363E-5;
3,91069496310791E-5;
3,06026770768537E-5;
5,96545012108083E-6;
-2,66151482771918E-5;
-5,28208310168762E-5;
-6,13870284313714E-5;
-5,1245901622855E-5;
-3,13813555109759E-5;
-1,37823463632236E-5;
-5,10846419369931E-6;
-3,36071381695442E-6;
-1,55926617485103E-6;
5,23660674573244E-6;
1,56479837947374E-5;
2,38244022618736E-5;
2,53975240720179E-5;
2,19865966186613E-5;
2,00187824829737E-5;
2,46548926245051E-5;
3,40673555724029E-5;
3,93605154347057E-5;
3,08845299010749E-5;
6,2671268992803E-6;
-2,62987678345739E-5;
-5,25105295620909E-5;
-6,11300790906585E-5;
-5,10991517869931E-5;
-3,13745935791979E-5;
-1,38940605547864E-5;
-5,28017338982471E-6;
-3,54204193950618E-6;
-1,74492115277719E-6;
5,01312517258828E-6;
1,5360116201814E-5;
2,3494170381975E-5;
2,508861673929E-5;
2,17483376979992E-5;
1,98319606243988E-5;
2,44395152159961E-5;
3,37630229037334E-5;
3,90200201069942E-5;
3,06934189238225E-5;
6,44961101581362E-6;
-2,56352034717679E-5;
-5,14781958504872E-5;
-6,0024624661565E-5;
-5,02377020447142E-5;
-3,09207326759115E-5;
-1,37954424887368E-5;
-5,35821222598083E-6;
-3,65439390178513E-6;
-1,8875423209523E-6;
4,74110596410402E-6;
1,48854984883225E-5;
2,28682818407121E-5;
2,44598068217709E-5;
2,12292777114859E-5;
1,93859390757095E-5;
2,39055537336474E-5;
3,30230609859419E-5;
3,8177537574469E-5;
3,00996458105366E-5;
6,52050668977891E-6;
-2,46991450073008E-5;
-4,98639965325844E-5;
-5,82314155210682E-5;
-4,87959268763929E-5;
-3,01037602652476E-5;
-1,35260519530268E-5;
-5,3599979470197E-6;
-3,71015432290113E-6;
-1,99438559433322E-6;
4,43047544021129E-6;
1,42598003580122E-5;
2,20025399090564E-5;
2,35710467913503E-5;
2,04815602380191E-5;
1,87284266379152E-5;
2,31117620614381E-5;
3,1928283936236E-5;
3,69261329321578E-5;
2,91765051065614E-5;
6,49626047031259E-6;
-2,3548769246784E-5;
-4,77855982632396E-5;
-5,58871204358344E-5;
-4,68871139326604E-5;
-2,89919067641492E-5;
-1,31144269795397E-5;
-5,29445202668191E-6;
-3,71404989654237E-6;
-2,06589714835525E-6;
4,09593097861795E-6;
1,35205738301793E-5;
2,09523085831786E-5;
2,24811298130403E-5;
1,95566544362564E-5;
1,79065987478615E-5;
2,2114921720096E-5;
3,05549847555405E-5;
3,5352811304282E-5;
2,79929703029924E-5;
6,39454617956888E-6;
-2,22336762558944E-5;
-4,53463541583045E-5;
-5,31125829600017E-5;
-4,4611639893997E-5;
-2,76456511766433E-5;
-1,25858973554688E-5;
-5,16967390138018E-6;
-3,67070265915764E-6;
-2,10312085572575E-6;
3,7497263382771E-6;
1,27002826487195E-5;
1,97657887738625E-5;
2,12411841767814E-5;
1,849903439638E-5;
1,69609842295063E-5;
2,09640171495916E-5;
2,89694424941192E-5;
3,35333279581917E-5;
2,6608703893328E-5;
6,22933416100893E-6;
-2,07998175636031E-5;
-4,26401475719214E-5;
-5,00174250906101E-5;
-4,20611516844443E-5;
-2,61213881093964E-5;
-1,19657836750707E-5;
-4,99575450446044E-6;
-3,58713552455666E-6;
-2,10989674098096E-6;
3,39983320298021E-6;
1,18248381978453E-5;
1,84828955301089E-5;
1,98938200042603E-5;
1,7345544297759E-5;
1,5925053569814E-5;
1,97001003133409E-5;
2,72280987703222E-5;
3,15326267299547E-5;
2,5074610071718E-5;
6,01137331767974E-6;
-1,92891712919825E-5;
-3,97511625173584E-5;
-4,66997274699243E-5;
-3,93179690798811E-5;
-2,44704570630757E-5;
-1,12780776229052E-5;
-4,7832353299772E-6;
-3,47109764678717E-6;
-2,09107773083156E-6;
3,05187153192766E-6;
1,09157302289234E-5;
1,71375422245251E-5;
1,84754692690299E-5;
1,61277232304223E-5;
1,48275435471686E-5;
1,83586868221786E-5;
2,53800739824671E-5;
2,94074154380127E-5;
2,34352810129281E-5;
5,75031749610872E-6;
-1,77380323002391E-5;
-3,67525134031922E-5;
-4,3244776379266E-5;
-3,64537131932057E-5;
-2,27375491025948E-5;
-1,05436831141249E-5;
-4,54129186834712E-6;
-3,32929010415096E-6;
-2,05079160094058E-6;
2,7108715412484E-6;
9,99183229432116E-6;
1,57594718895114E-5;
1,70181530049901E-5;
1,48734427532806E-5;
1,36939810876655E-5;
1,69712380411598E-5;
2,34686767787389E-5;
2,72076517025523E-5;
2,17302835521852E-5;
5,45560673722326E-6;
-1,61766348368456E-5;
-3,37062768285935E-5;
-3,97252681621623E-5;
-3,35294471771284E-5;
-2,09606490746343E-5;
-9,78017659576831E-6;
-4,27744714987326E-6;
-3,1671273895437E-6;
-1,99225029008558E-6;
2,38148793128999E-6;
9,06969742953905E-6;
1,43745869445156E-5;
1,55497675671842E-5;
1,36070870317336E-5;
1,25467702449671E-5;
1,55652694635221E-5;
2,15315904806411E-5;
2,49767388745918E-5;
1,99941886510366E-5;
5,13610873444785E-6;
-1,46299944779267E-5;
-3,0664717913378E-5;
-3,6202665321699E-5;
-3,05968785693479E-5;
-1,91719617943464E-5;
-9,00250890348216E-6;
-3,99816537478039E-6;
-2,98931067770007E-6;
-1,91830029392226E-6;
2,06753594277395E-6;
8,16322526413576E-6;
1,30047290456054E-5;
1,40938813650406E-5;
1,23492911417073E-5;
1,14049084501898E-5;
1,41641206502417E-5;
1,96007652539617E-5;
2,27515024349361E-5;
1,82564301960962E-5;
4,7996408797762E-6;
-1,31188305586053E-5;
-2,76715486485563E-5;
-3,27285367944433E-5;
-2,76995432220197E-5;
-1,7398782121848E-5;
-8,22358189795596E-6;
-3,70927550452357E-6;
-2,80020592004353E-6;
-1,8317664986754E-6;
1,77176112682981E-6;
7,28360792195156E-6;
1,16677551029184E-5;
1,26698414828782E-5;
1,11170150319239E-5;
1,0284044804139E-5;
1,27871043437286E-5;
1,77027225537603E-5;
2,05625717242754E-5;
1,65415735196278E-5;
4,45290535986813E-6;
-1,16600646670545E-5;
-2,47627782440753E-5;
-2,93455008805154E-5;
-2,48735462906047E-5;
-1,56639289736083E-5;
-7,45442578033431E-6;
-3,41600965601393E-6;
-2,60384484069512E-6;
-1,73539533414682E-6;
1,49601130357802E-6;
6,43964619874188E-6;
1,03779820057855E-5;
1,12932521648261E-5;
9,9239802773488E-6;
9,19688762537967E-6;
1,14499656607091E-5;
1,58591460798443E-5;
1,84350496568863E-5;
1,48698647430242E-5;
4,10168513808885E-6;
-1,02670880382033E-5;
-2,19673304862909E-5;
-2,60879430133731E-5;
-2,21481347876081E-5;
-1,39860202173574E-5;
-6,70420841806819E-6;
-3,12288826391228E-6;
-2,40377852008954E-6;
-1,63169902229796E-6;
1,24147940627974E-6;
5,63814712962117E-6;
9,14668042533296E-6;
9,97647510393445E-6;
8,78110806683493E-6;
8,15360744271871E-6;
1,01653489716045E-5;
1,40874592885514E-5;
1,63891491999274E-5;
1,32577379248635E-5;
3,75100642462167E-6;
-8,95004322422968E-6;
-1,93076837637551E-5;
-2,29827687446734E-5;
-1,95463084042431E-5;
-1,23798093670023E-5;
-5,98033085378743E-6;
-2,8336989316052E-6;
-2,20304227392387E-6;
-1,52289560249449E-6;
1,00885179747728E-6;
4,88419287421684E-6;
7,98245235834293E-6;
8,72902146105577E-6;
7,69685307278854E-6;
7,16213814841096E-6;
8,94315412585361E-6;
1,24012992930007E-5;
1,44407161604051E-5;
1,17182093173151E-5;
3,40519644465464E-6;
-7,71620309608594E-6;
-1,68006022846295E-5;
-2,00502427816511E-5;
-1,7085500610157E-5;
-1,08566061128712E-5;
-5,28862419998544E-6;
-2,55158013088331E-6;
-2,00421730206646E-6;
-1,41094530814728E-6;
7,98358977296545E-7;
4,1813298969991E-6;
6,89151235944839E-6;
7,55784519358089E-6;
6,67746224966275E-6;
6,22839405000183E-6;
7,7907914174408E-6;
1,08108943061538E-5;
1,2601673234537E-5;
1,02612041347084E-5;
3,06789235408659E-6;
-6,57038108866835E-6;
-1,4457858211101E-5;
-1,73048065439188E-5;
-1,47782808097127E-5;
-9,42471043098057E-6;
-4,63354883841288E-6;
-2,27910888031989E-6;
-1,80948952154638E-6;
-1,29759199710652E-6;
6,0981509415099E-7;
3,53173464681418E-6;
5,87796778414511E-6;
6,46764095678814E-6;
5,7272032205457E-6;
5,35648598973263E-6;
6,71346655373645E-6;
9,32343836143689E-6;
1,08804579066482E-5;
8,89390015011483E-6;
2,74207998077263E-6;
-5,51527594670101E-6;
-1,22868957643459E-5;
-1,47558402215542E-5;
-1,26329675378094E-5;
-8,08979233008007E-6;
-4,01836378055121E-6;
-2,01836093474709E-6;
-1,62069357911964E-6;
-1,18438066614398E-6;
4,42688604263337E-7;
2,93640750209485E-6;
4,944086689684E-6;
5,46113075566285E-6;
4,84863092484067E-6;
4,54894661961237E-6;
5,71445328923992E-6;
7,94349247079579E-6;
9,2824694404743E-6;
7,62105619591635E-6;
2,43015246625998E-6;
-4,55177928295927E-6;
-1,0291429709334E-5;
-1,24083466812337E-5;
-1,06541991399212E-5;
-6,85522782231615E-6;
-3,44526348953468E-6;
-1,77095498699102E-6;
-1,43932711512986E-6;
-1,07264821139364E-6;
2,96175354007837E-7;
2,39535668478295E-6;
4,09058923037377E-6;
4,53936334602361E-6;
4,04283621903511E-6;
3,80697534040284E-6;
4,79537522351466E-6;
6,67334171083276E-6;
7,81049114630751E-6;
6,44535425307256E-6;
2,1339777574238E-6;
-3,67925635857814E-6;
-8,47198604654833E-6;
-1,02635772814021E-5;
-8,84345584185115E-6;
-5,7224149228642E-6;
-2,91550726480551E-6;
-1,53808995650129E-6;
-1,26658168683881E-6;
-9,63537422639779E-7;
1,69267862831645E-7;
1,90777010380996E-6;
3,31688683036486E-6;
3,7019792415524E-6;
3,30967852832786E-6;
3,13062833531371E-6;
3,95645177068306E-6;
5,51334800112853E-6;
6,46507681136126E-6;
5,36769000170044E-6;
1,8549547786445E-6;
-2,8958005219091E-6;
-6,82642007659711E-6;
-8,31963231831282E-6;
-7,19954802371588E-6;
-4,69107067921321E-6;
-2,42955316879434E-6;
-1,32059401914421E-6;
-1,10336149808763E-6;
-8,58002603284622E-7;
6,07986134119793E-8;
1,47216706727539E-6;
2,62131216908925E-6;
2,94743942655089E-6;
2,64798311499808E-6;
2,51900808418775E-6;
3,19672029603715E-6;
4,46224162214541E-6;
5,24489551661276E-6;
4,38744894615128E-6;
1,59406693422237E-6;
-2,1984757072885E-6;
-5,35038572678308E-6;
-6,57199932111603E-6;
-5,7190695133404E-6;
-3,75950928392673E-6;
-1,98717891477606E-6;
-1,11896722982346E-6;
-9,50320496225607E-7;
-7,56826248716911E-7;
-3,05053553625327E-8;
1,08652469892481E-6;
2,00131741236862E-6;
2,27324793741198E-6;
2,05572649129539E-6;
1,97042731504957E-6;
2,51424096236923E-6;
3,51741117130265E-6;
4,14705996400881E-6;
3,50274969748037E-6;
1,35191805225066E-6;
-1,58353584509851E-6;
-4,03776129600581E-6;
-5,01405012364568E-6;
-4,3968121509286E-6;
-2,92489507462577E-6;
-1,58759156982911E-6;
-9,33429718167094E-7;
-8,07891646917949E-7;
-6,60630606797207E-7;
-1,05990372931725E-7;
7,48400078334428E-7;
1,45365180012175E-6;
1,67613025774532E-6;
1,53020213580346E-6;
1,4825652760645E-6;
1,90627927331123E-6;
2,6751477412553E-6;
3,16741296547839E-6;
2,71067896843931E-6;
1,12879091124977E-6;
-1,04661316458993E-6;
-2,88103084911543E-6;
-3,63748064689069E-6;
-3,22613273418016E-6;
-2,18346857277603E-6;
-1,22953555468651E-6;
-7,63964580347879E-7;
-6,76316157416839E-7;
-5,69897273365113E-7;
-1,67042746626405E-7;
4,55032204643762E-7;
9,74530608547014E-7;
1,15222643294113E-6;
1,06817624365087E-6;
1,05260004962163E-6;
1,36947800462504E-6;
1,93088241426037E-6;
2,30078909570892E-6;
2,0074899013832E-6;
9,24686112348564E-7;
-5,8288647668539E-7;
-1,8716228186286E-6;
-2,43270506449885E-6;
-2,19927929364902E-6;
-1,53074655445327E-6;
-9,11376813178551E-7;
-6,10342269350023E-7;
-5,55657604200707E-7;
-4,8497619354588E-7;
-2,15054203989167E-7;
2,03446449097354E-7;
5,59775735541778E-7;
6,97230718251029E-7;
6,66013700180503E-7;
6,77329860853447E-7;
9,00003619068991E-7;
1,27938434100185E-6;
1,54125551173646E-6;
1,38879562600767E-6;
7,39362209245686E-7;
-1,87228624293005E-7;
-1,00020933560554E-6;
-1,38920708181505E-6;
-1,30768697577066E-6;
-9,61710355390659E-7;
-6,3119052337329E-7;
-4,72164861668128E-7;
-4,45837106174168E-7;
-4,0609676597195E-7;
-2,51403140749372E-7;
-9,47620088425468E-9;
2,04943149383199E-7;
3,06531536554105E-7;
3,19805078901733E-7;
3,53286922114294E-7;
4,93679838038997E-7;
7,14952187337251E-7;
8,82319831622989E-7;
8,49728387124261E-7;
5,72377627326652E-7;
1,4566372673331E-7;
-2,56963708133343E-7;
-4,95835921588221E-7;
-5,42226718522996E-7;
-4,70949543149481E-7;
-3,86824126918692E-7;
-3,48892984173744E-7;
-3,46651738591185E-7;
-3,33383849380313E-7;
-2,77430329217442E-7;
-1,86921224743254E-7;
-9,45639141340591E-8;
-2,46688223851888E-8;
2,54607340853005E-8;
7,68262648497708E-8;
1,46101048375604E-7;
2,31562485125568E-7;
3,17109368347148E-7;
3,85087082792749E-7;
4,23127908594185E-7;
4,21163391244251E-7;
3,68209906934008E-7;
2,58919159317079E-7;
1,06562057417602E-7;
-5,28184008677619E-8;
-1,75980004028403E-7;
-2,39875414579647E-7;
-2,57790494657574E-7;
-2,66870280409064E-7;
-2,94421398512019E-7;
-3,32080929100635E-7;
-3,43408449036781E-7;
-3,01253676552016E-7;
-2,21192927257879E-7;
-1,55791547015588E-7;
-1,47265846954498E-7;
-1,76991987104769E-7;
-1,6147266021285E-7;
-1,0543114268803E-8;
2,90866232643539E-7;
6,44618528959712E-7;
8,85485211392162E-7;
8,86705102426478E-7;
6,48286306348911E-7;
2,98454659972154E-7;
3,7475542605343E-9;
-1,44371745376279E-7;
-1,78860148379304E-7;
-2,06506538605542E-7;
-3,03599585209675E-7;
-4,48110166387599E-7;
-5,46236206371752E-7;
-5,28110756483568E-7;
-4,24348733966252E-7;
-3,48333685153689E-7;
-3,90998208933617E-7;
-5,16981484874507E-7;
-5,60600757308589E-7;
-3,42666919262265E-7;
1,74747547109816E-7;
8,21278554027616E-7;
1,30495325103702E-6;
1,39911446807694E-6;
1,09253809109219E-6;
5,88662775441876E-7;
1,54808507303763E-7;
-6,15784817053359E-8;
-1,09398551094436E-7;
-1,52175504764801E-7;
-3,06113969521443E-7;
-5,38080104070602E-7;
-7,07608497793698E-7;
-7,10054673897762E-7;
-5,88144466816034E-7;
-5,04529359687888E-7;
-5,89636974401151E-7;
-7,9463720466863E-7;
-8,87426994494311E-7;
-6,16805783181839E-7;
7,38432519301619E-8;
9,56228052612797E-7;
1,63648891507965E-6;
1,80752670955842E-6;
1,44875444025018E-6;
8,23536469242588E-7;
2,79663082698069E-7;
9,35263746285808E-9;
-4,8890525843621E-8;
-1,03703154048602E-7;
-3,03031105746923E-7;
-6,04948184823189E-7;
-8,31953208146857E-7;
-8,51770469121081E-7;
-7,16617727332499E-7;
-6,28032573597763E-7;
-7,47642895118872E-7;
-1,01607532429523E-6;
-1,14896970620925E-6;
-8,38401800697847E-7;
-1,28282801679986E-8;
1,05433763096282E-6;
1,88963475255605E-6;
2,12297574319311E-6;
1,72610956803162E-6;
1,00866542170438E-6;
3,80746649947637E-7;
6,92978238193301E-8;
3,21461352084881E-9;
-6,08634390765931E-8;
-2,95332960787148E-7;
-6,51531046207378E-7;
-9,23515901208961E-7;
-9,57766751589417E-7;
-8,13661488045314E-7;
-7,22371737118853E-7;
-8,69331244448346E-7;
-1,18722548889042E-6;
-1,35204443717924E-6;
-1,01276440896664E-6;
-8,6285260992592E-8;
1,12022929108564E-6;
2,07352253699794E-6;
2,35604620761658E-6;
1,93342214961209E-6;
1,14944797499509E-6;
4,60433795868249E-7;
1,19141417947115E-7;
4,74963575534278E-8;
-2,3395955515992E-8;
-2,83916634137461E-7;
-6,80485766911119E-7;
-9,86330509008113E-7;
-1,032338289157E-6;
-8,82991635719165E-7;
-7,9092233688945E-7;
-9,58837583163059E-7;
-1,31377043881203E-6;
-1,50319459225788E-6;
-1,14501616451019E-6;
-1,47564999636182E-7;
1,1582465179866E-6;
2,19680644862648E-6;
2,51679502973603E-6;
2,07909408628596E-6;
1,2510444771993E-6;
5,21019643879725E-7;
1,59768516453233E-7;
8,45468502593163E-8;
8,99324089118886E-9;
-2,69589341277282E-7;
-6,94296825502696E-7;
-1,02419365703162E-6;
-1,0795358469758E-6;
-9,28121140922224E-7;
-8,36887627837982E-7;
-1,02009275367416E-6;
-1,40111863319275E-6;
-1,60864819154869E-6;
-1,24004449976512E-6;
-1,97703566535479E-7;
1,17243115485598E-6;
2,26760728632292E-6;
2,61468621804736E-6;
2,17104240064427E-6;
1,31833820970357E-6;
5,64701601699297E-7;
1,92049193645664E-7;
1,14964786627662E-7;
3,66184034467264E-8;
-2,53073256925956E-7;
-6,95264155027006E-7;
-1,04064736992212E-6;
-1,10315035972751E-6;
-9,5234133107954E-7;
-8,63274468209411E-7;
-1,05679393640828E-6;
-1,45435683569227E-6;
-1,67427822567437E-6;
-1,30247829333877E-6;
-2,37722723740212E-7;
1,1665179156399E-6;
2,2934893435099E-6;
2,6585559514932E-6;
2,21667821175404E-6;
1,35591395406096E-6;
5,93559402084825E-7;
2,16830813317274E-7;
1,39343130189814E-7;
5,9809915222983E-8;
-2,35007883362322E-7;
-6,85504078573961E-7;
-1,03896691166896E-6;
-1,10669745724695E-6;
-9,58714299612029E-7;
-8,72881433667855E-7;
-1,07239068198488E-6;
-1,47823937620856E-6;
-1,70556733666631E-6;
-1,33666123821249E-6;
-2,68628902240014E-7;
1,14392632960079E-6;
2,28143471388695E-6;
2,65658368695594E-6;
2,22287498367201E-6;
1,36803899116449E-6;
6,09551890646284E-7;
2,34933988534762E-7;
1,58267590708929E-7;
7,89090537259031E-8;
-2,15950393789324E-7;
-6,66942834276096E-7;
-1,02215910101356E-6;
-1,09341137470702E-6;
-9,50058021144908E-7;
-8,68299258911113E-7;
-1,0700793186792E-6;
-1,47717102918162E-6;
-1,70761374030957E-6;
-1,34663906868482E-6;
-2,9138962144087E-7;
1,10775986248468E-6;
2,23783875971688E-6;
2,61628023701033E-6;
2,19595577627601E-6;
1,35865505579481E-6;
6,14503623393573E-7;
2,4713747069407E-7;
1,72305117073915E-7;
9,42578747685562E-8;
-1,96383276862985E-7;
-6,41320971927528E-7;
-9,92960369591981E-7;
-1,06624327741232E-6;
-9,28954523516888E-7;
-8,51901544092278E-7;
-1,05279163997558E-6;
-1,45519713531355E-6;
-1,68509891070701E-6;
-1,33614571699813E-6;
-3,06932499515753E-7;
1,0608147317094E-6;
2,16851090396984E-6;
2,54448711184621E-6;
2,14169412255064E-6;
1,33137330009329E-6;
6,10102650174025E-7;
2,54181603979064E-7;
1,82000630755442E-7;
1,06198799787807E-7;
-1,76715984902255E-7;
-6,10199673441459E-7;
-9,53841553701497E-7;
-1,02786437319534E-6;
-8,97742279998659E-7;
-8,25845454076089E-7;
-1,02320184742726E-6;
-1,41601169590326E-6;
-1,64230264162919E-6;
-1,30860544340396E-6;
-3,16141073322938E-7;
1,00558685416771E-6;
2,07868941921422E-6;
2,44739082534878E-6;
2,06532303701795E-6;
1,28947705971442E-6;
5,97895171268461E-7;
2,5676271386365E-7;
1,87879521203188E-7;
1,15066819864674E-7;
-1,57296101179168E-7;
-5,74960034766906E-7;
-9,07011037163942E-7;
-9,80675468902755E-7;
-8,58525673727021E-7;
-7,92077161238572E-7;
-9,83727210739287E-7;
-1,36295415839129E-6;
-1,58310114103792E-6;
-1,26713492691095E-6;
-3,19848525307381E-7;
9,44283441078868E-7;
1,97304995185875E-6;
2,3305314633674E-6;
1,97153935632301E-6;
1,2359278359759E-6;
5,79297668110214E-7;
2,55529591000973E-7;
1,90431722996075E-7;
1,21191388501099E-7;
-1,3840373091455E-7;
-5,36821299266359E-7;
-8,54432411006345E-7;
-9,26810398137947E-7;
-8,1318283283761E-7;
-7,5233836289271E-7;
-9,36534010621537E-7;
-1,29902560719357E-6;
-1,51097882030135E-6;
-1,2145426727136E-6;
-3,18834976122349E-7;
8,78836316460284E-7;
1,85573763927423E-6;
2,19883530464272E-6;
1,86452804362736E-6;
1,17337226475782E-6;
5,55583604982446E-7;
2,51080797321375E-7;
1,90121370851366E-7;
1,24887662992657E-7;
-1,20269572361006E-7;
-4,96842613967736E-7;
-7,97829662169555E-7;
-8,68156620760587E-7;
-7,63377656264806E-7;
-7,0817488727135E-7;
-8,83547767717988E-7;
-1,22689160890736E-6;
-1,4290429559423E-6;
-1,15334884186125E-6;
-3,13821941519614E-7;
8,10923457457541E-7;
1,73038886510443E-6;
2,0566396239049E-6;
1,74798879205611E-6;
1,104163063082E-6;
5,27897489539941E-7;
2,43969186028365E-7;
1,87379748614864E-7;
1,26457781187897E-7;
-1,03068778744532E-7;
-4,55937186328016E-7;
-7,38702625814598E-7;
-8,06355413342243E-7;
-7,10562688201068E-7;
-6,60944116219848E-7;
-8,26469582222365E-7;
-1,14891090191648E-6;
-1,34003522367338E-6;
-1,08578470593194E-6;
-3,05477756016341E-7;
7,41979180749472E-7;
1,60016262742594E-6;
1,90772679716289E-6;
1,62515140263982E-6;
1,03036423184125E-6;
4,9725971208787E-7;
2,34696308830927E-7;
1,8260645264432E-7;
1,26189140513078E-7;
-8,69363802630148E-8;
-4,14879339550987E-7;
-6,78342568049106E-7;
-7,42831138891415E-7;
-6,55999272369941E-7;
-6,11828099185429E-7;
-7,66778957942832E-7;
-1,06713773152692E-6;
-1,24636090174912E-6;
-1,01382096219332E-6;
-2,94412108006267E-7;
6,73218817550863E-7;
1,46777164403024E-6;
1,75536131984491E-6;
1,49881603375624E-6;
9,53769479639123E-7;
4,64562909730239E-7;
2,23716363945586E-7;
1,76165959418655E-7;
1,24346809129584E-7;
-7,19645681334083E-8;
-3,74317304236975E-7;
-6,17847949531026E-7;
-6,78799086816697E-7;
-6,00771665597587E-7;
-5,61844471393925E-7;
-7,05755068096572E-7;
-9,83353448866113E-7;
-1,15009923133734E-6;
-9,39167229599183E-7;
-2,81177991758664E-7;
6,05652005745188E-7;
1,33551448177329E-6;
1,60232120305028E-6;
1,3713751999417E-6;
8,7592844536716E-7;
4,30593142418148E-7;
2,11436658258617E-7;
1,68393835458438E-7;
1,21185123842058E-7;
-5,82126534657678E-8;
-3,34785179967214E-7;
-5,58136673655239E-7;
-6,15281599210151E-7;
-5,45789777449606E-7;
-5,11856263535041E-7;
-6,44489946147925E-7;
-8,99078010947166E-7;
-1,05303614709333E-6;
-8,63302022846327E-7;
-2,6627478000965E-7;
5,4010153191706E-7;
1,20531158904827E-6;
1,45094450241849E-6;
1,24485092847134E-6;
7,98152945129497E-7;
3,96024600386751E-7;
1,98220772728463E-7;
1,59588669647085E-7;
1,16931028749922E-7;
-4,57108736881135E-8;
-2,96712542061493E-7;
-4,99964920575004E-7;
-5,5312819999118E-7;
-4,91819077502316E-7;
-4,62587480772491E-7;
-5,83900591625281E-7;
-8,15593361766124E-7;
-9,5667496710785E-7;
-7,87480863840755E-7;
-2,50148174008706E-7;
4,77226582565831E-7;
1,07874011406698E-6;
1,30316151687848E-6;
1,12091902888214E-6;
7,21544046686501E-7;
3,61436437256034E-7;
1,84387751982765E-7;
1,5002109051167E-7;
1,11800274849709E-7;
-3,44613468972915E-8;
-2,60436087625589E-7;
-4,43943174946863E-7;
-4,93027994825972E-7;
-4,39479733534049E-7;
-4,14633832675757E-7;
-5,24746714960922E-7;
-7,33962392817809E-7;
-8,62270925960426E-7;
-7,12760290874647E-7;
-2,33193004802309E-7;
4,17535880245919E-7;
9,57063818831265E-7;
1,16053607521877E-6;
1,00095022818952E-6;
6,47008661971254E-7;
3,2731285111035E-7;
1,70216190740162E-7;
1,39929324222729E-7;
1,05983565249749E-7;
-2,44475194359288E-8;
-2,26208901210624E-7;
-3,90546891652759E-7;
-4,35526468661989E-7;
-3,89269557018377E-7;
-3,68475118809962E-7;
-4,67644601475399E-7;
-6,55050473003405E-7;
-7,70848820628831E-7;
-6,40011398075548E-7;
-2,15754025386869E-7;
3,61405369528283E-7;
8,4126863481963E-7;
1,02430195863601E-6;
8,86031392769382E-7;
5,75275810124108E-7;
2,9405654869006E-7;
1,55949653894388E-7;
1,29525155608953E-7;
9,9655982082629E-8;
-1,56344796682605E-8;
-1,94212753893291E-7;
-3,40136029395255E-7;
-3,81044096145779E-7;
-3,41574969189046E-7;
-3,24487445371722E-7;
-4,13082566227987E-7;
-5,79545640711642E-7;
-6,83224997461848E-7;
-5,69939326209752E-7;
-1,98134999634599E-7;
3,09094756956181E-7;
7,3209160656601E-7;
8,95398129144033E-7;
7,77003231822059E-7;
5,06918054129275E-7;
2,61991330502622E-7;
1,41789185338707E-7;
1,18989779989037E-7;
9,29731138307709E-8;
-7,9729857878963E-9;
-1,64564092965092E-7;
-2,92968379196558E-7;
-3,2988407715141E-7;
-2,96679591021642E-7;
-2,82955318113775E-7;
-3,61428937801546E-7;
-5,07972409525989E-7;
-6,0003052917958E-7;
-5,0309538391189E-7;
-1,80590179918641E-7;
2,60763180935079E-7;
6,30051638515159E-7;
7,74503602332978E-7;
6,74480180008203E-7;
4,42366070319886E-7;
2,31376527235572E-7;
1,27911149232089E-7;
1,08481671402528E-7;
8,60697858813118E-8;
-1,40291449519921E-9;
-1,37322372233928E-7;
-2,49209247492942E-7;
-2,82256840807123E-7;
-2,54782807417235E-7;
-2,44078668480471E-7;
-3,12955595260346E-7;
-4,40717054195968E-7;
-5,21730175606573E-7;
-4,39901455679452E-7;
-1,63340210961052E-7;
2,16484434983338E-7;
5,35478710183697E-7;
6,62070284012014E-7;
5,78887066633393E-7;
3,81927977920512E-7;
2,0240889027224E-7;
1,14456195368966E-7;
9,81350586978384E-8;
7,90712503614356E-8;
4,14297556107862E-9;
-1,12506673840636E-7;
-2,08947906466168E-7;
-2,38281674264691E-7;
-2,16006942616945E-7;
-2,07990066774753E-7;
-2,67842584575834E-7;
-3,78042844223805E-7;
-4,48648514247144E-7;
-3,80656872037004E-7;
-1,46563145802585E-7;
1,76256221831603E-7;
4,48536720865073E-7;
5,58352804143365E-7;
4,9047788125875E-7;
3,2580215249715E-7;
1,75227896623621E-7;
1,01539210500591E-7;
8,80603009710765E-8;
7,20784150318274E-8;
8,74034890567781E-9;
-9,00881905775025E-8;
-1,72205959974576E-7;
-1,9800685732829E-7;
-1,80405400329575E-7;
-1,74757381656489E-7;
-2,26193724402646E-7;
-3,20102513392911E-7;
-3,8098175063655E-7;
-3,25563795752042E-7;
-1,304108100593E-7;
1,40017390949609E-7;
3,69254932774249E-7;
4,63438683990125E-7;
4,09360046469647E-7;
2,74093517384197E-7;
1,49929520517033E-7;
8,92496628128096E-8;
7,83494667412744E-8;
6,51824146017652E-8;
1,2465815474949E-8;
-7,00130768096482E-8;
-1,38950650075719E-7;
-1,61417837144739E-7;
-1,47983276009132E-7;
-1,44398809431394E-7;
-1,88044491249261E-7;
-2,66958324643362E-7;
-3,18815149921566E-7;
-2,74727062681074E-7;
-1,14996826696336E-7;
1,07658139471916E-7;
2,97540543882946E-7;
3,77272736291997E-7;
3,35521630298986E-7;
2,26827429785245E-7;
1,26568650998542E-7;
7,76577119979474E-8;
6,90760684824115E-8;
5,84576043905724E-8;
1,53964340369994E-8;
-5,219894967991E-8;
-1,09100645505922E-7;
-1,28448411387398E-7;
-1,18692333792152E-7;
-1,16884075391055E-7;
-1,53375485541025E-7;
-2,18593416360673E-7;
-2,62145895679614E-7;
-2,28178442542978E-7;
-1,00414228625781E-7;
7,90235572078918E-8;
2,33209469644983E-7;
2,99679686829336E-7;
2,6884293034483E-7;
1,8396118398158E-7;
1,05161271203778E-7;
6,68090917053945E-8;
6,02936285398046E-8;
5,19650729175172E-8;
1,7613481117647E-8;
-3,65403802962614E-8;
-8,25392828822899E-8;
-9,89907142932106E-8;
-9,24505750892641E-8;
-9,21516397943069E-8;
-1,22120896242573E-7;
-1,7492653829514E-7;
-2,1089303826985E-7;
-1,85884780862208E-7;
-8,6727113357181E-8;
5,39334185713033E-8;
1,75996147132343E-7;
2,30390583043729E-7;
2,09125171891967E-7;
1,45395784763948E-7;
8,56953571145081E-8;
5,6736275101086E-8;
5,20456650450944E-8;
4,57570170936877E-8;
1,91958580073013E-8;
-2,29186369915456E-8;
-5,91186191481009E-8;
-7,2902146509276E-8;
-6,91424301878295E-8;
-7,01045181220886E-8;
-9,41773857153458E-8;
-1,35821043105567E-7;
-1,649074741134E-7;
-1,47756066848244E-7;
-7,39792157691671E-8;
3,21774789415052E-8;
1,25570841013156E-7;
1,69056685865952E-7;
1,56098953458546E-7;
1,10987928565316E-7;
6,81332732828357E-8;
4,74560664793461E-8;
4,43610425327712E-8;
3,98699514046254E-8;
2,0216756513256E-8;
-1,1205165198681E-8;
-3,86729569619153E-8;
-5,00156912759364E-8;
-4,86305779226176E-8;
-5,06284791967821E-8;
-6,940743095044E-8;
-1,01096730561634E-7;
-1,23995900671011E-7;
-1,1366194855443E-7;
-6,21964831486654E-8;
1,35378141636536E-8;
8,15683911593698E-8;
1,15274757521449E-7;
1,09440742594061E-7;
8,05558702156196E-8;
5,24180629445878E-8;
3,89683383928622E-8;
3,72528112692145E-8;
3,43350788635738E-8;
2,07514520759188E-8;
-1,26113940934217E-9;
-2,10140519076845E-8;
-3,01413550341971E-8;
-3,07561915281879E-8;
-3,35850906333702E-8;
-4,76546399839119E-8;
-7,05424134623875E-8;
-8,79200366658136E-8;
-8,34350888710267E-8;
-5,13882582618997E-8;
-2,22286384838575E-9;
4,35781241748662E-8;
6,85925627540257E-8;
6,87904647340816E-8;
5,3894559910828E-8;
3,84746097883805E-8;
3,12675073789201E-8;
3,07315311637199E-8;
2,91715982319167E-8;
2,08667648500942E-8;
7,05494736911748E-9;
-5,94739369794455E-9;
-1,30798118164726E-8;
-1,53504459366359E-8;
-1,88265402644747E-8;
-2,87410693257498E-8;
-4,39197046093279E-8;
-5,64132340392192E-8;
-5,68787243927903E-8;
-4,15474284383059E-8;
-1,5339819868877E-8;
1,11766401528261E-8;
2,85327664177011E-8;
3,37561686107395E-8;
3,07725834178083E-8;
2,62157731610513E-8;
2,43344200790064E-8;
2,47911229539012E-8;
2,43926786807079E-8;
2,06311415255591E-8;
1,38873401099987E-8;
6,73199664990688E-9;
1,3814961305634E-9;
-2,23668487018626E-9;
-6,19445074728103E-9;
-1,24778325466744E-8;
-2,09750227277377E-8;
-2,91856251805617E-8;
-3,377688152367E-8;
-3,26570310586289E-8;
-2,60540117303914E-8;
-1,60802343023599E-8;
-5,40325692150035E-9;
3,93435953117721E-9;
1,09508957947332E-8;
1,5544438924405E-8;
1,81447750190414E-8;
1,94251785523012E-8;
2,00028860628331E-8;
2,00994147398857E-8;
1,93760972805069E-8;
1,72258675660961E-8;
1,3452942775812E-8;
8,76944408343988E-9;
4,47313065613677E-9;
1,32820604042942E-9;
-1,4392595111053E-9;
-5,93265073733501E-9;
-1,39026335670715E-8;
-2,46900687495664E-8;
-3,45976787698007E-8;
-3,86324114103679E-8;
-3,37222141404805E-8;
-2,10945095596951E-8;
-5,82285310792868E-9;
6,35516100113563E-9;
1,26667773991287E-8;
1,46167236106908E-8;
1,60018386193462E-8;
1,93291637503096E-8;
2,3661450755779E-8;
2,57389525899893E-8;
2,33502221500444E-8;
1,78508821036031E-8;
1,33406678797068E-8;
1,28789457350081E-8;
1,49593342548619E-8;
1,36543514120761E-8;
2,98377579136508E-9;
-1,76121514591909E-8;
-4,12042056869661E-8;
-5,69184021694371E-8;
-5,69262046063971E-8;
-4,17476673864124E-8;
-1,97997300192581E-8;
-1,45624060962668E-9;
7,86568019855249E-9;
1,03450640999397E-8;
1,2387523241517E-8;
1,8371225521394E-8;
2,68746820285867E-8;
3,2470363189561E-8;
3,12836114646103E-8;
2,51886239161447E-8;
2,05741145871124E-8;
2,23739138567257E-8;
2,849278826402E-8;
2,98896222642956E-8;
1,71232031227656E-8;
-1,1380735130095E-8;
-4,60910074148466E-8;
-7,13713417456811E-8;
-7,5514385914443E-8;
-5,84372205927234E-8;
-3,12327965097022E-8;
-8,00256892141355E-9;
3,69950667225825E-9;
6,58453081390619E-9;
9,14670074948955E-9;
1,72708931901247E-8;
2,9149244994835E-8;
3,76124916748768E-8;
3,74557502417508E-8;
3,09605120842658E-8;
2,63331710152784E-8;
3,0008727285513E-8;
3,94324905249258E-8;
4,30821812703281E-8;
2,8756297569908E-8;
-5,94932816122973E-9;
-4,94697421911282E-8;
-8,24049812627111E-8;
-8,99698726672241E-8;
-7,15697156642461E-8;
-4,03705616618008E-8;
-1,33938608154819E-8;
1,28841560491832E-10;
3,31049130733016E-9;
6,26826219981666E-9;
1,60662690321547E-8;
3,06012437134102E-8;
4,13518345076069E-8;
4,2068443826847E-8;
3,53368908377869E-8;
3,07730446663721E-8;
3,59758265382042E-8;
4,80396286810859E-8;
5,35351843895874E-8;
3,81225787917496E-8;
-1,26954088056188E-9;
-5,15394420465143E-8;
-9,04186101715303E-8;
-1,0075483135204E-7;
-8,15293100424361E-8;
-4,74527854930726E-8;
-1,77383411379298E-8;
-2,89127523216738E-9;
4,89783025347626E-10;
3,73537381685903E-9;
1,47939761698627E-8;
3,13464136350569E-8;
4,38608235839994E-8;
4,5305804673294E-8;
3,84840402214707E-8;
3,40471372464769E-8;
4,04593026239866E-8;
5,45685163695074E-8;
6,15428421988536E-8;
4,54531468404556E-8;
2,71298554273071E-9;
-5,2484160563117E-8;
-9,57908407327657E-8;
-1,0831340993535E-7;
-8,86917612850419E-8;
-5,27106514650721E-8;
-2,11395597316647E-8;
-5,40489421705709E-9;
-1,90843598184624E-9;
1,53185556787023E-9;
1,34856505351831E-8;
3,1490729340914E-8;
4,53074606127673E-8;
4,73479355386343E-8;
4,05547222554426E-8;
3,62939578294639E-8;
4,36357294281964E-8;
5,92642174569289E-8;
6,73847733980982E-8;
5,09712192800805E-8;
6,05119801690222E-9;
-5,2475634486134E-8;
-9,88714870726622E-8;
-1,1306008446918E-7;
-9,34059677467716E-8;
-5,63629766624889E-8;
-2,3703962869995E-8;
-7,45573187036712E-9;
-3,91541930154183E-9;
-3,64364917983272E-10;
1,21680420334137E-8;
3,11314457534699E-8;
4,58427970598125E-8;
4,83582821395907E-8;
4,16940858661832E-8;
3,76498689589739E-8;
4,56698099533032E-8;
6,23525732713385E-8;
7,13277802349394E-8;
5,48901604349875E-8;
8,79898109396626E-9;
-5,16718169717693E-8;
-9,99940082118852E-8;
-1,15386489933331E-7;
-9,60040110009351E-8;
-5,86189512931386E-8;
-2,55278647456775E-8;
-9,08876922497479E-9;
-5,56446516693805E-9;
-1,97244554147846E-9;
1,08628488622736E-8;
3,03560375120821E-8;
4,56083755668895E-8;
4,84916715031552E-8;
4,20392472394078E-8;
3,82409221720807E-8;
4,67188033838536E-8;
6,40523484484274E-8;
7,36221540995833E-8;
5,7409704690518E-8;
1,10092411306551E-8;
-5,02176898812621E-8;
-9,94630219207764E-8;
-1,15653257619703E-7;
-9,67920199391612E-8;
-5,9671041842491E-8;
-2,67023788914215E-8;
-1,03461551794195E-8;
-6,88801746076831E-9;
-3,31430185911733E-9;
9,58826949896279E-9;
2,92473673766099E-8;
4,47368960869791E-8;
4,78905794139775E-8;
4,17128314938091E-8;
3,81804368516759E-8;
4,69264246568501E-8;
6,45602875726546E-8;
7,4499313389156E-8;
5,87189784400119E-8;
1,27339871208892E-8;
-4,82410163186727E-8;
-9,75559736334872E-8;
-1,14191765355774E-7;
-9,60503716521935E-8;
-5,96991305371545E-8;
-2,73164179551768E-8;
-1,12667006262482E-8;
-7,91686692254588E-9;
-4,41291853257045E-9;
8,36151324111762E-9;
2,7875923553899E-8;
4,33429380689768E-8;
4,66837700684979E-8;
4,08301177995888E-8;
3,75762865882E-8;
4,64266748055151E-8;
6,40659025898238E-8;
7,4177150026275E-8;
5,89937666071768E-8;
1,4026628911757E-8;
-4,58588960406631E-8;
-9,45256383978235E-8;
-1,11306850415133E-7;
-9,40428500712655E-8;
-5,88667909147489E-8;
-2,74490032698938E-8;
-1,18930510166972E-8;
-8,68321375875507E-9;
-5,28838401962926E-9;
7,19374124905636E-9;
2,63064148521608E-8;
4,15349236335171E-8;
4,49887982918972E-8;
3,94951426041616E-8;
3,65257543919278E-8;
4,53405876127333E-8;
6,27349457977527E-8;
7,28534631075274E-8;
5,83974143654894E-8;
1,49345018828111E-8;
-4,31752927778583E-8;
-9,06021010365512E-8;
-1,07270656822265E-7;
-9,10015050540543E-8;
-5,73277196480443E-8;
-2,71755909664805E-8;
-1,22606560832401E-8;
-9,21692881289867E-9;
-5,96327009830374E-9;
6,09203864319902E-9;
2,4593723569972E-8;
3,9406516438335E-8;
4,29075999102146E-8;
3,77999720656286E-8;
3,51164710670763E-8;
4,37777879234605E-8;
6,07234539448707E-8;
7,07079615868719E-8;
5,70744666173446E-8;
1,55039274666425E-8;
-4,02798486140079E-8;
-8,59897749925603E-8;
-1,02333348419662E-7;
-8,71401462848981E-8;
-5,52165659127671E-8;
-2,65651527829857E-8;
-1,24046360445637E-8;
-9,54589800441984E-9;
-6,45885309789999E-9;
5,06613208192078E-9;
2,27906916978141E-8;
3,70433991585718E-8;
4,0536629101775E-8;
3,58295805677252E-8;
3,34285567163559E-8;
4,18401348827108E-8;
5,81689170411407E-8;
6,79036764124764E-8;
5,51617541085511E-8;
1,57797508321576E-8;
-3,725102474923E-8;
-8,08687182495849E-8;
-9,67099916566226E-8;
-8,26456403309025E-8;
-5,26565113899814E-8;
-2,56800264640667E-8;
-1,23587582315703E-8;
-9,69658095993614E-9;
-6,79442840364268E-9;
4,121085248926E-9;
2,09388798873858E-8;
3,45164541919664E-8;
3,79579291542161E-8;
3,36565440123917E-8;
3,15284507003423E-8;
3,96157360070793E-8;
5,51968665046272E-8;
6,45868549765165E-8;
5,27815558233536E-8;
1,58028271715952E-8;
-3,41579882197796E-8;
-7,53975106887225E-8;
-9,05961020874787E-8;
-7,76864376038119E-8;
-4,97565646531816E-8;
-2,4575699357817E-8;
-1,21513017389304E-8;
-9,69461841355022E-9;
-6,98936976280426E-9;
3,25532810523326E-9;
1,90722957465941E-8;
3,18941695718155E-8;
3,52423087100047E-8;
3,13468955772416E-8;
2,94827224774197E-8;
3,71814739320806E-8;
5,19157791459284E-8;
6,08864995845131E-8;
5,00405895984602E-8;
1,56114241759726E-8;
-3,1057585615334E-8;
-6,97129427003508E-8;
-8,41617318610018E-8;
-7,24125256814504E-8;
-4,6613477791822E-8;
-2,33040479627235E-8;
-1,18114740987886E-8;
-9,56194954831959E-9;
-7,06356927473314E-9;
2,47250605645824E-9;
1,7225207113097E-8;
2,92286729883628E-8;
3,24536180845649E-8;
2,89556853566168E-8;
2,73395296233925E-8;
3,46067512837212E-8;
4,84245707490024E-8;
5,69189607726762E-8;
4,70353369143754E-8;
1,52401579843485E-8;
-2,79988490387779E-8;
-6,39362785660825E-8;
-7,75517791027105E-8;
-6,69488874571304E-8;
-4,33105930217017E-8;
-2,19062802671473E-8;
-1,13637538247477E-8;
-9,32181695130383E-9;
-7,03167010614478E-9;
1,77282292051363E-9;
1,54202843409924E-8;
2,65664156162462E-8;
2,96438457626493E-8;
2,65307539416835E-8;
2,51499467618511E-8;
3,19538980442719E-8;
4,4804337276648E-8;
5,27812240130106E-8;
4,38519851495415E-8;
1,47234585008855E-8;
-2,50196346104604E-8;
-5,81661423009198E-8;
-7,0891667784877E-8;
-6,14052251320637E-8;
-3,99234641655697E-8;
-2,04252432316329E-8;
-1,08297470628503E-8;
-8,99422843538339E-9;
-6,91256061242107E-9;
1,15263295595688E-9;
1,36777864972466E-8;
2,39465686152831E-8;
2,68576588120041E-8;
2,41145574713632E-8;
2,29512451844293E-8;
2,92696507987718E-8;
4,11301242840212E-8;
4,85615326293282E-8;
4,05616709575728E-8;
1,40884171868669E-8;
-2,21543588227995E-8;
-5,24857070864394E-8;
-6,42858973959964E-8;
-5,5876050347711E-8;
-3,6511351228603E-8;
-1,88935670223839E-8;
-1,02317282478634E-8;
-8,5948864506425E-9;
-6,71866472970872E-9;
6,09864777564236E-10;
1,20154224978951E-8;
2,14025533381135E-8;
2,41328905145832E-8;
2,17404419205176E-8;
2,07771283409834E-8;
2,659893056759E-8;
3,74614432782674E-8;
4,43316068577554E-8;
3,7227942014548E-8;
1,33631583083136E-8;
-1,94245607744617E-8;
-4,69640509365164E-8;
-5,78218933752643E-8;
-5,04374925850351E-8;
-3,31284010614172E-8;
-1,73421877444504E-8;
-9,5881741775966E-9;
-8,14123090194417E-9;
-6,46511985261378E-9;
1,41094176972593E-10;
1,04447644669514E-8;
1,89579075349748E-8;
2,14992788221185E-8;
1,94354758367262E-8;
1,86556736267949E-8;
2,3981327268118E-8;
3,38505648896163E-8;
4,01533386439343E-8;
3,39069312902222E-8;
1,25694790178753E-8;
-1,68522862326391E-8;
-4,16561971864299E-8;
-5,15717008327823E-8;
-4,51548125216103E-8;
-2,98180226237665E-8;
-1,57938873143157E-8;
-8,91279495587155E-9;
-7,64811993192988E-9;
-6,16461328059028E-9;
-2,59383812354787E-10;
8,97273310045485E-9;
1,66331758345813E-8;
1,89807101979653E-8;
1,72232825742711E-8;
1,66084933438589E-8;
2,14405284757478E-8;
3,03397141643767E-8;
3,60790631068908E-8;
3,06398154286918E-8;
1,17303171489424E-8;
-1,4448938096629E-8;
-3,6607699562689E-8;
-4,55896790752638E-8;
-4,00770426174996E-8;
-2,66163606204024E-8;
-1,42716427683913E-8;
-8,22202901410568E-9;
-7,12714018393932E-9;
-5,82525615766714E-9;
-5,92596959637624E-10;
7,60878303810413E-9;
1,4443405889088E-8;
1,65941508093761E-8;
1,5119242629976E-8;
1,46532591348771E-8;
1,9004242499212E-8;
2,69622491205096E-8;
3,21484996688778E-8;
2,74660904288901E-8;
1,08618477729869E-8;
-1,22219605208654E-8;
-3,18441825063626E-8;
-3,99204353325117E-8;
-3,52478878329096E-8;
-2,3551701172187E-8;
-1,27923557569229E-8;
-7,52620461498163E-9;
-6,59023174964008E-9;
-5,46183886715097E-9;
-8,67526494935092E-10;
6,35365025985432E-9;
1,23985731786745E-8;
1,43542725112357E-8;
1,31382190299488E-8;
1,28028040239831E-8;
1,66891796445397E-8;
2,37468200786211E-8;
2,83941483554807E-8;
2,44142861443319E-8;
9,98199530085424E-9;
-1,01784445207249E-8;
-2,73949283764109E-8;
-3,45950101644302E-8;
-3,06927192663084E-8;
-2,06447723574864E-8;
-1,13682960955503E-8;
-6,83544625787168E-9;
-6,04735742520342E-9;
-5,07860048317729E-9;
-1,08608957456811E-9;
5,20913402678286E-9;
1,05063832306484E-8;
1,22704863645497E-8;
1,1288379908654E-8;
1,10672868475745E-8;
1,45093291496907E-8;
2,07117881207507E-8;
2,48426284674497E-8;
2,15088484477179E-8;
9,10224741620218E-9;
-8,31830744314982E-9;
-2,32714678667932E-8;
-2,96354078093881E-8;
-2,64346283180346E-8;
-1,7912382879876E-8;
-1,00124955462076E-8;
-6,15778170170651E-9;
-5,5061488680861E-9;
-4,68652802670371E-9;
-1,2542863939252E-9;
4,17274564407772E-9;
8,76843869255408E-9;
1,03481296354732E-8;
9,57425001589827E-9;
9,45358624819511E-9;
1,24737531102368E-8;
1,78705533749403E-8;
2,15103127948494E-8;
1,87660186741036E-8;
8,23726870232011E-9;
-6,63950041604474E-9;
-1,94828117292237E-8;
-2,5052954563692E-8;
-2,24879262455439E-8;
-1,53659900360757E-8;
-8,73269522737226E-9;
-5,50354518775303E-9;
-4,97321892234367E-9;
-4,29013923050674E-9;
-1,37842766979852E-9;
3,24595072490064E-9;
7,18618894457448E-9;
8,5863187704839E-9;
8,00086845684302E-9;
7,9658610113531E-9;
1,05885323907419E-8;
1,52325193022209E-8;
1,84094773323271E-8;
1,61998806729986E-8;
7,39376585270012E-9;
-5,13644627032906E-9;
-1,60271896870842E-8;
-2,08537242484027E-8;
-1,8856528844898E-8;
-1,30099698875176E-8;
-7,53283048498012E-9;
-4,87445293223502E-9;
-4,4553681778932E-9;
-3,89731110901978E-9;
-1,46347186124475E-9;
2,42113430812532E-9;
5,75582009544958E-9;
6,98702640408326E-9;
6,56763581032239E-9;
6,6046978395359E-9;
8,85709088579326E-9;
1,28044817010202E-8;
1,55472196010653E-8;
1,38161933490946E-8;
6,58154234730374E-9;
-3,80343457371963E-9;
-1,29027852669266E-8;
-1,70360212603023E-8;
-1,55439675565188E-8;
-1,08509033895412E-8;
-6,42065571305259E-9;
-4,27712354042546E-9;
-3,95639189883075E-9;
-3,51041419253273E-9;
-1,5117300927446E-9;
1,69663412706185E-9;
4,47555178777338E-9;
5,54733315919299E-9;
5,27263518848076E-9;
5,36875324730801E-9;
7,27863466602925E-9;
1,05854576200884E-8;
1,29261092949687E-8;
1,16208001076311E-8;
5,80475286209263E-9;
-2,63268395423424E-9;
-1,01004478748014E-8;
-1,3594389391724E-8;
-1,25457637527565E-8;
-8,88448469737916E-9;
-5,39459866173991E-9;
-3,7148666255918E-9;
-3,48157571268175E-9;
-3,13600791103979E-9;
-1,53066955895237E-9;
1,06613531636722E-9;
3,33990096870298E-9;
4,26161291257064E-9;
4,11114935422634E-9;
4,25520532172299E-9;
5,85087591149928E-9;
8,57370361677947E-9;
1,05426614492319E-8;
9,61335058823794E-9;
5,06960025672314E-9;
-1,61585033870635E-9;
-7,60783145110472E-9;
-1,05161976851739E-8;
-9,85332872685837E-9;
-7,10817524050468E-9;
-4,45727955258941E-9;
-3,18860592328318E-9;
-3,03229005309722E-9;
-2,77729070963934E-9;
-1,52441618676807E-9;
5,21830215925793E-10;
2,33994079326144E-9;
3,12338160498091E-9;
3,07949109430792E-9;
3,26248338035895E-9;
4,57120254945551E-9;
6,76506345427242E-9;
8,3950343631193E-9;
7,79354239221814E-9;
4,38114717399885E-9;
-7,41862164828128E-10;
-5,41274132538888E-9;
-7,78570077041893E-9;
-7,4553085284951E-9;
-5,5175340987825E-9;
-3,60551060183203E-9;
-2,70014785098688E-9;
-2,61113817081312E-9;
-2,43389368626685E-9;
-1,49411983439444E-9;
6,0153066286662E-11;
1,47081699534557E-9;
2,12591391750079E-9;
2,16887001773004E-9;
2,38203483232497E-9;
3,43251031804229E-9;
5,15159077797679E-9;
6,47372498672183E-9;
6,15428655080723E-9;
3,73801972348465E-9;
-1,35010920802096E-12;
-3,49842044421493E-9;
-5,38953305819867E-9;
-5,34028361599362E-9;
-4,10580285952721E-9;
-2,84112745190003E-9;
-2,2519038832783E-9;
-2,21891429115212E-9;
-2,11151137697478E-9;
-1,44829396267527E-9;
-3,25117779251643E-10;
7,22278316137767E-10;
1,25973991306336E-9;
1,37737524294009E-9;
1,61054741591039E-9;
2,42921904992178E-9;
3,72593102192586E-9;
4,76885555658342E-9;
4,69135502546012E-9;
3,14424421870693E-9;
6,16420850161171E-10;
-1,84474508533344E-9;
-3,30377904955519E-9;
-3,49191628602519E-9;
-2,86415640019051E-9;
-2,1584609754608E-9;
-1,84227984975355E-9;
-1,85744716416604E-9;
-1,80787654567593E-9;
-1,38497052505103E-9;
-6,42436793950408E-10;
8,53202813868546E-11;
5,17609687440902E-10;
6,95398420710136E-10;
9,41556589806789E-10;
1,552702594298E-9;
2,47772374740125E-9;
3,27341831415351E-9;
3,39728458962271E-9;
2,6002149925718E-9;
1,12407014151937E-9;
-4,35767416824938E-10;
-1,5120807365425E-9;
-1,89478679829012E-9;
-1,78088452551028E-9;
-1,55264755083689E-9;
-1,47126878941883E-9;
-1,52747253268594E-9;
-1,527704855494E-9;
-1,31181077676009E-9;
-8,98736641131307E-10;
-4,4796868582427E-10;
-1,10310427644845E-10;
1,12592688573602E-10;
3,67537208011162E-10;
7,97314011224024E-10;
1,39465138966926E-9;
1,9711556235912E-9;
2,26238272516328E-9;
2,10340815254428E-9;
1,53062826645333E-9;
7,4929596387741E-10;
9,80218074804042E-12;
-5,28296588508111E-10;
-8,47896361628501E-10;
-1,02332950124824E-9;
-1,13806380908592E-9;
-1,22577002749426E-9;
-1,26821760912033E-9;
-1,2315605883701E-9;
-1,09811534275937E-9;
-8,86374624492703E-10;
-6,35304184373384E-10;
-3,74950944748154E-10;
-1,18059993314661E-10;
1,5044675016419E-10;
4,66936153303341E-10;
8,51841581419496E-10;
1,27861107042383E-9;
1,65564537544275E-9;
1,8446366059335E-9;
1,7281115146001E-9;
1,2840021389434E-9;
6,23689445931796E-10;
-5,32660087673098E-11;
-5,64170701065047E-10;
-8,40404410124765E-10;
-9,542937119482E-10;
-1,03259245132746E-9;
-1,14273033185824E-9;
-1,2467302431229E-9;
-1,24041024732769E-9;
-1,0634762195471E-9;
-7,77546534143618E-10;
-5,23895342680283E-10;
-3,92343984266788E-10;
-3,16284769185386E-10;
-9,94257973308303E-11;
4,33296971273296E-10;
1,25489034563111E-9;
2,08103433122701E-9;
2,52133796657312E-9;
2,32946780828491E-9;
1,57737107289698E-9;
6,13362719285139E-10;
-1,69262529420855E-10;
-5,7840419336265E-10;
-7,12167140496192E-10;
-8,17685607253207E-10;
-1,05241038989589E-9;
-1,35392484984071E-9;
-1,51718290851896E-9;
-1,40696037162621E-9;
-1,10480898715879E-9;
-8,55845052769984E-10;
-8,4115384499263E-10;
-9,69077409415506E-10;
-8,95926703343869E-10;
-2,82149883846089E-10;
8,98638945839412E-10;
2,2461363542949E-9;
3,1476202718278E-9;
3,17217946510692E-9;
2,3545888659357E-9;
1,16327729261552E-9;
1,64739372485629E-10;
-3,49688751135159E-10;
-4,9788805384976E-10;
-6,24165962892993E-10;
-9,58469832612174E-10;
-1,42134305930434E-9;
-1,72667928217084E-9;
-1,67221463055554E-9;
-1,35996312015412E-9;
-1,12137031652595E-9;
-1,20466885800067E-9;
-1,50211112311487E-9;
-1,5519421234029E-9;
-8,78147287555417E-10;
5,85285353850766E-10;
2,35007065678499E-9;
3,62601519047269E-9;
3,82971076070364E-9;
2,97092295183895E-9;
1,60765430750145E-9;
4,42275514409115E-10;
-1,5047037104635E-10;
-3,09113634722553E-10;
-4,51891345966714E-10;
-8,65107739434918E-10;
-1,45611336629729E-9;
-1,87441646668252E-9;
-1,87049079286979E-9;
-1,55568844039694E-9;
-1,32756469771941E-9;
-1,49364681549189E-9;
-1,92803194575702E-9;
-2,07946083687271E-9;
-1,36763443254152E-9;
3,12959677138489E-10;
2,40091446605372E-9;
3,97141759464592E-9;
4,32632486958745E-9;
3,44430448747241E-9;
1,95674538907992E-9;
6,70355033595098E-10;
1,89442639471929E-11;
-1,46344973392989E-10;
-3,00672868585369E-10;
-7,72720931044794E-10;
-1,4633940612956E-9;
-1,97196678122294E-9;
-2,00786962496223E-9;
-1,69550482719607E-9;
-1,48028374133789E-9;
-1,71279541499322E-9;
-2,25720886700439E-9;
-2,49152374103657E-9;
-1,7583375744805E-9;
7,69696298807141E-11;
2,40651753036948E-9;
4,20216937978152E-9;
4,67659729902518E-9;
3,79016619332399E-9;
2,22189800830483E-9;
8,52425857481588E-10;
1,61954830692875E-10;
-5,4232988901304E-12;
-1,66491545416049E-10;
-6,83595776949125E-10;
-1,44726039647609E-9;
-2,02334041676436E-9;
-2,0952707383873E-9;
-1,788460328586E-9;
-1,58684710179767E-9;
-1,87277408525179E-9;
-2,50117773617529E-9;
-2,80309873747386E-9;
-2,06180754819584E-9;
-1,21893876639506E-10;
2,375426616045E-9;
4,33339669593125E-9;
4,90166256329897E-9;
4,02522587949572E-9;
2,41184957388662E-9;
9,92159488613457E-10;
2,80289089540633E-10;
1,12976501738958E-10;
-5,23247137642758E-11;
-5,97029370105065E-10;
-1,41120639554388E-9;
-2,03585658654182E-9;
-2,13473873000427E-9;
-1,83913871235854E-9;
-1,65245275416363E-9;
-1,97865902415147E-9;
-2,66924520043896E-9;
-3,02362182483833E-9;
-2,28887702169848E-9;
-2,89289765857905E-10;
2,31269698988272E-9;
4,37871792976336E-9;
5,02058202681589E-9;
4,16397116726956E-9;
2,53696727149638E-9;
1,09761725521138E-9;
3,75276315526371E-10;
2,11000535152435E-10;
4,57392825751658E-11;
-5,15750535425703E-10;
-1,35935201247763E-9;
-2,01579888008197E-9;
-2,13769774763111E-9;
-1,8553885798046E-9;
-1,68507596492704E-9;
-2,04105684175573E-9;
-2,77335350620365E-9;
-3,16596580183119E-9;
-2,44677979777672E-9;
-4,27526808216269E-10;
2,22549939549228E-9;
4,35183178020178E-9;
5,045295653246E-9;
4,22060135014731E-9;
2,60447286173848E-9;
1,16867742627384E-9;
4,52227922154993E-10;
2,93238667639558E-10;
1,28247447675244E-10;
-4,38418587827993E-10;
-1,29507747891561E-9;
-1,96967350453489E-9;
-2,10842627674524E-9;
-1,84225205975474E-9;
-1,6878417919555E-9;
-2,06188777763317E-9;
-2,81938400676075E-9;
-3,24059527516815E-9;
-2,54428482737994E-9;
-5,37979811739361E-10;
2,11799640348535E-9;
4,2660950551998E-9;
4,99275310849516E-9;
4,20613865082658E-9;
2,62457927410482E-9;
1,21299593778539E-9;
5,10264691979173E-10;
3,57356008572286E-10;
1,96615420347762E-10;
-3,65987940674321E-10;
-1,22208727329148E-9;
-1,90200525084706E-9;
-2,05295064713887E-9;
-1,80295735134061E-9;
-1,66371175014946E-9;
-2,05026507459416E-9;
-2,81829435987911E-9;
-3,25641032738406E-9;
-2,59081118081126E-9;
-6,23727487288077E-10;
1,9967497548071E-9;
4,13165206353601E-9;
4,87686509430213E-9;
4,13321365819658E-9;
2,60397650689114E-9;
1,2338028387365E-9;
5,51559035523189E-10;
4,06092465153757E-10;
2,52073317316435E-10;
-2,99667690815525E-10;
-1,14247123781977E-9;
-1,81632997189971E-9;
-1,97644514806932E-9;
-1,74431166174579E-9;
-1,6205086432386E-9;
-2,01149851514179E-9;
-2,77737623883578E-9;
-3,22407650468229E-9;
-2,59368037157188E-9;
-6,87987747204339E-10;
1,86605452316225E-9;
3,95793251827295E-9;
4,7079495247684E-9;
4,01288210867565E-9;
2,54864292431542E-9;
1,23373735331529E-9;
5,79746484650158E-10;
4,42461825855205E-10;
2,95231280855542E-10;
-2,39714043648738E-10;
-1,05912663422754E-9;
-1,71893310660276E-9;
-1,88340818829255E-9;
-1,66961071410192E-9;
-1,56141648601388E-9;
-1,9502773381911E-9;
-2,70333054616819E-9;
-3,15145097768502E-9;
-2,55875400181753E-9;
-7,32521512577671E-10;
1,7274835803327E-9;
3,7556035738082E-9;
4,49760984778241E-9;
3,85286477203715E-9;
2,46649870496913E-9;
1,21503912469695E-9;
5,94897322484045E-10;
4,67291842266211E-10;
3,27945106083762E-10;
-1,84234787746536E-10;
-9,72546523140674E-10;
-1,61119359690108E-9;
-1,7780097672694E-9;
-1,58277536569759E-9;
-1,48860988313761E-9;
-1,87053531897926E-9;
-2,60160504935521E-9;
-3,04410137013461E-9;
-2,49402315858988E-9;
-7,61085058724742E-10;
1,58584181105077E-9;
3,52946709091809E-9;
4,25625452335887E-9;
3,66399891206442E-9;
2,36180762164278E-9;
1,18371668043427E-9;
5,99676443543017E-10;
4,81795294471286E-10;
3,52247826756158E-10;
-1,34290787236668E-10;
-8,85631123130734E-10;
-1,49719422551028E-9;
-1,6626820927847E-9;
-1,48630883583427E-9;
-1,40572998716133E-9;
-1,77683348303743E-9;
-2,48000452438022E-9;
-2,91150086654788E-9;
-2,40459926075806E-9;
-7,74775303150357E-10;
1,4429047500767E-9;
3,28932003181547E-9;
3,99325035438724E-9;
3,45177145064752E-9;
2,23956004871569E-9;
1,14010220624437E-9;
5,94855092981728E-10;
4,87375277969671E-10;
3,66438110727395E-10;
-9,14666532507726E-11;
-7,98355996263775E-10;
-1,37911884139128E-9;
-1,54353472179468E-9;
-1,38522232406599E-9;
-1,31611359680372E-9;
-1,67145826473171E-9;
-2,34206573357347E-9;
-2,75952190554202E-9;
-2,29509312918988E-9;
-7,75800114223306E-10;
1,30132298229809E-9;
3,03977682141971E-9;
3,71442586109898E-9;
3,22548126050711E-9;
2,10597101832892E-9;
1,0872840418343E-9;
5,83281224363178E-10;
4,85837888923986E-10;
3,74660259244106E-10;
-5,23637295631974E-11;
-7,14422164350202E-10;
-1,26076794546478E-9;
-1,41903709796624E-9;
-1,27822235338091E-9;
-1,22199970153046E-9;
-1,56011713309157E-9;
-2,19287697027036E-9;
-2,59220641226201E-9;
-2,17052049897682E-9;
-7,65048644655956E-10;
1,16511575265206E-9;
2,78723147855532E-9;
3,42577111829877E-9;
2,98893438009171E-9;
1,96469339356857E-9;
1,0269610948337E-9;
5,65292622697601E-10;
4,77542832392096E-10;
3,75280120374713E-10;
-1,85488510525784E-11;
-6,33846130331245E-10;
-1,14306117897098E-9;
-1,29446911213083E-9;
-1,17187314912638E-9;
-1,12594360501738E-9;
-1,44486807765433E-9;
-2,03722861737251E-9;
-2,4151066227837E-9;
-2,03629830618823E-9;
-7,47505303710662E-10;
1,03167405090043E-9;
2,53536500349243E-9;
3,13649462723424E-9;
2,74672260766797E-9;
1,81669180380533E-9;
9,63186890397319E-10;
5,41919545122498E-10;
4,6421038460172E-10;
3,72548248985691E-10;
1,01882645325847E-11;
-5,55662007281902E-10;
-1,02698460644487E-9;
-1,17214409294968E-9;
-1,06477948465621E-9;
-1,02868552074624E-9;
-1,32716956417252E-9;
-1,87662611425388E-9;
-2,2320705357048E-9;
-1,89482833190156E-9;
-7,21377516803897E-10;
9,05017870261176E-10;
2,28520622210996E-9;
2,84726443050095E-9;
2,50546838203279E-9;
1,66679238367453E-9;
8,95016995553936E-10;
5,15628165942147E-10;
4,47087868672213E-10;
3,64523986870053E-10;
3,45453005950245E-11;
-4,83206233205738E-10;
-9,15414540039034E-10;
-1,05156954036743E-9;
-9,60037318858539E-10;
-9,32307444873461E-10;
-1,20907915918268E-9;
-1,71572636346555E-9;
-2,04681631605945E-9;
-1,74953030434873E-9;
-6,90017038796742E-10;
7,86399998313027E-10;
2,04433690630617E-9;
2,56451931808712E-9;
2,26696242231076E-9;
1,51699525446976E-9;
8,25067148060872E-10;
4,86136190578488E-10;
4,25969882707395E-10;
3,52628691406907E-10;
5,49372129230582E-11;
-4,14276686691651E-10;
-8,08786573742971E-10;
-9,36666968862861E-10;
-8,57642537013289E-10;
-8,38057960287138E-10;
-1,09317775595825E-9;
-1,55561170285849E-9;
-1,86235302249298E-9;
-1,60233936891407E-9;
-6,5406244317531E-10;
6,74457661356771E-10;
1,81213085737728E-9;
2,28985848191782E-9;
2,03449032213238E-9;
1,37032712663849E-9;
7,55275845729167E-10;
4,54337060599066E-10;
4,0220211603338E-10;
3,38276442103461E-10;
7,09254277183261E-11;
-3,50668343843535E-10;
-7,0586354314515E-10;
-8,25904278794796E-10;
-7,60684909493355E-10;
-7,46898990972173E-10;
-9,80625714146093E-10;
-1,40006979825684E-9;
-1,68083146034606E-9;
-1,45616513785671E-9;
-6,138002205295E-10;
5,70695405231452E-10;
1,59032458957985E-9;
2,02725147672395E-9;
1,80956421439807E-9;
1,22724302285727E-9;
6,86870673811843E-10;
4,21487441838285E-10;
3,76873117797635E-10;
3,20906619794606E-10;
8,31523255020755E-11;
-2,92370857172143E-10;
-6,11000502293283E-10;
-7,21084643795442E-10;
-6,67055509312725E-10;
-6,595539916947E-10;
-8,71231921485399E-10;
-1,24854672867357E-9;
-1,50474223435531E-9;
-1,31319111829735E-9;
-5,72794933137043E-10;
4,75721738785625E-10;
1,38367817515058E-9;
1,77883813524615E-9;
1,59653492447603E-9;
1,0901284825902E-9;
6,18526321387563E-10;
3,88123659190413E-10;
3,49993804086992E-10;
3,01783552286102E-10;
9,30241383799954E-11;
-2,39155638569171E-10;
-5,21633561584281E-10;
-6,22253464185611E-10;
-5,80191319980334E-10;
-5,77403414313129E-10;
-7,67459065496017E-10;
-1,10503505986338E-9;
-1,33576420906495E-9;
-1,17368306022279E-9;
-5,29797901498124E-10;
3,89015004215659E-10;
1,18935700707975E-9;
1,54309527117253E-9;
1,39327326417257E-9;
9,58704432874011E-10;
5,51422711039213E-10;
3,53614132134441E-10;
3,22639694721807E-10;
2,81382746016015E-10;
1,00106146559232E-10;
-1,90647613623588E-10;
-4,40719755704578E-10;
-5,30810917211984E-10;
-4,97191358089659E-10;
-4,99365783270471E-10;
-6,68847440246126E-10;
-9,68297273146191E-10;
-1,17586781726333E-9;
-1,04086916833697E-9;
-4,85447372091868E-10;
3,10759458203683E-10;
1,00880414506279E-9;
1,32428089189578E-9;
1,20386062384572E-9;
8,35635392210101E-10;
4,88962949398191E-10;
3,21325210254709E-10;
2,95724753779833E-10;
2,60718181941059E-10;
1,04205221570037E-10;
-1,48316801703122E-10;
-3,65631537072296E-10;
-4,472431800781E-10;
-4,22283175279459E-10;
-4,27351518114621E-10;
-5,78046094292297E-10;
-8,39630179190241E-10;
-1,02365594782953E-9;
-9,15124333838704E-10;
-4,4253629693645E-10;
2,41775737160869E-10;
8,44106806744208E-10;
1,12050783598136E-9;
1,02800127685734E-9;
7,21231820290198E-10;
4,28623938473605E-10;
2,88398648952423E-10;
2,6833522028283E-10;
2,39505968558291E-10;
1,06453829995821E-10;
-1,08681534921193E-10;
-2,95630424828359E-10;
-3,69847265930455E-10;
-3,52963795548836E-10;
-3,60334965934991E-10;
-4,92446634233362E-10;
-7,19794910583875E-10;
-8,8194222416169E-10;
-7,96209077636553E-10;
-3,99788953962037E-10;
1,78961440226531E-10;
6,93575268995846E-10;
9,36011522125429E-10;
8,65372220376001E-10;
6,13812302195619E-10;
3,72063330474548E-10;
2,56184578313886E-10;
2,41590431314887E-10;
2,18494944570832E-10;
1,06796406396312E-10;
-7,59346445807316E-11;
-2,35250047921168E-10;
-2,99358602740238E-10;
-2,89054106215201E-10;
-2,99197530857653E-10;
-4,13894161286383E-10;
-6,08603662589539E-10;
-7,49760397475677E-10;
-6,85076397313613E-10;
-3,58736570279985E-10;
1,23696946324716E-10;
5,57435413228922E-10;
7,67088442680455E-10;
7,16290828381276E-10;
5,14866991210734E-10;
3,19539604959456E-10;
2,26385802565846E-10;
2,15718886368521E-10;
1,96667138661637E-10;
1,04972649618744E-10;
-4,59605964199819E-11;
-1,81186402697546E-10;
-2,37141797683825E-10;
-2,30954708831911E-10;
-2,44070962250223E-10;
-3,42424813146703E-10;
-5,07299778546448E-10;
-6,29850980410291E-10;
-5,82081642134111E-10;
-3,17862014140569E-10;
7,63543815670518E-11;
4,34251475462571E-10;
6,13722815042674E-10;
5,81551775582255E-10;
4,24500631615461E-10;
2,71104685305109E-10;
1,9866252097938E-10;
1,90723234952409E-10;
1,76532156779609E-10;
1,03475709263463E-10;
-2,0239098051866E-11;
-1,31552629087301E-10;
-1,80583866792205E-10;
-1,80415164780601E-10;
-1,93566233065327E-10;
-2,76778532478243E-10;
-4,15205224811741E-10;
-5,19824354493186E-10;
-4,87428054140374E-10;
-2,80176643438871E-10;
3,50888551929747E-11;
3,26666705487971E-10;
4,78380301420884E-10;
4,61077580431795E-10;
3,42528037291165E-10;
2,26429289542475E-10;
1,71949117341807E-10;
1,66775827879845E-10;
1,5716317990057E-10;
9,92677907244915E-11;
1,65516436608088E-12;
-8,84929385344785E-11;
-1,31649956747769E-10;
-1,34908296743844E-10;
-1,4936061426317E-10;
-2,18183066679817E-10;
-3,31359008093957E-10;
-4,1992248049382E-10;
-4,00917702662323E-10;
-2,44178663174448E-10;
6,85493092912263E-13;
2,31892198961972E-10;
3,56925982112303E-10;
3,5298310118873E-10;
2,70478210737715E-10;
1,85338768957286E-10;
1,46495196208194E-10;
1,45568893892571E-10;
1,39106165342362E-10;
9,50779930165066E-11;
1,85566373764214E-11;
-5,29141494411996E-11;
-8,78571419028764E-11;
-9,47494105351997E-11;
-1,10344248080418E-10;
-1,66433537171014E-10;
-2,57415961265223E-10;
-3,29977023769565E-10;
-3,22506290257691E-10;
-2,10635719310741E-10;
-2,78089782540531E-11;
1,47702876231858E-10;
2,48870254007554E-10;
2,5790426185725E-10;
2,05137191918586E-10;
1,47851512667842E-10;
1,23283310226836E-10;
1,24814284855132E-10;
1,20798080632311E-10;
8,83093398942054E-11;
3,35517704992064E-11;
-2,0175116595785E-11;
-5,05260907510861E-11;
-5,97058213699151E-11;
-7,5416994419375E-11;
-1,20339757720328E-10;
-1,9074633739958E-10;
-2,49716697511212E-10;
-2,5238861679568E-10;
-1,79270951265781E-10;
-5,20196491479958E-11;
7,60542030543553E-11;
1,56915423513016E-10;
1,73473470667905E-10;
1,4652126104114E-10;
1,15566317691121E-10;
1,02547397747196E-10;
1,04836074350686E-10;
1,04792191071153E-10;
8,36981882643528E-11;
4,45913012724409E-11;
6,33956592934282E-12;
-1,74820876168171E-11;
-2,89108434826751E-11;
-4,50972373170209E-11;
-8,01212791458191E-11;
-1,32171022469166E-10;
-1,78942508055071E-10;
-1,89341043053778E-10;
-1,49513694656763E-10;
-7,11293925030444E-11;
1,53113077814858E-11;
7,75950024342915E-11;
1,00984966463634E-10;
9,65307336817748E-11;
8,60076235561941E-11;
8,23575050422253E-11;
8,72179050498087E-11;
8,87888827913427E-11;
7,66158388423294E-11;
5,39546150708099E-11;
2,89394611794147E-11;
9,4653209640125E-12;
-3,68947873047295E-12;
-1,80841434473943E-11;
-4,36943451301902E-11;
-8,13314662176133E-11;
-1,17409020171142E-10;
-1,34876208859592E-10;
-1,23391763657976E-10;
-8,58605467913848E-11;
-3,63480278504816E-11;
8,6169090531467E-12;
3,85438340452273E-11;
5,34562280330935E-11;
6,07705671844628E-11;
6,6263314538809E-11;
7,15085827411579E-11;
7,46414325454245E-11;
7,1031254179222E-11;
6,10039126346791E-11;
4,72226708169525E-11;
3,17409856513951E-11;
1,75949580953946E-11;
3,4994135022702E-12;
-1,48367170259221E-11;
-3,80946075359284E-11;
-6,33444892356655E-11;
-8,69878709197388E-11;
-1,00260458818124E-10;
-9,64462065187442E-11;
-7,8559235239514E-11;
-4,93686200073865E-11;
-1,45291816368851E-11;
1,60668954781837E-11;
3,73898554004402E-11;
5,00220791155916E-11;
5,67983329085764E-11;
6,12110064513237E-11;
6,51927727938939E-11;
6,62327612118941E-11;
6,12706969662509E-11;
4,98932393393272E-11;
3,56409427514804E-11;
2,24299997173643E-11;
1,07924138457309E-11;
-8,52669571160676E-13;
-1,79870367221876E-11;
-4,4738202554842E-11;
-7,79268272473257E-11;
-1,05677211227696E-10;
-1,12701717831464E-10;
-9,50578702279839E-11;
-5,87781522648919E-11;
-1,54936955030605E-11;
1,81523272224009E-11;
3,53607358107623E-11;
4,28704888004105E-11;
4,96838571204631E-11;
5,88417031097555E-11;
6,80369353079213E-11;
7,21973734935392E-11;
6,56696827876749E-11;
5,05676512019188E-11;
3,6759134582527E-11;
3,0956340126902E-11;
2,98654973802654E-11;
2,10280135018934E-11;
-8,89002826618377E-12;
-5,86714509074262E-11;
-1,09926163002676E-10;
-1,40246061789484E-10;
-1,34199328593674E-10;
-9,46183575206824E-11;
-4,18122162898632E-11;
1,72218120054361E-12;
2,42761525456022E-11;
3,22294299122938E-11;
3,93165598272563E-11;
5,24078057422726E-11;
7,02546348897091E-11;
8,10446435617518E-11;
7,57817801053857E-11;
6,13348922145455E-11;
4,89838575891796E-11;
4,86684679143363E-11;
5,69673711805805E-11;
5,31664434992847E-11;
2,08581142850875E-11;
-4,11864330012253E-11;
-1,12404110975692E-10;
-1,60021799941853E-10;
-1,63907344569965E-10;
-1,23733711687886E-10;
-6,28688622005596E-11;
-1,29496868661589E-11;
1,38850400751869E-11;
2,2731228139928E-11;
2,90367018543912E-11;
4,63313709128278E-11;
7,05404048046087E-11;
8,69485267996036E-11;
8,48980606695778E-11;
7,01930246120545E-11;
5,89815694172157E-11;
6,26014961717027E-11;
7,74298158882619E-11;
7,99423590729686E-11;
4,60492179107439E-11;
-2,61479275477563E-11;
-1,12737220842723E-10;
-1,75135939426869E-10;
-1,86235448117653E-10;
-1,46326494340719E-10;
-8,0054770544428E-11;
-2,38849438087567E-11;
3,95687991796071E-12;
1,28417960403684E-11;
2,06250484275084E-11;
4,08489076642553E-11;
6,97548454212336E-11;
9,03901592967352E-11;
9,12213365170102E-11;
7,60777859955022E-11;
6,52872137697848E-11;
7,38223952815399E-11;
9,33328428575111E-11;
1,00060068903186E-10;
6,66042346821633E-11;
-1,36634218891838E-11;
-1,10827693378932E-10;
-1,84290827975416E-10;
-2,03302602386698E-10;
-1,62653588542124E-10;
-9,39202731399559E-11;
-3,4266743927735E-11;
-2,32348353725735E-12;
5,75102359947814E-12;
1,2641321013325E-11;
3,52649698991017E-11;
6,76780685214173E-11;
9,14164841637695E-11;
9,44363072474106E-11;
8,08535793079117E-11;
7,07931627886202E-11;
8,11568662421323E-11;
1,05327608610951E-10;
1,1594619991465E-10;
8,24297194243037E-11;
-1,77492347355585E-12;
-1,08333677347833E-10;
-1,90299099028486E-10;
-2,12097065303883E-10;
-1,7369212950546E-10;
-1,03473508451096E-10;
-4,13897677593117E-11;
-1,06464595813567E-11;
-2,04603847935609E-12;
5,97888005903E-12;
3,04308528615726E-11;
6,55118014243811E-11;
9,08667470076208E-11;
9,5296034608104E-11;
8,16815723306169E-11;
7,26999808852703E-11;
8,69551066592376E-11;
1,14901490416957E-10;
1,28389237019003E-10;
9,50436245096171E-11;
7,24633639407025E-12;
-1,042284772923E-10;
-1,9174557697579E-10;
-2,1850889627536E-10;
-1,80795841954197E-10;
-1,0923185284205E-10;
-4,67878784010987E-11;
-1,54507746587651E-11;
-6,74936256769817E-12;
4,65177149931269E-13;
2,43737339275291E-11;
6,17599986055822E-11;
8,98979077236299E-11;
9,42875495278057E-11;
8,23951588553578E-11;
7,56412830990991E-11;
9,03205019396527E-11;
1,20345582811627E-10;
1,35663063675993E-10;
1,03536473218476E-10;
1,60142492862149E-11;
-9,93021754729706E-11;
-1,90456337649305E-10;
-2,19388270517528E-10;
-1,84240156907613E-10;
-1,1348242920657E-10;
-5,06930988674983E-11;
-1,89791456861571E-11;
-1,1281908245785E-11;
-4,13263131263793E-12;
2,11460113294394E-11;
5,7778870198993E-11;
8,69846670918515E-11;
9,41204584147418E-11;
8,2603773140447E-11;
7,54484737367505E-11;
9,11417053207493E-11;
1,23679057497093E-10;
1,41057009917781E-10;
1,09579299848006E-10;
2,24098909860821E-11;
-9,31658894292101E-11;
-1,8726679355839E-10;
-2,17839659683847E-10;
-1,82804576061648E-10;
-1,14959902284487E-10;
-5,34563767231963E-11;
-2,22910886588886E-11;
-1,5407996699933E-11;
-7,4089400660018E-12;
1,75445357264249E-11;
5,45994892334352E-11;
8,45160320943089E-11;
9,12033292384054E-11;
8,03678894676881E-11;
7,45748534568515E-11;
9,14307543110861E-11;
1,24260773570537E-10;
1,4304020323299E-10;
1,13943919200335E-10;
2,64293740700436E-11;
-8,79503392069187E-11;
-1,80458434518141E-10;
-2,14175922542299E-10;
-1,81518588942136E-10;
-1,14421993191585E-10;
-5,48864111724124E-11;
-2,49332052269267E-11;
-1,82384537432732E-11;
-1,15697493175113E-11;
1,2644461198227E-11;
5,03743077446812E-11;
8,02336683337014E-11;
8,79228441770616E-11;
7,78702667322764E-11;
7,23492111249376E-11;
9,02970756786404E-11;
1,23118946867571E-10;
1,4275950424903E-10;
1,15556837102272E-10;
3,07765804848072E-11;
-8,06853118561218E-11;
-1,7281239228534E-10;
-2,07180105319321E-10;
-1,76732525805622E-10;
-1,13053337943087E-10;
-5,55131538997194E-11;
-2,71421922615156E-11;
-2,07344372158373E-11;
-1,29978217713628E-11;
9,82907558121461E-12;
4,60021321982242E-11;
7,63400801546441E-11;
8,35213292226458E-11;
7,42683689470835E-11;
7,00577406148891E-11;
8,71961707313789E-11;
1,20903384570696E-10;
1,40917429963544E-10;
1,14731654140977E-10;
3,4842014034197E-11;
-7,37987602595035E-11;
-1,6424277880015E-10;
-1,97941141362217E-10;
-1,70408679136468E-10;
-1,09764543918966E-10;
-5,48690709316114E-11;
-2,80080475124771E-11;
-2,24387692288084E-11;
-1,61203068709545E-11;
7,00953447947256E-12;
4,26994688870223E-11;
7,0864786227071E-11;
7,87378603081977E-11;
7,09787861217461E-11;
6,68837354832564E-11;
8,38001801731772E-11;
1,1660643194006E-10;
1,36936971341539E-10;
1,12942005040599E-10;
3,68844779667729E-11;
-6,69264638637645E-11;
-1,53720507153996E-10;
-1,86738754215522E-10;
-1,61845182359299E-10;
-1,05354103097411E-10;
-5,42332762344876E-11;
-2,85665477814725E-11;
-2,3251238235511E-11;
-1,768023467886E-11;
4,80514105868132E-12;
3,78322540456207E-11;
6,45683576865795E-11;
7,37687246206623E-11;
6,64337201849768E-11;
6,27074001021455E-11;
7,98120902147116E-11;
1,11773756870408E-10;
1,32729258121651E-10;
1,10583964910405E-10;
3,72446211516222E-11;
-6,13197586534677E-11;
-1,43348622404338E-10;
-1,75287841658921E-10;
-1,52481972316921E-10;
-1,00545927532645E-10;
-5,28099720122091E-11;
-2,77421276820435E-11;
-2,33060806125831E-11;
-1,87825806901028E-11;
2,37655509952386E-12;
3,47508087641759E-11;
6,0869827413886E-11;
6,75908212199277E-11;
6,1190614743083E-11;
5,92319418567215E-11;
7,47756073221219E-11;
1,05637179377178E-10;
1,25346135759286E-10;
1,04736934389353E-10;
3,81137809935142E-11;
-5,43049247578778E-11;
-1,32797429393673E-10;
-1,63366254942415E-10;
-1,42701201308298E-10;
-9,41750016923127E-11;
-5,00580891094945E-11;
-2,83533310146255E-11;
-2,34540973331462E-11;
-1,88439828646121E-11;
-3,1288052432978E-13;
2,99351990471193E-11;
5,48913628144282E-11;
6,23307642764835E-11;
5,67804422078412E-11;
5,5576263885637E-11;
7,08250796730701E-11;
9,92325744855033E-11;
1,18295732972812E-10;
1,00098134183357E-10;
3,8543215327842E-11;
-4,75992798311082E-11;
-1,21752953039345E-10;
-1,51290151487288E-10;
-1,33023400884642E-10;
-8,83487829206214E-11;
-4,78512311191308E-11;
-2,8783796281437E-11;
-2,38793879060927E-11;
-1,90499525465204E-11;
-2,04002475269296E-12;
2,68842303309977E-11;
4,97784861367068E-11;
5,67795416661998E-11;
5,3262710232613E-11;
5,13541961893255E-11;
6,51354147382111E-11;
9,24097119967692E-11;
1,10982512899948E-10;
9,49363514988955E-11;
3,70316523784017E-11;
-4,16204997129592E-11;
