8,18457003729602E-5;
0,000130978027749402;
0,000149959838588071;
0,000137384276236675;
0,000108413732536814;
8,28811439742211E-5;
7,16408318830227E-5;
7,13827951131692E-5;
7,08332093482233E-5;
6,21135862015929E-5;
4,74485958155016E-5;
3,60431101356636E-5;
3,46297401624484E-5;
4,05430719672713E-5;
4,37821524531613E-5;
3,65258235053469E-5;
2,18103744681772E-5;
1,33535501307614E-5;
2,57091157209782E-5;
6,21421021742264E-5;
0,000109988390306736;
0,000147703311787081;
0,000158702369353541;
0,000141756910262611;
0,000110399057432317;
8,23073482559246E-5;
6,71526205095484E-5;
6,199471777483E-5;
5,68128904979187E-5;
4,46120844611114E-5;
2,73787308957768E-5;
1,32951776459074E-5;
8,34023354867574E-6;
1,01467921556346E-5;
9,8426174076781E-6;
4,95229557881608E-7;
-1,52007753696103E-5;
-2,50927393139773E-5;
-1,62999484372883E-5;
1,40548609301044E-5;
5,47540369594328E-5;
8,67365213986967E-5;
9,53411306040531E-5;
7,94845155771732E-5;
5,11177730739869E-5;
2,58410253051869E-5;
1,21765238283595E-5;
7,51917023641926E-6;
3,02572582213749E-6;
-7,47385679213174E-6;
-2,22360951910063E-5;
-3,40666332960802E-5;
-3,77167100058228E-5;
-3,52810847566952E-5;
-3,45696533109629E-5;
-4,16807856462064E-5;
-5,42540010434182E-5;
-6,16304431873511E-5;
-5,25228354514903E-5;
-2,44256969722144E-5;
1,28115136539064E-5;
4,24779433232098E-5;
5,17303382524039E-5;
3,96191777549296E-5;
1,65967468834001E-5;
-3,70361708880558E-6;
-1,38446782599926E-5;
-1,61128966854856E-5;
-1,82369044756963E-5;
-2,56054289274212E-5;
-3,6701550435175E-5;
-4,52593089943008E-5;
-4,67136268635939E-5;
-4,28971481855319E-5;
-4,06133732230262E-5;
-4,51698120119701E-5;
-5,4515008249129E-5;
-5,93893947342581E-5;
-4,99969223175456E-5;
-2,41733106291145E-5;
9,52608225996941E-6;
3,66056482222359E-5;
4,59357021633442E-5;
3,66985211820068E-5;
1,79468533892329E-5;
1,47708632534229E-6;
-6,28248935749903E-6;
-7,31157613017538E-6;
-8,28715755075458E-6;
-1,3859301626005E-5;
-2,27160883996894E-5;
-2,94527629139516E-5;
-3,01360215620681E-5;
-2,63461520805901E-5;
-2,39395991967253E-5;
-2,7479134662411E-5;
-3,51958873474606E-5;
-3,9129852375903E-5;
-3,08693159102272E-5;
-8,5614120480943E-6;
2,04507172087526E-5;
4,37402216425542E-5;
5,17770936034403E-5;
4,38697264954673E-5;
2,77721758934179E-5;
1,3576218849578E-5;
6,77617643411922E-6;
5,68111700170009E-6;
4,59399690100538E-6;
-4,46959927156073E-7;
-8,31798076811566E-6;
-1,44111755401288E-5;
-1,53769739510635E-5;
-1,25597870893534E-5;
-1,09371005712029E-5;
-1,43810894869916E-5;
-2,13840563467947E-5;
-2,51881878421928E-5;
-1,86615920995416E-5;
-2,38393035594312E-7;
2,38594596030617E-5;
4,31165373475608E-5;
4,94794065898093E-5;
4,23714856365873E-5;
2,83468705797496E-5;
1,59237075181959E-5;
9,73420890439635E-6;
8,35268788311722E-6;
6,98372093637686E-6;
2,29776696670863E-6;
-4,75649962478337E-6;
-1,03063026590113E-5;
-1,15406427123355E-5;
-9,58859522355343E-6;
-8,62151494154819E-6;
-1,18791769702182E-5;
-1,80960747107084E-5;
-2,16202668852359E-5;
-1,64961282465565E-5;
-1,42247015012486E-6;
1,84054656992955E-5;
3,42225455871201E-5;
3,93259954256543E-5;
3,32420010416825E-5;
2,14235568019146E-5;
1,09465285329443E-5;
5,65269410073835E-6;
4,35729751533848E-6;
3,08732719298129E-6;
-9,10996601114357E-7;
-6,85088006879774E-6;
-1,15324766357967E-5;
-1,26377801380315E-5;
-1,11007138271852E-5;
-1,0358857356432E-5;
-1,30770370776453E-5;
-1,82120133918722E-5;
-2,11204954167791E-5;
-1,69188009445009E-5;
-4,54723187967506E-6;
1,17325607756116E-5;
2,47464971141788E-5;
2,9018630533356E-5;
2,41673752640682E-5;
1,46445157640421E-5;
6,21565267578276E-6;
2,00475292574756E-6;
1,04536403964194E-6;
1,09960408507248E-7;
-3,03376700823502E-6;
-7,74617491977133E-6;
-1,14372238332459E-5;
-1,22353099165966E-5;
-1,08976239735253E-5;
-1,01978285669209E-5;
-1,22808763202749E-5;
-1,63045830643939E-5;
-1,85370759289665E-5;
-1,50625898318931E-5;
-5,03886072764387E-6;
8,11573466207873E-6;
1,86630348515876E-5;
2,2233709042513E-5;
1,85294138709457E-5;
1,10999374121274E-5;
4,53108361207325E-6;
1,30110753504794E-6;
6,40628058235865E-7;
-6,73918259002993E-9;
-2,40400241460452E-6;
-6,0434427094288E-6;
-8,88247617362059E-6;
-9,44981256531998E-6;
-8,34330902969423E-6;
-7,74024928177272E-6;
-9,31881504623974E-6;
-1,24167516838986E-5;
-1,41186469150168E-5;
-1,13752710362489E-5;
-3,53827804629599E-6;
6,72963764192467E-6;
1,49758130594488E-5;
1,78211224662719E-5;
1,5041939237778E-5;
9,38227858568978E-6;
4,3744793662735E-6;
1,92075812541508E-6;
1,42811753713225E-6;
9,39294175828856E-7;
-8,89981339761251E-7;
-3,66938071721353E-6;
-5,84382794589216E-6;
-6,29818776059944E-6;
-5,48807721206518E-6;
-5,05979808891589E-6;
-6,27621095179861E-6;
-8,63496839103692E-6;
-9,94612308535835E-6;
-7,92992830311513E-6;
-2,10983604894126E-6;
5,52252540574997E-6;
1,1655148646349E-5;
1,37870390422109E-5;
1,17607721057012E-5;
7,60648366614061E-6;
3,92368398268209E-6;
2,1048244844706E-6;
1,71304009556845E-6;
1,3208647090745E-6;
-4,59661071411564E-8;
-2,1010003541964E-6;
-3,71977991415646E-6;
-4,10156115922487E-6;
-3,57644227539193E-6;
-3,3224919701712E-6;
-4,23663300312221E-6;
-5,95764676790663E-6;
-6,93468272150448E-6;
-5,56542068882422E-6;
-1,52442367839187E-6;
3,78692444088098E-6;
8,05928488359827E-6;
9,56307704437146E-6;
8,19882023583119E-6;
5,36984372073367E-6;
2,85712135917275E-6;
1,60600294652964E-6;
1,31636454041305E-6;
1,02468054414905E-6;
8,04162318768826E-8;
-1,32114888286393E-6;
-2,43244800059724E-6;
-2,72772154581007E-6;
-2,4274472496543E-6;
-2,30084105652997E-6;
-2,92556218873214E-6;
-4,06379794578678E-6;
-4,72229571196512E-6;
-3,88934676832919E-6;
-1,37116190419144E-6;
1,94490929870092E-6;
4,62219505213707E-6;
5,60208670353576E-6;
4,83535594310422E-6;
3,18053508256968E-6;
1,70763111163477E-6;
9,73849944672276E-7;
7,97640868648899E-7;
6,1765184119585E-7;
6,37242318744118E-8;
-7,48010557749455E-7;
-1,3963602002581E-6;
-1,59351386886149E-6;
-1,46514640775802E-6;
-1,42714306886763E-6;
-1,78149903866931E-6;
-2,39708261418378E-6;
-2,76185841579944E-6;
-2,37343274700374E-6;
-1,15138110968779E-6;
4,59829049352101E-7;
1,77485324935894E-6;
2,31238032204535E-6;
2,06638746346635E-6;
1,42726437488618E-6;
8,54465931569217E-7;
5,72113838972426E-7;
5,00397951053267E-7;
4,22690876834739E-7;
2,08958276864553E-7;
-9,25153805699183E-8;
-3,39831995597638E-7;
-4,48606406842124E-7;
-4,63415865664092E-7;
-4,98337055480275E-7;
-6,20104097205148E-7;
-7,88665363740693E-7;
-9,02248027586942E-7;
-8,92293758946146E-7;
-7,74766337487379E-7;
0,00933281687142209;
0,0226292638980683;
0,0163724255267186;
0,00943297224372423;
0,0121694825251708;
0,00702644143199182;
0,00563518524929854;
0,00458308923193911;
0,00084088241372719;
0,00103284286061483;
-0,00118986492815654;
-0,00199129203022532;
-0,00280651546753779;
-0,00455320035256442;
-0,00488694563217855;
-0,00585545274879274;
-0,00594056717431862;
-0,00618174569997829;
-0,00699314698468447;
-0,00792108902159847;
-0,00935034204023569;
-0,0102451755640379;
-0,0105209631230522;
-0,0101104463427101;
-0,00920866874745196;
-0,00843049370966013;
-0,00783022934051295;
-0,00745719207917048;
-0,00704770835402071;
-0,00641803387855292;
-0,00567433636190197;
-0,00495701010137895;
-0,00445158819664313;
-0,00408952126842874;
-0,00366273882422585;
-0,00302525625038713;
-0,00222641420152957;
-0,00157074901633833;
-0,00135957700369453;
-0,00166533238832727;
-0,00222789442804361;
-0,00259087840267363;
-0,00241103363890375;
-0,00166063100509127;
-0,000626687103937584;
0,000316032672968452;
0,000963678949597097;
0,00137601031375928;
0,00176538959679451;
0,0022792063444491;
0,00287521686660506;
0,00338029880149126;
0,00366709511330848;
0,00378624693187996;
0,00392636540023061;
0,00423541851221401;
0,00465683062282865;
0,00493225862945468;
0,0047877310649684;
0,00416218369758081;
0,00329562234234419;
0,0025961276834154;
0,00237828893670147;
0,00266662811817885;
0,00320641708896315;
0,00366436617818267;
0,00385859327865673;
0,00384593860642032;
0,00381745813296347;
0,00390698112004264;
0,00407817322982051;
0,00417717073363876;
0,00409180297702802;
0,00386819840509825;
0,0036759752161938;
0,00364800144704155;
0,00373432368568372;
0,00370521185562339;
0,00331694549349103;
0,00251585833403699;
0,00151632717043864;
0,000682029169540164;
0,000293002075261441;
0,000370802702092886;
0,000688650963669195;
0,000950089822216984;
0,00099342468136428;
0,000869056326697633;
0,000746371135474491;
0,00074376102196071;
0,000828533080240315;
0,000863821613447185;
0,000749820359420354;
0,000526980636737456;
0,000344988171699297;
0,000320805256952954;
0,000409552322317426;
0,000407465198725162;
9,86424152752049E-5;
-0,000564718470966341;
-0,0107271803591047;
-0,0246977828431982;
-0,0187141322660838;
-0,0116287843627384;
-0,0140010899662601;
-0,00853749717418029;
-0,00701236668835982;
-0,00596923920280783;
-0,0022303367289706;
-0,00231642093366057;
9,19229896540907E-5;
0,00103780902182079;
0,00186808083461906;
0,00353546750401694;
0,00382651942686943;
0,00489105756813501;
0,00517098465225279;
0,005526549714039;
0,00618227722859235;
0,00664237350004772;
0,00745687409196672;
0,00787032236499818;
0,00801321028448146;
0,00783359176616029;
0,00735044249557534;
0,0069493140155414;
0,00655938560124808;
0,00626814605667561;
0,00594140253386509;
0,00548551944652561;
0,00498081118605473;
0,0044621475441077;
0,00403817293422644;
0,00367087689079172;
0,00326611723901708;
0,00276664229620089;
0,00218698341136829;
0,00167598127787402;
0,00137043094087505;
0,00130647127498041;
0,00136757675316722;
0,00134046183669276;
0,00106823440976168;
0,000536313914709313;
-0,000120736223714411;
-0,000726444299022784;
-0,00118494892063642;
-0,00152279381071392;
-0,00184034072334851;
-0,00220709206657763;
-0,00260300868896516;
-0,00294579466014304;
-0,00317412197912797;
-0,00331208924598974;
-0,00345006023147513;
-0,00365955867857963;
-0,00391383482506553;
-0,00408814429216606;
-0,00404949234207048;
-0,0037675915183282;
-0,00335895973484069;
-0,00302311664730746;
-0,00291497909632066;
-0,00304785242406081;
-0,00329743609775504;
-0,00349986566834224;
-0,0035653176901928;
-0,00352204289930103;
-0,0034653552276029;
-0,00346257198588211;
-0,00349621723127192;
-0,0034896773337548;
-0,00338681720536632;
-0,0032110137429693;
-0,00304825504340365;
-0,00296643450742922;
-0,00294090627971661;
-0,00285520200722763;
-0,00258492995063257;
-0,00210224194958258;
-0,0015167547156416;
-0,001015624989923;
-0,00074398063577536;
-0,000714057766604188;
-0,000809299583084612;
-0,000876180888831147;
-0,000830524927522344;
-0,000698554320567218;
-0,000569034163305303;
-0,000504453274446888;
-0,000488027103032137;
-0,000447780780010336;
-0,000330888967206722;
-0,00015867319043204;
-1,07512945091831E-5;
5,02346204307643E-5;
4,78944757401928E-5;
9,12856644403976E-5;
0,000296724451118221;
0,000690619425924725;
0,00117157158156017;
0,00156624788606841;
0,00174054816175516;
0,00168390506990063;
0,00150529049841123;
0,00134784930636163;
0,00129025504552199;
0,00130875184639874;
0,00132164674959017;
0,00127165631945338;
0,00117493432609736;
0,00109867347580191;
0,00109225889964355;
0,00113643730516956;
0,00115806886556174;
0,00109975514018083;
0,00098379882408687;
0,000911343021771292;
0,000990096427149594;
0,0012446854088273;
0,00158182456995977;
0,00184199053695196;
0,00190194970233458;
0,00175235293422932;
0,00149389793383701;
0,00125860909476639;
0,00111904429750026;
0,00105347207252633;
0,000986902254860737;
0,000866825747173419;
0,000708214859417041;
0,000572864447890693;
0,00050614172405213;
0,000490377767145087;
0,00045848544651544;
0,000357857075022972;
0,000208953354754604;
0,000104413437254372;
0,000142778574216591;
0,000346432981921463;
0,000629844097834953;
0,000846970280932846;
0,000885075073342077;
0,000735592191618808;
0,000490480613370208;
0,00027021029054647;
0,000140853645658653;
8,23875169745529E-5;
2,62297164062861E-5;
-7,56472201853119E-5;
-0,000209735246661494;
-0,000319892174667693;
-0,00036499200444201;
-0,00036132677475643;
-0,000370137145246144;
-0,000439435885590552;
-0,000550759760185586;
-0,000620067960532083;
-0,000558037712787812;
-0,000344586799817813;
-5,76093018800181E-5;
0,000170171383770388;
0,00023636565955133;
0,000133127742718228;
-5,6270851991155E-5;
-0,000222798495871546;
-0,000306774123196374;
-0,000326494986631859;
-0,000344171298674183;
-0,000403359647637669;
-0,000491938432713813;
-0,000559263285002116;
-0,000568296427139404;
-0,000533876258019166;
-0,000511392249000842;
-0,00054423979638101;
-0,000615811569795504;
-0,000650387998916062;
-0,000567554105272164;
-0,000349337973471629;
-6,60039369099422E-5;
0,000162900198891936;
0,000245232244136904;
0,000173968672613187;
2,40139119100042E-5;
-0,000106637319684099;
-0,000164398155323923;
-0,000165736354829384;
-0,000166510158370287;
-0,00020578793484512;
-0,000272669753548652;
-0,00032173193113663;
-0,000319781034312008;
-0,000280112622656633;
-0,000252309734430762;
-0,000275172078418191;
-0,000333786274516454;
-0,0003603948853764;
-0,000283104580354821;
-8,58742699137335E-5;
0,000168524708197756;
0,000373384535334828;
0,000446547224583583;
0,000381846786635764;
0,000246165162871847;
0,000126904673930677;
7,18378328538419E-5;
6,63246677428376E-5;
6,06843753080909E-5;
2,02170184292056E-5;
-4,53162607903409E-5;
-9,54808981149701E-5;
-0,000100746814514925;
-7,28952332742942E-5;
-5,59064095919098E-5;
-8,41521606940122E-5;
-0,000144337076692324;
-0,000176335188947735;
-0,000116414263302879;
4,96280634891537E-5;
0,000266205410453542;
0,000438899783256718;
0,000495091088418639;
0,000429408092319243;
0,000301036049008201;
0,000187232553196402;
0,000130197912298739;
0,000117017993148316;
0,000103882606469969;
6,02283276499848E-5;
-5,3023179734471E-6;
-5,70609474008886E-5;
-6,90367143705184E-5;
-5,1599586023161E-5;
-4,34324480747592E-5;
-7,4734132147292E-5;
-0,00013378738014111;
-0,000167754868882789;
-0,000120687229722605;
1,9844282904846E-5;
0,000205041495701436;
0,000352107042189858;
0,000397420277217327;
0,000336317246296088;
0,000220649934923525;
0,000118034444954353;
6,53663915485147E-5;
5,13342062712218E-5;
3,7646668427369E-5;
-2,38395574792081E-6;
-6,12048687657403E-5;
-0,000107716633321366;
-0,000119255777043205;
-0,000104885102028345;
-9,83173589118702E-5;
-0,000125844761559754;
-0,000177262757492308;
-0,000206619556883436;
-0,000165307584486158;
-4,25783355915337E-5;
0,000119142888505752;
0,000247968052872264;
0,000288713881917403;
0,000237360377019632;
0,000138857292941118;
5,1760910212233E-5;
7,98400029178583E-6;
-2,28714399114872E-6;
-1,21766020824957E-5;
-4,47478341082435E-5;
-9,34745543291955E-5;
-0,000131518652146866;
-0,000139348671292012;
-0,000124803248095232;
-0,000116947677554043;
-0,000138423872224036;
-0,000180440467349943;
-0,000203472017482088;
-0,000165756035907499;
-5,81011917175458E-5;
8,30205383148629E-5;
0,000195897559237843;
0,000233211678739411;
0,000191544295709817;
0,000109422355340207;
3,6977760070644E-5;
1,49818099626491E-6;
-5,42620237598747E-6;
-1,21068870768889E-5;
-3,82318945601984E-5;
-7,82204900725932E-5;
-0,000109181341170356;
-0,00011447836249679;
-0,000100803047596201;
-9,29011000039166E-5;
-0,00011002271285794;
-0,000144678082849327;
-0,00016328404749823;
-0,000130402933696901;
-3,82705675421028E-5;
8,21609869824451E-5;
0,00017859950503554;
0,000211002416347913;
0,00017651100888931;
0,00010772549918527;
4,70078953274254E-5;
1,73868394332995E-5;
1,17564366999861E-5;
6,24993460187888E-6;
-1,5704161513745E-5;
-4,93915053569525E-5;
-7,55500861708185E-5;
-8,02027572343354E-5;
-6,89788928546372E-5;
-6,26457428162007E-5;
-7,7331681892911E-5;
-0,000106740909488284;
-0,000122746655380933;
-9,57148957870818E-5;
-1,91853249397344E-5;
8,09610533178959E-5;
0,00016107549420795;
0,000187786799700819;
0,000158747758383505;
0,000101127047265838;
5,01708257936113E-5;
2,50101979491342E-5;
1,97340598720977E-5;
1,4541797108141E-5;
-4,28956590309266E-6;
-3,28393668350951E-5;
-5,51627787565478E-5;
-5,97113404248129E-5;
-5,11448462571222E-5;
-4,6600893347786E-5;
-5,93625048550504E-5;
-8,42258063946013E-5;
-9,80399958787895E-5;
-7,64597990767381E-5;
-1,42119450307276E-5;
6,74397146204903E-5;
0,000132711181616411;
0,000154296685487855;
0,000130309366156957;
8,29762754357238E-5;
4,10748822681427E-5;
2,01944775794113E-5;
1,55070557660294E-5;
1,08996910268747E-5;
-4,76993479947811E-6;
-2,83045458240457E-5;
-4,67691456812164E-5;
-5,08178737387918E-5;
-4,42339769263223E-5;
-4,08710956228557E-5;
-5,1440367208656E-5;
-7,1729263687236E-5;
-8,30894582079331E-5;
-6,59575785195371E-5;
-1,61329903264137E-5;
4,92905980774338E-5;
0,000101628538939124;
0,000119046227684566;
0,000100068641726935;
6,24637719770855E-5;
2,91765476730365E-5;
1,26042212817349E-5;
8,89356919889315E-6;
5,25027392457632E-6;
-7,14760315269106E-6;
-2,57554925913808E-5;
-4,03460309730242E-5;
-4,35534745670617E-5;
-3,83736659608519E-5;
-3,57115957443213E-5;
-4,39709090446134E-5;
-5,98301506687625E-5;
-6,86803486989793E-5;
-5,52451217528362E-5;
-1,62837917182108E-5;
3,48470958674132E-5;
7,58206112896229E-5;
8,96987523497816E-5;
7,53738600794508E-5;
4,66252619437446E-5;
2,11839644669061E-5;
8,59566847562164E-6;
5,8786130690472E-6;
3,2016361522794E-6;
-6,18672393468611E-6;
-2,0324481161838E-5;
-3,13983765664991E-5;
-3,38066411039972E-5;
-2,98425016892998E-5;
-2,77844021408326E-5;
-3,39819480456241E-5;
-4,59067473794203E-5;
-5,25420826725768E-5;
-4,24214670030017E-5;
-1,31553118305388E-5;
2,52211786783809E-5;
5,60268550882598E-5;
6,66694669747603E-5;
5,63671296843892E-5;
3,53627847407765E-5;
1,67673338462561E-5;
7,60156901907541E-6;
5,65638942804327E-6;
3,72366491001406E-6;
-3,11642459342612E-6;
-1,34170959011867E-5;
-2,14984137874641E-5;
-2,33160955015602E-5;
-2,05419051614695E-5;
-1,91353626956306E-5;
-2,36338966277822E-5;
-3,22086946426467E-5;
-3,70092340383006E-5;
-2,99247681906808E-5;
-9,31375003464999E-6;
1,7713470131739E-5;
3,94436437244781E-5;
4,71061814444565E-5;
4,02053508271908E-5;
2,58772584706491E-5;
1,31762716259584E-5;
6,90777004510462E-6;
5,54093349495506E-6;
4,16754161654064E-6;
-5,27425836816184E-7;
-7,54895069444772E-6;
-1,30849977591703E-5;
-1,44539074709744E-5;
-1,2783417176324E-5;
-1,20056528656484E-5;
-1,50749677128672E-5;
-2,07741923651394E-5;
-2,40170393862358E-5;
-1,96203515094187E-5;
-6,59415138112577E-6;
1,05013227925168E-5;
2,42810148386555E-5;
2,93017008576904E-5;
2,53162444327967E-5;
1,67581579054872E-5;
9,15535465664134E-6;
5,38850451632318E-6;
4,51583791792547E-6;
3,62493741109704E-6;
7,92173486750548E-7;
-3,37985646688027E-6;
-6,69810240860643E-6;
-7,66099975216453E-6;
-6,92524413960403E-6;
-6,66916373816899E-6;
-8,47890143140194E-6;
-1,16666449558262E-5;
-1,35340799476709E-5;
-1,1425131767199E-5;
-4,91143985208457E-6;
3,64609782778521E-6;
1,05924081634412E-5;
1,33497362348352E-5;
1,18845421900333E-5;
8,30523786037896E-6;
5,10799635534896E-6;
3,51990083582876E-6;
3,10496541143846E-6;
2,66312181413717E-6;
1,4633762940184E-6;
-2,28697755906072E-7;
-1,60722311807786E-6;
-2,18085085054137E-6;
-2,20310083609356E-6;
-2,35283772839428E-6;
-3,0475632715591E-6;
-4,05218082593919E-6;
-4,70676088714598E-6;
-4,51044551424648E-6;
-3,51302677646941E-6;
-2,20143255962656E-6;
-1,05533494035939E-6;
-2,14957101136818E-7;
4,67550691909737E-7;
1,1253014232583E-6;
1,68083103723891E-6;
1,95862540914823E-6;
1,95157627874666E-6;
1,91003196600729E-6;
2,11214653193151E-6;
2,53784579526428E-6;
2,82006942302621E-6;
2,59689365307025E-6;
1,95543570398831E-6;
1,48182504999213E-6;
1,74337400994143E-6;
2,59327972815403E-6;
2,97532134122246E-6;
1,57769462483258E-6;
-2,05068555815049E-6;
-6,82215202664953E-6;
-1,05510495213303E-5;
-1,13334422253732E-5;
-8,86955544553245E-6;
-4,68010091815167E-6;
-9,95388353499364E-7;
8,36935036245185E-7;
1,16811092138243E-6;
1,45873358522703E-6;
2,82796687062746E-6;
5,01728496536708E-6;
6,68304126386899E-6;
6,75379287100993E-6;
5,60006787734238E-6;
4,85844632477915E-6;
5,91295446466336E-6;
8,29972818887886E-6;
9,54097104992242E-6;
6,82521287155306E-6;
-6,29753657465622E-7;
-1,0435045046188E-5;
-1,82052038220702E-5;
-2,03510017367944E-5;
-1,64476232401918E-5;
-9,37658284114107E-6;
-3,13767201771943E-6;
-4,08044455812539E-8;
5,59391880602505E-7;
1,1151814261539E-6;
3,43380636738431E-6;
7,06122004064288E-6;
9,85565803157219E-6;
1,01667408284444E-5;
8,59637220812188E-6;
7,63677554616592E-6;
9,3361231007036E-6;
1,29723055925241E-5;
1,49130823821805E-5;
1,11309993611454E-5;
5,7625026520317E-7;
-1,33087391828093E-5;
-2,43602561418727E-5;
-2,7628627865492E-5;
-2,25883931855171E-5;
-1,32169669446429E-5;
-4,93715188982968E-6;
-8,31553360901933E-7;
-1,87004002685705E-8;
7,48010957798769E-7;
3,8258893433418E-6;
8,60408858782928E-6;
1,23036422273594E-5;
1,28128984671826E-5;
1,09182180120633E-5;
9,79198945009667E-6;
1,20091696142852E-5;
1,66423410973922E-5;
1,91451120183694E-5;
1,45291173486247E-5;
1,53402833777301E-6;
-1,55667385136553E-5;
-2,92098424830931E-5;
-3,33768410445724E-5;
-2,74635820504426E-5;
-1,63058472290974E-5;
-6,43886034010793E-6;
-1,54804382194741E-6;
-5,67804234277586E-7;
3,66126165550212E-7;
4,03761994200515E-6;
9,71370294414082E-6;
1,41221116700488E-5;
1,47951085261394E-5;
1,26615881374688E-5;
1,14173668727638E-5;
1,40415644978941E-5;
1,94487184682531E-5;
2,23926709810309E-5;
1,71516168031986E-5;
2,30559513562162E-6;
-1,72392571023733E-5;
-3,2857165509881E-5;
-3,77205966537561E-5;
-3,11663075994785E-5;
-1,86772447333386E-5;
-7,6249816580678E-6;
-2,14680094087259E-6;
-1,0391159185463E-6;
2,31947841971602E-8;
4,14101257254739E-6;
1,04900174486408E-5;
1,54322678743975E-5;
1,62371677060867E-5;
1,39390192080885E-5;
1,26183082399279E-5;
1,55498093075427E-5;
2,15318545255779E-5;
2,48081267474491E-5;
1,91244734320566E-5;
2,94629790293051E-6;
-1,83626016535209E-5;
-3,54116536606079E-5;
-4,079338099585E-5;
-3,38027963910333E-5;
-2,03839246437301E-5;
-8,50149853753273E-6;
-2,61171869173669E-6;
-1,41357692306262E-6;
-2,59002846415763E-7;
4,17360003293252E-6;
1,09956425939973E-5;
1,63156324365479E-5;
1,72219954010197E-5;
1,48218676697006E-5;
1,34586892984735E-5;
1,66077675590317E-5;
2,29879180672576E-5;
2,64987768628137E-5;
2,05299468542264E-5;
3,47162111284551E-6;
-1,90078463307025E-5;
-3,70133102660647E-5;
-4,27576319825207E-5;
-3,55093224727773E-5;
-2,15111143475655E-5;
-9,10876275174436E-6;
-2,96146321513884E-6;
-1,70610434757966E-6;
-4,9176204814663E-7;
4,14006095491746E-6;
1,12600892117021E-5;
1,6820809526856E-5;
1,78008558653999E-5;
1,53519068542126E-5;
1,39746698019204E-5;
1,72624274940149E-5;
2,38863115163261E-5;
2,75459635445256E-5;
2,14273791551408E-5;
3,87971422564391E-6;
-1,92566199862632E-5;
-3,7807050740636E-5;
-4,37780268237259E-5;
-3,64248093700331E-5;
-2,21486909802464E-5;
-9,49338288176629E-6;
-3,22106035973125E-6;
-1,93693868988075E-6;
-6,90687673559598E-7;
4,04093455805272E-6;
1,13082746231863E-5;
1,69917048793424E-5;
1,80212664437379E-5;
1,55688828581473E-5;
1,42017812050503E-5;
1,75603733751251E-5;
2,42954227137815E-5;
2,80300642763732E-5;
2,18774753052376E-5;
4,17507488212E-6;
-1,91780153998713E-5;
-3,79203164921269E-5;
-4,39999660782145E-5;
-3,66703964109948E-5;
-2,23719376743873E-5;
-9,69016551506856E-6;
-3,40499509352189E-6;
-2,11585547261107E-6;
-8,6102578238643E-7;
3,88613152334896E-6;
1,11728570787138E-5;
1,68786898244277E-5;
1,79370470436269E-5;
1,55194893086493E-5;
1,41828375789527E-5;
1,7554624459279E-5;
2,42883729884897E-5;
2,80352032004151E-5;
2,19460888383444E-5;
4,37151275196584E-6;
-1,88263590640263E-5;
-3,74615771059669E-5;
-4,35488822955213E-5;
-3,63495828010748E-5;
-2,22425180458794E-5;
-9,72388863632146E-6;
-3,51970217708285E-6;
-2,24530003540744E-6;
-1,001399433736E-6;
3,69061353444435E-6;
1,08893632131442E-5;
1,65332390781461E-5;
1,76025173337161E-5;
1,52511842540225E-5;
1,39614165702667E-5;
1,72977867996056E-5;
2,39358720262468E-5;
2,76418706477617E-5;
2,16966708169834E-5;
4,48448961485066E-6;
-1,82489354108003E-5;
-3,65280846921791E-5;
-4,25379937373162E-5;
-3,55559804532477E-5;
-2,18162292040383E-5;
-9,61701000992177E-6;
-3,57119051070679E-6;
-2,32791696105135E-6;
-1,11121865316806E-6;
3,46712960961023E-6;
1,04890829721224E-5;
1,60010048920104E-5;
1,70657780662591E-5;
1,48056908892436E-5;
1,35755816779524E-5;
1,68360245418441E-5;
2,33004682421933E-5;
2,69214394658903E-5;
2,11850470965175E-5;
4,52616413577E-6;
-1,74906807898783E-5;
-3,52102880086195E-5;
-4,10724217825101E-5;
-3,43771103117357E-5;
-2,11464397090596E-5;
-9,39276559796555E-6;
-3,56783238871815E-6;
-2,36903517924787E-6;
-1,19287457883182E-6;
3,22432683742294E-6;
9,9974972332365E-6;
1,53205274153724E-5;
1,63676740682382E-5;
1,42181942119611E-5;
1,30573219457828E-5;
1,62087603624732E-5;
2,2436486783767E-5;
2,59363259076036E-5;
2,04597587319763E-5;
4,50583618803508E-6;
-1,65936653001278E-5;
-3,35912291732788E-5;
-3,92484344348718E-5;
-3,28934231532885E-5;
-2,02828786863653E-5;
-9,07374739993463E-6;
-3,5187837383228E-6;
-2,37497726317244E-6;
-1,24993751697872E-6;
2,96865273535049E-6;
9,43627426938334E-6;
1,4525333339542E-5;
1,55439527829346E-5;
1,35195212786947E-5;
1,24347449786069E-5;
1,5450889325047E-5;
2,13923042160487E-5;
2,47422992262072E-5;
1,95643063749017E-5;
4,43204159020846E-6;
-1,55951848899259E-5;
-3,1744796117854E-5;
-3,71517714420642E-5;
-3,11765916842205E-5;
-1,92698478662838E-5;
-8,68005869209687E-6;
-3,43213579556223E-6;
-2,35126174464189E-6;
-1,28542405732683E-6;
2,70606724533401E-6;
8,8249864777491E-6;
1,36456158945391E-5;
1,46268636218038E-5;
1,27376318221066E-5;
1,17334661284781E-5;
1,45941186501118E-5;
2,02116602394811E-5;
2,33897261197266E-5;
1,85382454732689E-5;
4,31339136688107E-6;
-1,45272389018109E-5;
-2,97354470247061E-5;
-3,48574802213083E-5;
-2,92893396752892E-5;
-1,81459625558781E-5;
-8,22898977212506E-6;
-3,31460221046637E-6;
-2,30234062687176E-6;
-1,30158592649604E-6;
2,44223182726053E-6;
8,1813020445668E-6;
1,27084201948057E-5;
1,36452926188055E-5;
1,18976611751003E-5;
1,0976582017481E-5;
1,3666929608856E-5;
1,89336368770088E-5;
2,19235441548088E-5;
1,741704850776E-5;
4,15819216118744E-6;
-1,3417200508652E-5;
-2,76191251950219E-5;
-3,24309218882429E-5;
-2,72863629775506E-5;
-1,69449207111702E-5;
-7,73564628985237E-6;
-3,17207399076442E-6;
-2,23216049606582E-6;
-1,30046625604815E-6;
2,18200780428354E-6;
7,52056610122767E-6;
1,17372932182241E-5;
1,26244142826672E-5;
1,10215398133108E-5;
1,01842693612328E-5;
1,26942050517216E-5;
1,75923774675879E-5;
2,03830312169413E-5;
1,62317973388437E-5;
3,97392697637619E-6;
0,00932114543057576;
0,0226042855664515;
0,0163428084676958;
0,00940788093463109;
0,0121536955982317;
0,00701895388667621;
0,00563180710423114;
0,00458056553541751;
0,000839215871905781;
0,00103432158174292;
-0,0011835838230109;
-0,00198120041566406;
-0,00279555125218979;
-0,00454355334999597;
-0,00487795124079385;
-0,00584420343442718;
-0,00592500004166516;
-0,00616368631275081;
-0,00697856734940664;
-0,00791693638101921;
-0,00936004957545477;
-0,0102661410841106;
-0,0105458992596323;
-0,0101316401110073;
-0,00922208998092948;
-0,00843697103582581;
-0,00783326768254622;
-0,00745951453278049;
-0,00704930832723386;
-0,00641699031648741;
-0,0150026903664328;
-0,0275784470285314;
-0,0208152714990795;
-0,0135146308362075;
-0,015824658007126;
-0,0100420404997258;
-0,00784821646663734;
-0,00613832977778989;
-0,00218780395716613;
-0,0026940942138106;
-0,0010453388294299;
-0,000616187600137048;
0,000375489313964318;
0,00287547030529556;
0,00424943691577048;
0,00616644216299721;
0,00690223374933426;
0,00755642618692623;
0,00875749337507488;
0,0102006223610549;
0,0122281541387618;
0,0136299025448731;
0,0141929657428517;
0,0139012978763642;
0,0131401665289738;
0,0126734453560304;
0,0124979987333981;
0,012402230437783;
0,0118459905516815;
0,0105840418195002;
0,00896487146414644;
0,007540740635809;
0,00681470882542576;
0,00674312969579917;
0,00686109583759991;
0,00668637887351593;
0,00608454627531938;
0,00541696239212648;
0,00517721538567149;
0,00557267574847439;
0,00630704856363623;
0,00676954960758335;
0,0065044392957276;
0,00553061134188786;
0,00430565250255327;
0,00333757834178722;
0,00277933967583087;
0,00233947005768006;
0,00156014858287578;
0,000240160042277265;
-0,00136209010158968;
-0,00270701540617645;
-0,0033850506767415;
-0,0034249075703608;
-0,00324339269815101;
-0,00328706477242865;
-0,00366260723113145;
-0,0040616325604794;
-0,00404020141843962;
-0,00341807886002257;
-0,00246751663646689;
-0,00173332148238046;
-0,00162969985154324;
-0,00214029918271035;
-0,00286032040550144;
-0,00333968753165428;
-0,00344239417032815;
-0,00343049865254597;
-0,00371202859336802;
-0,0044685471629718;
-0,00547353216569272;
-0,00625082169858669;
-0,00644050459251016;
-0,00607026526977354;
-0,0055113021150442;
-0,00515980402695212;
-0,00511005231184499;
-0,0050891280380203;
-0,00470483695500254;
-0,00379957690941543;
-0,00261645594985667;
-0,00163929134098015;
-0,00123565568860044;
-0,00139170767610777;
-0,00174995049853814;
-0,00191257949007975;
-0,0017588307428632;
-0,00151906417838983;
-0,00155250044084917;
-0,00201928783041781;
-0,00272081107256546;
-0,00323927139994518;
-0,00325925305069292;
-0,0028056126816756;
-0,002204065123366;
-0,00180118864086539;
-0,0016779409430122;
-0,00159333069191975;
-0,00120270453263617;
-0,000368147940898068;
0,000696537148514839;
0,001566892727518;
0,00192097246672416;
0,00177144922975895;
0,00143217143760142;
0,001252461372701;
0,00133954261002914;
0,00149382407712884;
0,00140294142828954;
0,000927733295755247;
0,000241245711887311;
-0,000293015298787293;
-0,000400895899846728;
-0,000104049337475281;
0,000315006346625735;
0,000556571514492366;
0,000552286470939436;
0,000513148656018171;
0,000739196778292861;
0,00134998754714542;
0,00215940390274201;
0,00279881884996146;
0,00298908240594285;
0,0027416044384106;
0,00232901714250378;
0,00205483443583155;
0,00201319111923577;
0,00203290076918353;
0,00184506519226226;
0,00132979641059371;
0,000635900633171698;
7,58262221533763E-5;
-0,000115146607361219;
4,39377755515726E-5;
0,000310401939409013;
0,000427698852463963;
0,000338565899898605;
0,000225396798663726;
0,000346097269086697;
0,000802678601942289;
0,00143443660708021;
0,00192435120570095;
0,00203266920776269;
0,00176911376546084;
0,00136741465120433;
0,0010879034427719;
0,00101196109496282;
0,000994227405723519;
0,000805659045226019;
0,000343825034811002;
-0,000265309862802972;
-0,000756938992284129;
-0,000932091961501635;
-0,000807704453028968;
-0,000589930520424712;
-0,000495807057245758;
-0,000572786608280779;
-0,000665346477737886;
-0,000554849570719905;
-0,000155697466167571;
0,000394769162225996;
0,000827096103268613;
0,000937772147303785;
0,000734780006176494;
0,000415734997596082;
0,000200906797643476;
0,000159693461302928;
0,000170343878820734;
4,03932252944149E-5;
-0,000316576163657552;
-0,000795607815651681;
-0,0011756560701673;
-0,00129105833670481;
-0,00115676138643611;
-0,0009453722520912;
-0,000837710699451527;
-0,000872314214317329;
-0,000918373902855593;
-0,000793245518465645;
-0,000426256348057688;
6,68573422393174E-5;
0,00046042413508935;
0,000584289997139765;
0,000444948137896806;
0,000207014379070494;
5,41336766146106E-5;
4,47726983688259E-5;
7,88133225116455E-5;
-2,69193885789364E-6;
-0,000271388497743753;
-0,000641303851505291;
-0,000931100460698035;
-0,00100527201249853;
-0,000876761927840059;
-0,000687475210267419;
-0,000585174272889235;
-0,000600250866263626;
-0,000624350900078793;
-0,000507478185693567;
-0,000192355774510805;
0,000225157515537963;
0,000559421535913019;
0,000670781452660572;
0,000564501829265258;
0,000375301800347671;
0,000253615104561664;
0,000248011508362384;
0,000278026410747443;
0,000215162764796916;
1,26813419525638E-6;
-0,000294734391147989;
-0,000527291440039585;
-0,000588029653798603;
-0,000487963347905563;
-0,000341183056567854;
-0,00026558265521724;
-0,000284239490410071;
-0,000309112595676848;
-0,000219660626865406;
2,93892876978845E-5;
0,000360237707777845;
0,000623470740873907;
0,00070701335189428;
0,000615050833030569;
0,000455346856943441;
0,000348371277137659;
0,00033371463893238;
0,000348533638204691;
0,000291684543898772;
0,00011715402389174;
-0,000121405212191537;
-0,000310508336931303;
-0,000366077823094407;
-0,000297373410546031;
-0,000193572189019778;
-0,00014587891535867;
-0,00017093317082515;
-0,000198993167843383;
-0,000135944092850039;
5,27531221644265E-5;
0,000305510532840981;
0,000505371108982215;
0,000564941168396783;
0,00048741542593703;
0,000356404884440282;
0,000265520404483026;
0,000246227373404742;
0,000251307487391691;
0,000203946121720684;
6,89282215640886E-5;
-0,000113682513067397;
-0,000258921898829853;
-0,000304305726221649;
-0,00025753145265664;
-0,000185668563790028;
-0,000156293287634833;
-0,000180444069614811;
-0,000204734915378842;
-0,000158565478303363;
-1,69148660145414E-5;
0,000173059053297408;
0,000323234645874209;
0,0003681229514952;
0,000310025782373403;
0,000211107615780454;
0,000141119545947521;
0,000124247141969125;
0,000127014707163977;
9,40701111858704E-5;
-2,63364603145331E-7;
-0,000127887281213621;
-0,000228955496603458;
-0,000259982118301445;
-0,000227264781413038;
-0,000178411589783872;
-0,000160250459950761;
-0,000178975722020933;
-0,000195669380223837;
-0,000160443694658322;
-5,6616839900952E-5;
8,14076135295411E-5;
0,000190919724245577;
0,000225719601396287;
0,00018733631330771;
0,000119088082916538;
6,97456734707392E-5;
5,70505816469758E-5;
5,95176093880349E-5;
4,05693187112127E-5;
-1,71033698678018E-5;
-9,58138508172434E-5;
-0,000157602540576747;
-0,000175516221766092;
-0,000154591306456133;
-0,000125454039695286;
-0,000116878453564332;
-0,000130902506260564;
-0,000141271822352544;
-0,000116152813664053;
-4,60828208278439E-5;
4,57131048048633E-5;
0,000118714281929252;
0,000143552033205912;
0,000121104353738332;
7,83011587102094E-5;
4,56539642419697E-5;
3,52590437185982E-5;
3,59868013184209E-5;
2,75176467341429E-5;
-1,8683416288948E-7;
-3,83977480281118E-5;
-6,80184171384067E-5;
-7,63242766623952E-5;
-6,72246660171277E-5;
-5,66855548272115E-5;
-5,794441840725E-5;
-6,95198930573791E-5;
-7,61295987449929E-5;
-6,15104224974436E-5;
-2,23805526105034E-5;
2,77288116994345E-5;
6,74638510570304E-5;
8,19821908395395E-5;
7,16177543012107E-5;
4,9201908728772E-5;
2,95233855159469E-5;
1,97776691581716E-5;
1,76662672519795E-5;
1,67792780100997E-5;
1,33193437781658E-5;
8,39809293037461E-6;
5,04656131533935E-6;
3,88824341681886E-6;
2,0052785788577E-6;
-4,0703343131001E-6;
-1,43781605460588E-5;
-2,4508280544515E-5;
-2,85822067014818E-5;
-2,36097613125774E-5;
-1,15381465557881E-5;
2,40574243371425E-6;
1,32215448060087E-5;
1,84478904884918E-5;
1,79665505584192E-5;
1,26255822715759E-5;
3,83618835904664E-6;
-5,41823457030782E-6;
-1,00140871406015E-5;
-4,62321663294009E-6;
1,22414159705901E-5;
3,53021749144659E-5;
5,40943426822831E-5;
5,90924817286671E-5;
4,82387412419469E-5;
2,85689601409236E-5;
1,10899252278442E-5;
2,60050748287458E-6;
1,02145271599157E-6;
-1,8171218812786E-6;
-1,22211552766738E-5;
-2,83983588955027E-5;
-4,15887438221416E-5;
-4,38487275843453E-5;
-3,56660910176345E-5;
-2,62327918440472E-5;
-2,53590106991175E-5;
-3,36364151545482E-5;
-3,98063862528776E-5;
-2,87904260134314E-5;
5,30578657008201E-6;
5,19360546188188E-5;
8,94868819884781E-5;
0,000100065550926037;
8,2352633885388E-5;
5,206763303924E-5;
2,9303971249825E-5;
2,2764392229594E-5;
2,37388206520812E-5;
1,48287822438153E-5;
-1,38373759445511E-5;
-5,4623910540401E-5;
-8,73785672174045E-5;
-9,55557820423138E-5;
-7,99366733224512E-5;
-5,79795002379177E-5;
-4,87467829524887E-5;
-5,58184339174446E-5;
-6,29651440786856E-5;
-4,71612745146455E-5;
1,0984774887677E-6;
6,70154184933526E-5;
0,000119955006088027;
0,000135271620695322;
0,000112273760975033;
7,37171913069259E-5;
4,70117785992881E-5;
4,23321234289281E-5;
4,55455293252547E-5;
3,17768039215657E-5;
-1,16944196319557E-5;
-7,24561453302727E-5;
-0,000121109578225246;
-0,000134139665088711;
-0,000112551734677375;
-8,04648987443115E-5;
-6,44107543679847E-5;
-7,04218868867767E-5;
-7,83438780723978E-5;
-5,88275929181218E-5;
5,25055054685229E-7;
8,15755193536814E-5;
0,000146580528500389;
0,000165591480834829;
0,00013844407817278;
9,34502269795075E-5;
6,37490112538306E-5;
6,06041952825675E-5;
6,55504834208335E-5;
4,78108832409349E-5;
-7,54193303783473E-6;
-8,42818908232914E-5;
-0,000145693560041307;
-0,000162759965830824;
-0,00013664983906881;
-9,67031338201437E-5;
-7,53198292373946E-5;
-8,05014399457029E-5;
-8,91006536096944E-5;
-6,6895869184293E-5;
7,6015401138615E-7;
9,32007563569795E-5;
0,000167277244139884;
0,000189028389565609;
0,000158725138651955;
0,000108915989355302;
7,70572723550421E-5;
7,5165203054213E-5;
8,14164517999947E-5;
6,05355733312378E-5;
-4,04283641029622E-6;
-9,31395259310263E-5;
-0,000164444307269247;
-0,000184747146669306;
-0,000155327773228551;
-0,000109466734048611;
-8,40080306075049E-5;
-8,84890226020369E-5;
-9,75935735689241E-5;
-7,35134003932221E-5;
7,57770487839213E-8;
0,000100694560003573;
0,000181292471059875;
0,000205033772587214;
0,000172541423892944;
0,000119434537057914;
8,62419002639408E-5;
8,54389032442099E-5;
9,2708113151183E-5;
6,95152488952305E-5;
-1,84326110319756E-6;
-9,99984164215855E-5;
-0,000178567886644574;
-0,000201305463239712;
-0,000169557055815559;
-0,000119415566438304;
-9,09125670232474E-5;
-9,47365093660899E-5;
-0,000104123710453047;
-7,88077451095394E-5;
-1,29094962989128E-6;
0,000104759234582913;
0,000189705635629316;
0,00021483263395417;
0,000181040892436443;
0,000125999947671205;
9,22245786800092E-5;
9,23970102091357E-5;
0,000100464879812462;
7,57200749254983E-5;
-2,43830705187666E-7;
-0,0001045385083314;
-0,000188042960708076;
-0,000212487460210426;
-0,000179246013609129;
-0,000126238953437973;
-9,55874177998525E-5;
-9,87919179586543E-5;
-0,000108265763200134;
-8,22647213004929E-5;
-2,55659353314919E-6;
0,00943997711147594;
0,0228236786885279;
0,0165926629175367;
0,00961868237580722;
0,0122991590985698;
0,00712219898749537;
0,00573187112392474;
0,00468841772749062;
0,000920550840097969;
0,00103374139009581;
-0,00129701211641114;
-0,00218496295498488;
-0,003025684943901;
-0,00473823728228516;
-0,00501725619104438;
-0,0059538355991441;
-0,00604180103488996;
-0,00629249092321274;
-0,00707738814921376;
-0,00792412551264205;
-0,00924222456154908;
-0,0100480034985439;
-0,0102972752566322;
-0,00992157531632605;
-0,0090763601602201;
-0,00833219243290849;
-0,00773059887219239;
-0,00734860664665903;
-0,00696523104983649;
-0,00641571245220046;
-0,015115335231569;
-0,0277823350540701;
-0,0210460543188545;
-0,0137100044293654;
-0,0159641990013994;
-0,0101510817988118;
-0,00796356508215343;
-0,00626531337691551;
-0,00228539881663815;
-0,00270167495351736;
-0,000930005447657755;
-0,000402190184956907;
0,000619569849174872;
0,00308197876264254;
0,00439339205897735;
0,00627110649164571;
0,00700572126127471;
0,00766841626651335;
0,00884278088704145;
0,0102035623856639;
0,0121179027497335;
0,0134289392993828;
0,0139650252506217;
0,013708188314393;
0,0130024343386162;
0,0125664411913677;
0,0123854791531221;
0,012278533287219;
0,0117507427182827;
0,0105761436528854;
0,0090763544118363;
0,00774809384954353;
0,00705139151006609;
0,00694362896171298;
0,00700145314406802;
0,0067894152709016;
0,00618721437035827;
0,00552824096212378;
0,00526229265981757;
0,00557697584165821;
0,00620039725874802;
0,00657392422831772;
0,00628213382118608;
0,00534212574109057;
0,00417134346251627;
0,00323372949684598;
0,00267070560359856;
0,00222019141597452;
0,00146811265706501;
0,000231978119623257;
-0,00125556698766807;
-0,00250832986414822;
-0,00315806821228291;
-0,00323240046629104;
-0,00310812034497192;
-0,00318690899098424;
-0,0035621232976148;
-0,00395255836887941;
-0,00395651835836861;
-0,00341268503837524;
-0,00256959875378961;
-0,00192164949075492;
-0,00184409150900645;
-0,00232222416691464;
-0,00298987157069529;
-0,00343945359516916;
-0,00354627369812244;
-0,00354443069438526;
-0,00380012776502235;
-0,00447693125533988;
-0,0053727758451102;
-0,00606232287309919;
-0,00622496122251308;
-0,00588724799021919;
-0,00538224058828155;
-0,00506349140045975;
-0,0050128199872929;
-0,00498343378204387;
-0,00462347786972227;
-0,00379328750837224;
-0,00271318285398478;
-0,00181874532564922;
-0,00144029714948014;
-0,00156550134584919;
-0,00187365025241935;
-0,00200750022531392;
-0,00185725188591273;
-0,0016269051385166;
-0,00163606870500993;
-0,00202775989828764;
-0,00262637309070301;
-0,0030620464178865;
-0,00305640577885511;
-0,00263317244583059;
-0,00208204139997911;
-0,00170944685546495;
-0,00158478730975933;
-0,00149193504284886;
-0,00112440030265168;
-0,000361130008010961;
0,000605756702000283;
0,00139751479206783;
0,00172748830159921;
0,00160699529594523;
0,00131516503180001;
0,00116296504552596;
0,00124710048684265;
0,00139261927532178;
0,00132434525083566;
0,000919278237657647;
0,000329001043157444;
-0,000127808085244816;
-0,000211613638758553;
5,7053191019876E-5;
0,000429395480124628;
0,000643190771263741;
0,000640717305279739;
0,000609526138091638;
0,000813864161298569;
0,00135756832861081;
0,00207496353434444;
0,00264036307885243;
0,00280775914031256;
0,00258735527880308;
0,00221930178573164;
0,00197115943730515;
0,00192706882018697;
0,00193868472128037;
0,00177173144683938;
0,00132143905452658;
0,00071675732286452;
0,000228557540181637;
6,00283457360235E-5;
0,00019321687702605;
0,000416752968411155;
0,000508792454843048;
0,000421786818694786;
0,000316209356527302;
0,000416675742790671;
0,000810658056464482;
0,00135655780185487;
0,00177735344033788;
0,00186415888544762;
0,00162563598537063;
0,00126537724944599;
0,00101029150167045;
0,000932347679216484;
0,000907190845945401;
0,000737752594037964;
0,000335630143415522;
-0,000191434344241084;
-0,000616889036870618;
-0,000771277974640522;
-0,000670489388146194;
-0,000491845099551061;
-0,000420503282222346;
-0,000495115174672085;
-0,000580483676832246;
-0,000488687190906627;
-0,000147470178816527;
0,000323535827680047;
0,000691834365310915;
0,000782432641427108;
0,000602391596124179;
0,000321589626341536;
0,000129475279118529;
8,66570722425914E-5;
9,05479017653502E-5;
-2,20201265378892E-5;
-0,000324549955188343;
-0,000728675121321932;
-0,00104827065051376;
-0,00114460599631012;
-0,00103163477416291;
-0,000855621978869745;
-0,000768333684083611;
-0,000800396575259599;
-0,000839698033172904;
-0,000731710913273432;
-0,000417912834144992;
2,24248641960247E-6;
0,000336961619438364;
0,000442232264565317;
0,000323758391127654;
0,000120830905257019;
-1,11027376553452E-5;
-2,17180408403031E-5;
6,21187948423771E-6;
-5,96284003692065E-5;
-0,000279087018717686;
-0,000581173765288918;
-0,000816175880017701;
-0,000872969354615526;
-0,000763566150356932;
-0,000605995855916811;
-0,000521752118011899;
-0,000534175010896921;
-0,000551972143760234;
-0,000450683516925281;
-0,000184010087723913;
0,000167040988533615;
0,000447639677275954;
0,00054190682869488;
0,000454442137294918;
0,000297026476729575;
0,000194500200741753;
0,000187949882655648;
0,000212481936765224;
0,000163615920389248;
-6,10820497303215E-6;
-0,000241186210180277;
-0,000424473231188224;
-0,000469492390964373;
-0,000386393189924001;
-0,000267801765398683;
-0,000208054307285713;
-0,000223997043353236;
-0,000243035446808659;
-0,000167635273196492;
3,76373265666037E-5;
0,000308420985330517;
0,000523098342770868;
0,000591046844438601;
0,000515902305406619;
0,000384820847342137;
0,000295229057681445;
0,000279893579521089;
0,000289831548582268;
0,000245379444651544;
0,000110137718060834;
-7,41562082540016E-5;
-0,000219322898054594;
-0,000260784689984037;
-0,00020700601165592;
-0,000128028959482355;
-9,4110670661232E-5;
-0,000116436144379037;
-0,000139134354279973;
-8,86483364298235E-5;
6,0816531483452E-5;
0,000259731893650291;
0,000416012657288802;
0,000461463646795642;
0,000398835995203447;
0,000293383114942901;
0,000218140655449842;
0,000198400237108612;
0,00019917129337246;
0,000162685798134891;
6,23012255044666E-5;
-7,24024591271049E-5;
-0,000178802907083339;
-0,000211628285129049;
-0,000177851347500386;
-0,000127633799356078;
-0,000110092024769102;
-0,000131538449628178;
-0,000150938129451447;
-0,000115901469607262;
-9,11015504105736E-6;
0,000133008541577789;
0,000244397101492833;
0,000276601412407412;
0,000231575834354773;
0,000155276915389382;
9,92441889845298E-5;
8,21226364449991E-5;
8,11204624766757E-5;
5,76196545335335E-5;
-6,47907234616843E-6;
-9,22106020043204E-5;
-0,000159266752193281;
-0,000179210734325447;
-0,000157685736026047;
-0,000127501405581184;
-0,000119375253256436;
-0,000135453535492929;
-0,000147718476127712;
-0,000122265353163549;
-4,91320332186749E-5;
4,67403031390379E-5;
0,000122036340534124;
0,000145534080666952;
0,000118501447045474;
7,0083185868266E-5;
3,30805782009337E-5;
2,03044492149184E-5;
1,95064257783068E-5;
8,66548810040258E-6;
-2,28922479959331E-5;
-6,53506742358642E-5;
-9,76584774755549E-5;
-0,000105883375247497;
-9,44760689065242E-5;
-8,12443394673654E-5;
-8,10514621214958E-5;
-9,25132026031952E-5;
-9,89032453167717E-5;
-8,22753170625633E-5;
-3,89670086687682E-5;
1,60601802014603E-5;
5,91650910185407E-5;
7,40188772531276E-5;
6,13150139560693E-5;
3,57183767078718E-5;
1,38788822846621E-5;
3,54383867101464E-6;
1,47537509794708E-6;
-1,23131279770948E-7;
-5,53940322334343E-6;
-1,27439118185989E-5;
-1,710239938427E-5;
-1,7025338371248E-5;
-1,59026321243526E-5;
-1,87247608784438E-5;
-2,68609136615418E-5;
-3,59808401372783E-5;
-3,90437902380231E-5;
-3,17190372806587E-5;
-1,56718127635563E-5;
2,70691022112579E-6;
1,65933278210371E-5;
2,23742421283551E-5;
2,02662587076357E-5;
1,26109448769076E-5;
2,30048966593389E-6;
-7,2688466529377E-6;
-1,17440653701483E-5;
-6,89544331364332E-6;
8,40683682212052E-6;
2,96523837873924E-5;
4,76664234686226E-5;
5,36770589336395E-5;
4,52227769622285E-5;
2,81095347853683E-5;
1,22846890102516E-5;
4,48598581431823E-6;
3,5463147131028E-6;
2,33235294985502E-6;
-5,26459763704483E-6;
-1,83749662024341E-5;
-2,96460246893422E-5;
-3,19879174772515E-5;
-2,55780054039275E-5;
-1,84200842009741E-5;
-1,91824120851699E-5;
-2,81657184184187E-5;
-3,47294057209878E-5;
-2,46361854610585E-5;
7,76750895895679E-6;
5,25651870783855E-5;
8,91518849183465E-5;
0,000100198947146185;
8,40454976089577E-5;
5,54428964324665E-5;
3,36655602084593E-5;
2,73703347485765E-5;
2,85354068896703E-5;
2,05279329321696E-5;
-6,40186099760054E-6;
-4,53272045966972E-5;
-7,71360005256198E-5;
-8,58761451831779E-5;
-7,20449046893499E-5;
-5,21868472760726E-5;
-4,45246968772715E-5;
-5,24555478789001E-5;
-6,02333048204237E-5;
-4,54478905865851E-5;
1,26443299726327E-6;
6,56086596511951E-5;
0,000117706818435448;
0,000133308760978225;
0,000111436745995358;
7,41097548797127E-5;
4,81300713497465E-5;
4,36381809130256E-5;
4,69906824638492E-5;
3,38385264074775E-5;
-8,48322392246227E-6;
-6,80838775712192E-5;
-0,00011628384204907;
-0,000129936309227625;
-0,000109790225208435;
-7,92950922217792E-5;
-6,44088575576754E-5;
-7,10755093033673E-5;
-7,95050149545434E-5;
-6,07668952223673E-5;
-2,52033820749472E-6;
7,74863056232603E-5;
0,000142043799830386;
0,000161451506921872;
0,000135308635075441;
9,13941166083053E-5;
6,24248280949988E-5;
5,96404577170671E-5;
6,48910745484745E-5;
4,77174517263457E-5;
-6,80901567400651E-6;
-8,28191200321814E-5;
-0,000144037608005034;
-0,00016162181569964;
-0,000136510631889658;
-9,75882134826869E-5;
-7,69118204482416E-5;
-8,24743799546069E-5;
-9,13880341379874E-5;
-6,96786907831484E-5;
-2,68465379607937E-6;
8,92173456392065E-5;
0,000163218995007653;
0,000185480287372742;
0,000156081077040937;
0,000107215604194059;
7,60797326394632E-5;
7,46748444931141E-5;
8,13432812409573E-5;
6,09487444062134E-5;
-3,12251420832722E-6;
-9,19048932693177E-5;
-0,000163287944584109;
-0,000184070482047243;
-0,000155327303993518;
-0,000110068143632211;
-8,49920411311339E-5;
-8,96944212450855E-5;
-9,90265689110427E-5;
-7,52803817347458E-5;
-2,05676872067133E-6;
9,83671672868118E-5;
0,000179114727416802;
0,000203363922849225;
0,000171587728233418;
0,000119206074902185;
8,66268507113909E-5;
8,63189595311028E-5;
9,40032736801194E-5;
7,11333781769911E-5;
-8,11599911350607E-8;
-9,83617991080506E-5;
-0,000177321518054584;
-0,00020058398221439;
-0,000169313614164538;
-0,000119490969151011;
-9,11700939147842E-5;
-9,51523234292794E-5;
-0,000104761825865157;
-7,97074335069497E-5;
-2,36706579960971E-6;
0,000103717987892842;
0,000188942446988931;
0,000214514270527971;
0,000181220685859134;
0,000126664758130025;
9,335896917088E-5;
9,39861812331315E-5;
0,000102425160977223;
7,78290952773058E-5;
1,67356875593498E-6;
-0,000103139248302578;
-0,000187312658596005;
-0,000212332317986061;
-0,000179412944381814;
-0,000126496791475592;
-9,58673914798845E-5;
-9,91825409294487E-5;
-0,000108875661750734;
-8,30736758762059E-5;
-3,38030886251923E-6;
0,00010594940153798;
0,000193742569770582;
0,000220113049709741;
0,000186092242900844;
0,000130562322910142;
9,71828726731017E-5;
9,86351565587292E-5;
0,000107634783698223;
8,19969679464885E-5;
2,84492372950709E-6;
-0,000105895717620556;
-0,000193204890728823;
-0,000219329696364936;
-0,000185501936494806;
-0,000130752673001231;
-9,86203746978119E-5;
-0,000101314085817759;
-0,000110921869431187;
-8,484976935413E-5;
-4,3145009251411E-6;
0,000106186061963071;
0,000194906157859692;
0,000221615174338638;
0,000187527161808955;
0,000132028621187731;
9,91082477002015E-5;
0,000101265205353485;
0,000110637149568576;
8,4526647454448E-5;
4,02961880844493E-6;
-0,000106421608998479;
-0,000195101515813791;
-0,000221789800388123;
-0,000187707707470088;
-0,000132228868240053;
-9,93126009277722E-5;
-0,000101455393325386;
-0,000110861284483074;
-8,49467325871861E-5;
-4,87145826965225E-6;
0,00010502132390099;
0,000193254098714073;
0,000219884825954815;
0,000186256708666617;
0,000131605123197659;
9,95584283518879E-5;
0,000102285076022487;
0,000111842959636533;
8,57205502623962E-5;
5,25945242008783E-6;
-0,000105040866519928;
-0,000193611744701147;
-0,000220418174637577;
-0,000186648390369858;
-0,000131389259977361;
-9,83166075271797E-5;
-9,99891443895719E-5;
-0,00010911126540404;
-8,37220617588825E-5;
-5,2017500146657E-6;
0,000102591317905794;
0,000189148152648351;
0,000215341466753194;
0,000182597512162743;
0,000129454364997537;
9,86080878293106E-5;
0,000101776567616586;
0,000111355998367891;
8,56030031882532E-5;
6,33021845039924E-6;
-0,000102264380799254;
-0,000189488662585687;
-0,000216037085182212;
-0,000183047129257109;
-0,000128796613693129;
-9,60923782696714E-5;
-9,73657350662822E-5;
-0,000106135906700713;
-8,15683279687032E-5;
-5,49325095556244E-6;
9,89848801762894E-5;
0,000182897828233808;
0,000208362136382484;
0,000176847821249583;
0,000125748843244632;
9,6363600695112E-5;
9,98653483901131E-5;
0,000109333517999274;
8,42693479074525E-5;
7,13871181371376E-6;
-9,84658568797965E-5;
-0,000183318601310916;
-0,000209288885139197;
-0,000177449914240619;
-0,000124845305564384;
-9,29353733373605E-5;
-9,38669657643406E-5;
-0,000102225496647616;
-7,87083255278181E-5;
-5,78179909576543E-6;
9,44175469477267E-5;
0,000174918988061561;
0,000199424507668834;
0,000169414886163782;
0,000120782782361131;
9,30595559043769E-5;
9,68027471512729E-5;
0,000106053788099518;
8,19395702025829E-5;
7,7226765013813E-6;
-9,38551776749331E-5;
-0,000175507228354997;
-0,000200634061523673;
-0,000170234753128617;
-0,000119781010001888;
-8,90063303973617E-5;
-8,96455181299617E-5;
-9,75450759331431E-5;
-7,52518183779935E-5;
-6,01511342021493E-6;
8,91612626852953E-5;
0,000165657631405383;
0,000189024857781231;
0,000160727223180794;
0,000114879120998986;
8,89612074622674E-5;
9,28645127146667E-5;
0,000101811827186379;
7,88513586004436E-5;
8,15137778165097E-6;
-8,859001318027E-5;
-0,000166392673424231;
-0,000190464945584615;
-0,000161725107184219;
-0,000113813301228873;
-8,44428285955751E-5;
-8,48353970308296E-5;
-9,22433919356203E-5;
-7,13023082195839E-5;
-6,15655446347535E-6;
8,34442056665593E-5;
0,000155493336073614;
0,000177584766787863;
0,000151144200750524;
0,000108301932197513;
8,42801029140035E-5;
8,82701748994208E-5;
9,68427536346517E-5;
7,51872729297944E-5;
8,45620332773424E-6;
-8,28419766495832E-5;
-0,000156308177467415;
-0,000179164229423647;
-0,000152243696045652;
-0,000107164585931777;
-7,94036135406479E-5;
-7,95920335184521E-5;
-8,64888849908396E-5;
-6,69885447179772E-5;
-6,21162601281481E-6;
7,74295010334956E-5;
0,00014472281968965;
0,00016543870510469;
0,000140946814536904;
0,000101250012181638;
7,91706099062831E-5;
8,31827643212036E-5;
9,13246719125518E-5;
7,10802849604573E-5;
8,63811780539556E-6;
-7,67877192160443E-5;
-0,000145571641640114;
-0,000167092434978371;
-0,000142097367319044;
-0,000100052332545125;
-7,4048654226989E-5;
-7,407074434551E-5;
-8,04467693224816E-5;
-6,24399398790093E-5;
-6,20122525918063E-6;
7,12443422112843E-5;
0,00013359098705165;
0,000152866044277828;
0,00013036974482741;
9,38885621443348E-5;
7,37613705557246E-5;
7,77403731607287E-5;
8,541031860052E-5;
6,66449909381541E-5;
8,69769024140205E-6;
-7,05805643554186E-5;
-0,000134458721111837;
-0,000154561774595616;
-0,000131551072870026;
-9,26629876872107E-5;
-6,85133868013215E-5;
-6,8401822101311E-5;
-7,42551072887009E-5;
-5,77632110358977E-5;
-6,13818430846788E-6;
6,50038751057258E-5;
0,000122314885665447;
0,000140114208826788;
0,000119622849284406;
8,63687166950657E-5;
6,81731539514075E-5;
7,20728037258652E-5;
7,92426270064968E-5;
6,19916184157255E-5;
8,64683839311867E-6;
-6,43413547892931E-5;
-0,000123195942502387;
-0,000141830691950901;
-0,000120822994048971;
-8,51474024867835E-5;
-6,2904736538848E-5;
-6,26876140998133E-5;
-6,80230034211543E-5;
-5,30411470073474E-5;
-6,02582280982567E-6;
5,88132905736179E-5;
0,000111086134454308;
0,000127400601058574;
0,000108891780567647;
7,8826598811224E-5;
6,25167149354798E-5;
6,62987723853367E-5;
7,29514323135689E-5;
5,7221815251486E-5;
8,50302027284612E-6;
-5,816624188943E-5;
-0,00011197010116749;
-0,000129113919374968;
-0,000110094378201153;
-7,7630118149515E-5;
-5,73101434507863E-5;
-5,7011748992854E-5;
-6,18400851668532E-5;
-4,83418068270203E-5;
-5,86608625450757E-6;
5,2761184927393E-5;
0,000100065498170337;
0,000114907523108674;
9,83324126680315E-5;
7,13769819052607E-5;
5,68860639312667E-5;
6,05193129614785E-5;
6,66471372974208E-5;
5,2422099773283E-5;
8,28171704975862E-6;
-5,21355158459705E-5;
-0,000100938050601841;
-0,000116592337838862;
-9,95185770612543E-5;
-7,02172941201688E-5;
-5,18047015931736E-5;
-5,14459600480669E-5;
-5,57831274267779E-5;
-4,37244455709789E-5;
-5,66399126286687E-6;
4,69169955887751E-5;
8,93818632679305E-5;
0,000102781785759415;
8,80702267974051E-5;
6,4112166153305E-5;
5,13571420719982E-5;
5,48167619049312E-5;
6,04201039593174E-5;
4,76631488747386E-5;
7,99486846978539E-6;
-4,6316455904111E-5;
-9,02305029001965E-5;
-0,000104416825130698;
-8,92241055573374E-5;
-6,29986708285441E-5;
-4,64523733066801E-5;
-4,60510955079344E-5;
-4,99169516069244E-5;
-3,92398127972422E-5;
-5,42660558856076E-6;
4,13337128781846E-5;
7,91363039045332E-5;
9,11392573077031E-5;
7,82044660374078E-5;
5,71054362915754E-5;
4,59909243224916E-5;
4,92579762665502E-5;
5,43440622076258E-5;
4,30028869319477E-5;
7,65287983132216E-6;
-4,0762802778031E-5;
-7,99526695787073E-5;
-9,27091955389587E-5;
-7,93150229691816E-5;
-5,60471170377458E-5;
-4,13050332767733E-5;
-4,08761439387834E-5;
-4,42935643552039E-5;
-3,49289457780899E-5;
-5,16076272258146E-6;
3,60516403332334E-5;
6,94069737971005E-5;
8,00699952455842E-5;
6,88127062135965E-5;
5,04147949173199E-5;
4,08366104854432E-5;
4,38974663401118E-5;
4,84792857939516E-5;
3,84892074813704E-5;
7,26613315964209E-6;
-3,55148407234593E-5;
-7,01856059097795E-5;
-8,15639398074655E-5;
-6,98722420663566E-5;
-4,94192240596805E-5;
-3,64026491408782E-5;
-3,59584876937473E-5;
-3,8952592102588E-5;
-3,08233262690385E-5;
-4,87224672597926E-6;
3,11005432223039E-5;
6,02523043520621E-5;
6,96416909519885E-5;
5,99537250520801E-5;
4,40849973508365E-5;
3,59331594611139E-5;
3,8778886922399E-5;
4,28741060171328E-5;
3,41610384848561E-5;
6,84492186910763E-6;
-3,06009734933735E-5;
-6,09889925855149E-5;
-7,10513800228293E-5;
-6,09562437564697E-5;
-4,31572890423644E-5;
-3,17748373506504E-5;
-3,13254890465517E-5;
-3,39229946738551E-5;
-2,69462789090232E-5;
-4,56620219221936E-6;
2,65005924220742E-5;
5,17129927376553E-5;
5,99019075964025E-5;
5,16692729706135E-5;
3,81486053769854E-5;
3,13099069972356E-5;
3,39356632992075E-5;
3,7565644404651E-5;
3,0048728898884E-5;
6,39878985986142E-6;
-2,60397798944096E-5;
-5,24042739558153E-5;
-6,12210963327606E-5;
-5,26100276831533E-5;
-3,72915204148652E-5;
-2,74425977402102E-5;
-2,69961901423657E-5;
-2,92248356113223E-5;
-2,33144044553994E-5;
-4,24759462278335E-6;
2,22632069853143E-5;
4,38138863346074E-5;
5,08802795394229E-5;
4,39858511899018E-5;
3,26271137714103E-5;
2,6987347170225E-5;
2,9391840780995E-5;
3,25807773728241E-5;
2,61746872080025E-5;
5,93622208748845E-6;
-2,18416145038772E-5;
-4,44572843622798E-5;
-5,21048230305861E-5;
-4,48615469323146E-5;
-3,18417558985621E-5;
-2,34195750456018E-5;
-2,29825283700124E-5;
-2,48705545763579E-5;
-1,99385283512741E-5;
-3,92124110524533E-6;
1,83922649201068E-5;
3,65661666485954E-5;
4,25909601023586E-5;
3,69167840442672E-5;
2,75324353740154E-5;
2,29782669901217E-5;
2,5163253035141E-5;
2,79374202822127E-5;
2,25543729955218E-5;
5,46472109449182E-6;
-1,80097597828273E-5;
-3,71603517672201E-5;
-4,37188051488843E-5;
-3,77256497120783E-5;
-2,68187482987744E-5;
-1,97129338578228E-5;
-1,92901926418883E-5;
-2,08658860807933E-5;
-1,6824330615635E-5;
-3,59161442351596E-6;
1,48854183509295E-5;
2,99695521891765E-5;
3,50350843100294E-5;
3,04643084703762E-5;
2,28684091872953E-5;
1,92889429072135E-5;
2,12587599674315E-5;
2,36458472714387E-5;
1,91973172843962E-5;
4,99097399906371E-6;
-1,45414110882489E-5;
-3,05142058877917E-5;
-3,60659827518629E-5;
-3,12058887213961E-5;
-2,2225371468335E-5;
-1,63241897604421E-5;
-1,59194288649254E-5;
-1,72107537614289E-5;
-1,39729961283803E-5;
-3,26271651701535E-6;
1,17352577776782E-5;
2,40142755332409E-5;
2,82029567797847E-5;
2,46214192018646E-5;
1,86321303564999E-5;
1,59201639604492E-5;
1,76812968217625E-5;
1,97098273507563E-5;
1,61079817911809E-5;
4,52091024609677E-6;
-1,1428689744976E-5;
-2,45098342790755E-5;
-2,91380768175158E-5;
-2,52962694602145E-5;
-1,80578300293346E-5;
-1,32500766787243E-5;
-1,28659022842454E-5;
-1,390018179279E-5;
-1,13818846797365E-5;
-2,93807534644686E-6;
8,93025523291445E-6;
1,86827712106016E-5;
2,20759554913038E-5;
1,93734707697477E-5;
1,48150659491711E-5;
1,28680893712726E-5;
1,4428768250326E-5;
1,61275817222602E-5;
1,32864728394644E-5;
4,05969456847891E-6;
-8,65963381862612E-6;
-1,91302447311287E-5;
-2,29175842426372E-5;
-1,99829371523359E-5;
-1,43068303807664E-5;
-1,04833972501268E-5;
-1,01215227677678E-5;
-1,09251887824851E-5;
-9,0452227885893E-6;
-2,62078857138744E-6;
6,45558496237385E-6;
1,39511812651278E-5;
1,66282215882133E-5;
1,4699585378815E-5;
1,14040539729543E-5;
1,01250034578296E-5;
1,14948373998525E-5;
1,28926670682677E-5;
1,07291915617972E-5;
3,61171285095201E-6;
-6,2190851381104E-6;
-1,43520527468512E-5;
-1,73795649779973E-5;
-1,52456757932789E-5;
-1,09586297739686E-5;
-8,01378459585937E-6;
-7,6751855817337E-6;
-8,27357489616071E-6;
-6,95469115825807E-6;
-2,31354189328321E-6;
4,2938781818345E-6;
9,79072131400494E-6;
1,18282065132232E-5;
1,05739617760506E-5;
8,38222589743779E-6;
7,6800442943527E-6;
8,86969327900334E-6;
9,99479691527831E-6;
8,42946810973224E-6;
3,18062002207113E-6;
-4,08945291665546E-6;
-1,01468791738378E-5;
-1,24932210620736E-5;
-1,1059239393798E-5;
-7,99595338296342E-6;
-5,82835394507096E-6;
-5,51340279255095E-6;
-5,93059354719735E-6;
-5,09993496210314E-6;
-2,01861533862911E-6;
2,42590933604871E-6;
6,16891247910373E-6;
7,6400624048635E-6;
6,96705772106537E-6;
5,72986572267481E-6;
5,51987033703487E-6;
6,54075049801194E-6;
7,42061549547551E-6;
6,37814495637403E-6;
2,76939169604719E-6;
-2,25136448569333E-6;
-6,48257149940403E-6;
-8,2232934413613E-6;
-7,39452225235992E-6;
-5,39880005015227E-6;
-3,91227839304106E-6;
-3,62086663767513E-6;
-3,87956439342767E-6;
-3,46901944694741E-6;
-1,73788711487863E-6;
8,31203541544831E-7;
3,05068321981713E-6;
4,02488705437582E-6;
3,84663679583072E-6;
3,42515059542661E-6;
3,62925681334455E-6;
4,49328538291862E-6;
5,15437891480432E-6;
4,56410497452894E-6;
2,38037698046029E-6;
-6,84260443952492E-7;
-3,32429408292183E-6;
-4,53129542824295E-6;
-4,21960848147885E-6;
-3,14516998677752E-6;
-2,24930551757434E-6;
-1,98094669922675E-6;
-2,10240054498795E-6;
-2,04883610268332E-6;
-1,47284891092784E-6;
-5,11440078644928E-7;
3,99308819891742E-7;
9,4177851853132E-7;
1,17866942733345E-6;
1,44481493137626E-6;
1,99161063332092E-6;
2,71097241460564E-6;
3,17855541427468E-6;
2,97473184418617E-6;
2,01535371506017E-6;
6,33111175847796E-7;
-6,35483650462209E-7;
-1,37660681469855E-6;
-1,50069002323444E-6;
-1,21170530266557E-6;
-8,22220042761962E-7;
-5,7614177640209E-7;
-5,80091963493323E-7;
-8,25466796407785E-7;
-1,22463256671365E-6;
-1,62351735823795E-6;
-1,822781926909E-6;
-1,65123567273697E-6;
-1,07188054125305E-6;
-2,35290762097715E-7;
5,8943113676262E-7;
1,17638230978275E-6;
1,47435229990041E-6;
1,59631572633981E-6;
1,67556960601353E-6;
1,72224952362046E-6;
1,62133544773612E-6;
1,28258654769783E-6;
7,97136515662889E-7;
4,25758988132614E-7;
3,8675611617957E-7;
6,11541676352645E-7;
7,06882615762082E-7;
2,15489171919958E-7;
-9,94038893151216E-7;
-2,5264440112907E-6;
-3,65331226592232E-6;
-3,79641566098978E-6;
-2,94039054714944E-6;
-1,63970876333113E-6;
-5,95308089160939E-7;
-1,28613178433084E-7;
2,21863041294053E-8;
4,14420627798003E-7;
1,36179777025432E-6;
2,60453772827201E-6;
3,48384053643039E-6;
3,48848693921699E-6;
2,70918115697244E-6;
1,79171076898322E-6;
1,3956230090376E-6;
1,60024829495726E-6;
1,77820034505783E-6;
1,0886480390549E-6;
-7,81567706903461E-7;
-3,24124540991944E-6;
-5,1295821756071E-6;
-5,53565140727343E-6;
-4,46200707900533E-6;
-2,79295910089048E-6;
-1,58081043827731E-6;
-1,22245781509386E-6;
-1,19792458136885E-6;
-5,85811798218558E-7;
1,07438533805012E-6;
3,30093582358473E-6;
4,98932986798172E-6;
5,28300825223127E-6;
4,27058978485438E-6;
2,91056276057359E-6;
2,22231339107808E-6;
2,40800619308091E-6;
2,65339653318364E-6;
1,80860954689448E-6;
-5,87439511367286E-7;
-3,78830770931978E-6;
-6,28798673106146E-6;
-6,90990559120735E-6;
-5,6711789723766E-6;
-3,71919313927771E-6;
-2,38517548562764E-6;
-2,12361402484119E-6;
-2,20601271253619E-6;
-1,41938597693299E-6;
8,13307302170448E-7;
3,83174038355999E-6;
6,17423107124237E-6;
6,70721019255275E-6;
5,51585804647704E-6;
3,80631176157689E-6;
2,8844495139045E-6;
3,05248769758023E-6;
3,35161894638132E-6;
2,3897595042836E-6;
-4,11630582288668E-7;
-4,18717088116497E-6;
-7,16362533661959E-6;
-7,95876829987958E-6;
-6,60126947383721E-6;
-4,44190594168439E-6;
-3,02615472516344E-6;
-2,85029502671032E-6;
-3,02187755594814E-6;
-2,10122016939469E-6;
5,78216924542989E-7;
4,21638513990061E-6;
7,07371643497038E-6;
7,80084060690675E-6;
6,47843835687855E-6;
4,50226678421062E-6;
3,39914596412357E-6;
3,55082353574742E-6;
3,89142021710633E-6;
2,84610155036418E-6;
-2,53900542193768E-7;
-4,45637551578506E-6;
-7,79000588165102E-6;
-8,72011019642198E-6;
-7,2842477642734E-6;
-4,98370149373815E-6;
-3,52096092823529E-6;
-3,42024572745941E-6;
-3,664836239902E-6;
-2,64596269643647E-6;
3,68487372376447E-7;
4,47329004572382E-6;
7,72138411722595E-6;
8,60197295508862E-6;
7,19043006415634E-6;
5,02082573873806E-6;
3,78284872240721E-6;
3,91944591227372E-6;
4,29059616268133E-6;
3,19113796859892E-6;
-1,13815772858839E-7;
-4,61334745977096E-6;
-8,19880229338811E-6;
-9,22980292536053E-6;
-7,75046249147999E-6;
-5,36612397888839E-6;
-3,88610553849632E-6;
-3,85057532614844E-6;
-4,15354456626361E-6;
-3,06782724341906E-6;
1,83259992545423E-7;
4,61975198781213E-6;
8,14902497448057E-6;
9,14672536621548E-6;
7,68233413901766E-6;
5,38329670936729E-6;
4,05120879344754E-6;
4,173971087739E-6;
4,56605776326034E-6;
3,43775504925687E-6;
9,21072608991255E-9;
-4,67432468345873E-6;
-8,41970234375168E-6;
-9,52153093010866E-6;
-8,02845082111101E-6;
-5,60950679978086E-6;
-4,13728416824857E-6;
-4,15761226519257E-6;
-4,50582658784336E-6;
-3,38046573460647E-6;
2,14871007085116E-8;
4,67187316366814E-6;
8,38645339487453E-6;
9,46904635374193E-6;
7,98286588416165E-6;
5,6097738723964E-6;
4,21899057626784E-6;
4,32911416998296E-6;
4,73373605582515E-6;
3,59814720880841E-6;
1,15902700166063E-7;
-4,65430117481417E-6;
-8,48027983095243E-6;
-9,62665219909149E-6;
-8,14483860553449E-6;
-5,73288849240541E-6;
-4,28927925768161E-6;
-4,35680296155639E-6;
-4,73857387025245E-6;
-3,59687992021122E-6;
-1,18034145981195E-7;
4,64450998970219E-6;
8,4613891566792E-6;
9,60058449782998E-6;
8,11883795764242E-6;
5,71904869881441E-6;
4,30000745160506E-6;
4,39862351245141E-6;
4,80852200088368E-6;
3,68376231301677E-6;
2,07091867799133E-7;
-4,56701416574305E-6;
-8,40595355638799E-6;
-9,57412219484266E-6;
-8,12425206803165E-6;
-5,75394266445534E-6;
-4,35590235988591E-6;
-4,46263888031276E-6;
-4,86764343709603E-6;
-3,72932946096674E-6;
-2,36623120558899E-7;
4,55125845205721E-6;
8,3993936921441E-6;
9,57059475430659E-6;
8,1150790411965E-6;
5,72854329182617E-6;
4,30707434401898E-6;
4,39524857872176E-6;
4,80421998604627E-6;
3,70525920485051E-6;
2,83695463997638E-7;
-4,42493559325346E-6;
-8,21995374979316E-6;
-9,39046801015398E-6;
-7,9892918599234E-6;
-5,68894823597348E-6;
-4,34995185592318E-6;
-4,48859759102424E-6;
-4,90781414285182E-6;
-3,78929551207582E-6;
-3,35682336257761E-7;
4,40445621564145E-6;
8,22385328898677E-6;
9,4059110285503E-6;
7,9943964986799E-6;
5,65429286936233E-6;
4,2519940012108E-6;
4,33071444718064E-6;
4,73353229653178E-6;
3,67249056131081E-6;
3,46687844327344E-7;
-4,23930651057257E-6;
-7,94334529314025E-6;
-9,09979043789643E-6;
-7,76053349030422E-6;
-5,55278105859515E-6;
-4,28319681914089E-6;
-4,44712308541744E-6;
-4,87274086199198E-6;
-3,7874341971887E-6;
-4,16668450354087E-7;
4,21520806491428E-6;
7,95598435892482E-6;
9,13094307854587E-6;
7,7775788074044E-6;
5,51093060383803E-6;
4,14554558443672E-6;
4,21572821545335E-6;
4,60805562244181E-6;
3,59449242975088E-6;
3,97090147846648E-7;
-4,02015784454017E-6;
-7,59506879106857E-6;
-8,72381878452241E-6;
-7,45656825472759E-6;
-5,35892957442708E-6;
-4,16637198526112E-6;
-4,34961444646441E-6;
-4,7749537394946E-6;
-3,73357099121824E-6;
-4,81071024335629E-7;
3,99341887668703E-6;
7,61488429481302E-6;
8,7677221111403E-6;
7,48341999983207E-6;
5,31171399377024E-6;
3,99750450596042E-6;
4,05998478478085E-6;
4,43829574578033E-6;
3,4794919431993E-6;
4,35946032515044E-7;
-3,77636780161343E-6;
-7,19201733827997E-6;
-8,28197476782255E-6;
-7,09404416001383E-6;
-5,11952381004802E-6;
-4,00919555449693E-6;
-4,20643049625762E-6;
-4,62585358596147E-6;
-3,63668833659422E-6;
-5,30382080407706E-7;
3,7478448358508E-6;
7,217593601884E-6;
8,33596574677975E-6;
7,12877282466613E-6;
5,06855093353661E-6;
3,81666015529162E-6;
3,87220195960246E-6;
4,23370195747538E-6;
3,33492363223199E-6;
4,64307447115523E-7;
-3,51571534048035E-6;
-6,74911483629495E-6;
-7,79146530941657E-6;
-6,68774523010827E-6;
-4,84538160469127E-6;
-3,82039614430895E-6;
-4,02691341460428E-6;
-4,43573926114154E-6;
-3,50493989414553E-6;
-5,66080041210519E-7;
3,48614797649009E-6;
6,77918241202236E-6;
7,85316788920169E-6;
6,72862300470183E-6;
4,79205182794039E-6;
3,61085105047268E-6;
3,66014955988676E-6;
4,00269668190453E-6;
3,16744541273688E-6;
4,83217154597157E-7;
-3,2449438720373E-6;
-6,27942475215809E-6;
-7,26739847197158E-6;
-6,25068826536169E-6;
-4,54607028807792E-6;
-3,6077438613995E-6;
-3,8194187009655E-6;
-4,21383621082732E-6;
-3,34567037077115E-6;
-5,89613979718365E-7;
3,21496775584179E-6;
6,31285532571853E-6;
7,33471103856977E-6;
6,29617534861503E-6;
4,49158629677956E-6;
3,38701157461247E-6;
3,4306913542208E-6;
3,75272609174792E-6;
2,98298476819513E-6;
4,93701910842658E-7;
-2,96983558682234E-6;
-5,79426437403878E-6;
-6,72290335407749E-6;
-5,79421144947322E-6;
-4,22996376260588E-6;
-3,37809569619785E-6;
-3,5913576829793E-6;
-3,96834110345752E-6;
-3,1654375091321E-6;
-6,02386245932423E-7;
2,93998472970656E-6;
5,83006146986705E-6;
6,79398198926556E-6;
5,84295035326141E-6;
4,17534814545719E-6;
3,15121146535102E-6;
3,18983491014657E-6;
3,49030819945355E-6;
2,78675704255862E-6;
4,96753752427213E-7;
-2,69527796297692E-6;
-5,30331650388889E-6;
-6,16926316034581E-6;
-5,32809290274431E-6;
-3,90432329231692E-6;
-3,13744969800983E-6;
-3,34924262957021E-6;
-3,70646844752927E-6;
-2,97005214658618E-6;
-6,05742810378076E-7;
2,66599543614188E-6;
5,34061304442141E-6;
6,24250910140385E-6;
5,3788956664465E-6;
3,85042945178448E-6;
2,90871553382252E-6;
2,94278803943189E-6;
3,22109645757899E-6;
2,58331937681964E-6;
4,93334295586622E-7;
-2,42534158964192E-6;
-4,81476893984165E-6;
-5,61604929274187E-6;
-4,86065427687661E-6;
-3,57536998795984E-6;
-2,89099125468348E-6;
-3,09873861512611E-6;
-3,43450944691614E-6;
-2,76461341393444E-6;
-6,00963161448308E-7;
2,39698860531726E-6;
4,85280994631879E-6;
5,69008672593436E-6;
4,91249480787498E-6;
3,52290057267634E-6;
2,66403546516372E-6;
2,69401171656023E-6;
2,94993507239234E-6;
2,37660292918195E-6;
4,84352346851229E-7;
-2,16335095503489E-6;
-4,33542111250276E-6;
-5,07126377811047E-6;
-4,39888385321155E-6;
-3,24836314787902E-6;
-2,64315622661242E-6;
-2,84472191994712E-6;
-3,15789101206419E-6;
-2,55355147159889E-6;
-5,89251904417369E-7;
2,13621387281225E-6;
4,37356619378718E-6;
5,14492969582455E-6;
4,45088474883056E-6;
3,19788249295284E-6;
2,42098770121565E-6;
2,44727281985469E-6;
2,68092165930045E-6;
2,1699652619091E-6;
4,70667159814296E-7;
-1,91196178727555E-6;
-3,87082975972634E-6;
-4,54147940369617E-6;
-3,94855136250195E-6;
-2,92768647068692E-6;
-2,3976846723E-6;
-2,59133579266866E-6;
-2,8812359572246E-6;
-2,34067011464027E-6;
-5,71733326487762E-7;
1,88626010095727E-6;
3,90853623345991E-6;
4,61380099871926E-6;
3,99997130212841E-6;
2,87963542059134E-6;
2,18275427585749E-6;
2,20570919530533E-6;
2,41746709829066E-6;
1,96622945270601E-6;
4,53084763567606E-7;
-1,67322588489371E-6;
-3,42541826624627E-6;
-4,03197490633854E-6;
-3,51431636112841E-6;
-2,61691692826583E-6;
-2,15768199929915E-6;
-2,34205255733656E-6;
-2,60843194195469E-6;
-2,12919859477898E-6;
-5,49450145678795E-7;
1,64912219894039E-6;
3,46223870996197E-6;
4,10215724358177E-6;
3,56454236441652E-6;
2,57162742463903E-6;
1,95193309888216E-6;
1,97188140592594E-6;
2,16236258758751E-6;
1,76773461570681E-6;
4,32350030352783E-7;
-1,44866814514818E-6;
-3,00260446941534E-6;
-3,54687314738283E-6;
-3,0998535430748E-6;
-2,31891327093523E-6;
-1,92567345309692E-6;
-2,09972687244799E-6;
-2,34268703624881E-6;
-1,92183382836692E-6;
-5,23362307226444E-7;
1,42627022770684E-6;
3,03817090098196E-6;
3,61427473857978E-6;
3,14838471661221E-6;
2,27661913661829E-6;
1,73060214818185E-6;
1,74783563571705E-6;
1,91783462066744E-6;
1,57637544554637E-6;
4,09149811109701E-7;
-1,2393409764967E-6;
-2,60490926466106E-6;
-3,08926493818021E-6;
-2,70794890634117E-6;
-2,03588754763019E-6;
-1,70367009597111E-6;
-1,86666102956943E-6;
-2,08659700194112E-6;
-1,72078874282648E-6;
-4,94340430361113E-7;
1,21871653563742E-6;
2,63893247693733E-6;
3,1533888619442E-6;
2,75438748906214E-6;
1,99673814930397E-6;
1,52036979820378E-6;
1,53514735163129E-6;
1,68560766182662E-6;
1,393654162328E-6;
3,84107315361076E-7;
-1,04589862200498E-6;
-2,23407326322999E-6;
-2,66133502939946E-6;
-2,34060809570084E-6;
-1,76947875945944E-6;
-1,49321090283097E-6;
-1,64465289749877E-6;
-1,84221160821059E-6;
-1,52783976478176E-6;
-4,63172539723102E-7;
1,02707017682847E-6;
2,26633006635068E-6;
2,72181030244363E-6;
2,38464789862309E-6;
1,73355035668424E-6;
1,32242906753712E-6;
1,33498497154518E-6;
1,46695826952602E-6;
1,22070805698257E-6;
3,57784408778029E-7;
-8,68638248860634E-7;
-1,8911549500319E-6;
-2,26448299318982E-6;
-1,99915438439326E-6;
-1,52081954259339E-6;
-1,29542923711182E-6;
-1,43506175205985E-6;
-1,61108578652313E-6;
-1,34436932439235E-6;
-4,30560952199212E-7;
8,51602194456836E-7;
1,92148163515548E-6;
2,32104687345953E-6;
2,04057286018798E-6;
1,48812955940893E-6;
1,13760658456462E-6;
1,14815025977253E-6;
1,26277099587476E-6;
1,05837108278484E-6;
3,30687105739357E-7;
-7,07568827408789E-7;
-1,57662514576404E-6;
-1,89941913893506E-6;
-1,68432386228964E-6;
-1,29060572482755E-6;
-1,11109023966499E-6;
-1,23885149241079E-6;
-1,39433893860547E-6;
-1,17141045457848E-6;
-3,9713091811718E-7;
6,92292845013363E-7;
1,6049121836705E-6;
1,95190855851083E-6;
1,72296550708673E-6;
1,26111575411066E-6;
9,66408658594895E-7;
9,75133004167159E-7;
1,07358652589039E-6;
9,07191423368338E-7;
3,03259400361222E-7;
-5,62450012804957E-7;
-1,29046450204325E-6;
-1,56627939691877E-6;
-1,39634290417662E-6;
-1,07915697747422E-6;
-9,40650049511813E-7;
-1,05664275067567E-6;
-1,19271271341059E-6;
-1,00968603659542E-6;
-3,63427532923133E-7;
5,48879646023096E-7;
1,31664635861512E-6;
1,61461273601574E-6;
1,43211961472722E-6;
1,05278826923206E-6;
8,09069802083905E-7;
8,16148883808347E-7;
8,99647675355417E-7;
7,67480985863401E-7;
2,75889438858453E-7;
-4,32840968542917E-7;
-1,03223528101241E-6;
-1,2647111526937E-6;
-1,13501336568811E-6;
-8,86468315943345E-7;
-7,84292947096163E-7;
-8,88759492056118E-7;
-1,00661475579408E-6;
-8,59651181328494E-7;
-3,29922850292604E-7;
4,20903322901137E-7;
1,05628593255695E-6;
1,30887716801533E-6;
1,16788824238221E-6;
8,6310977088299E-7;
6,65590802581026E-7;
6,71181381210777E-7;
7,40947918624953E-7;
6,39344026091251E-7;
2,48912014531066E-7;
-3,1813711198522E-7;
-8,01159008282007E-7;
-9,93954554318808E-7;
-8,9978504516063E-7;
-7,12271012118332E-7;
-6,41969577698194E-7;
-7,35270843623401E-7;
-8,36173620542881E-7;
-7,2152516041179E-7;
-2,97018923624746E-7;
3,0774628034656E-7;
8,23087835277036E-7;
1,03400663294049E-6;
9,29766751995076E-7;
6,91778884483518E-7;
5,35772081366744E-7;
5,40021584926349E-7;
5,97270234042668E-7;
5,22709296448503E-7;
2,22610573467079E-7;
-2,17609378947397E-7;
-5,96188873161091E-7;
-7,52929032331215E-7;
-6,89814628534855E-7;
-5,56068131166235E-7;
-5,13445280642342E-7;
-5,96035162282576E-7;
-6,81273659969025E-7;
-5,95330848448619E-7;
-2,65054368233089E-7;
2,08673036193148E-7;
6,16031402289969E-7;
7,88965461771366E-7;
7,16953049851263E-7;
5,38283165578518E-7;
4,19256179025949E-7;
4,22297750695373E-7;
4,68217830991324E-7;
4,17362149274813E-7;
1,97224463510949E-7;
-1,30436101741894E-7;
-4,16062821559751E-7;
-5,40295982009236E-7;
-5,04037131540896E-7;
-4,1719089335927E-7;
-3,98322120801774E-7;
-4,70728191817228E-7;
-5,41605124577248E-7;
-4,80921750713494E-7;
-2,34304481288782E-7;
1,22849875189538E-7;
4,33875878050004E-7;
5,72456195835588E-7;
5,2840885780186E-7;
4,01935381877484E-7;
3,15554481009265E-7;
3,17512597368756E-7;
3,53257488126064E-7;
3,22961072230162E-7;
1,72941920202639E-7;
-5,57275156833783E-8;
-2,59358517950535E-7;
-3,54518196937439E-7;
-3,412020638964E-7;
-2,9482502042717E-7;
-2,96080512443678E-7;
-3,58884481993216E-7;
-4,16686526400037E-7;
-3,78010068401628E-7;
-2,04994092532473E-7;
4,93858205662518E-8;
2,75221511893807E-7;
3,82974174295153E-7;
3,62913843678042E-7;
2,81915854960416E-7;
2,24074111961421E-7;
2,2506451832754E-7;
2,517443156125E-7;
2,39072051522018E-7;
1,4991804377595E-7;
7,44959066815126E-9;
-1,24543755315597E-7;
-1,939207383576E-7;
-1,99938241871039E-7;
-1,88054773666548E-7;
-2,06096662785301E-7;
-2,59923405457549E-7;
-3,05915079808674E-7;
-2,86196723092585E-7;
-1,77292473749266E-7;
-1,26540552404559E-8;
1,38547913781896E-7;
2,18870263428984E-7;
2,19112413176284E-7;
1,77299612205526E-7;
1,44144611305086E-7;
1,44274258951891E-7;
1,62946169715195E-7;
1,65186617154377E-7;
1,28267430831311E-7;
6,00435426517046E-8;
-1,00160122501915E-8;
-5,67350487787823E-8;
-7,87797102689504E-8;
-9,58862527676398E-8;
-1,27677939388204E-7;
-1,73173707983913E-7;
-2,08578999838099E-7;
-2,04992762289228E-7;
-1,51328120780095E-7;
-6,4219964337993E-8;
2,22626934637809E-8;
7,83904584992163E-8;
9,55573645706814E-8;
8,70958959073027E-8;
7,50405946907781E-8;
7,44099371077322E-8;
8,60724330352802E-8;
1,00734299312901E-7;
1,08069884853606E-7;
1,03011965239883E-7;
8,58670012097812E-8;
5,88638866924217E-8;
2,37918465418662E-8;
-1,72809944523572E-8;
-6,00765678756329E-8;
-9,78999149901303E-8;
-1,23896260741865E-7;
-1,33836993131533E-7;
-1,27184491031797E-7;
-1,06263637688137E-7;
-7,52642646797383E-8;
-4,02770582800439E-8;
-9,26174479619847E-9;
1,0262316230419E-8;
1,60001939131301E-8;
1,47022941954246E-8;
2,02899377398097E-8;
4,51095441006946E-8;
8,93770884227939E-8;
1,37293533301549E-7;
1,64749023575223E-7;
1,54712923361862E-7;
1,09315029478674E-7;
4,88346132971768E-8;
-2,50882289898651E-9;
-3,33244702494249E-8;
-5,10304059697088E-8;
-7,2121366089521E-8;
-1,04912269616227E-7;
-1,39725615330406E-7;
-1,55676559572679E-7;
-1,38962650864527E-7;
-9,68734056822959E-8;
-5,42642412225099E-8;
-3,37602973653571E-8;
-3,5638408527824E-8;
-3,52545791569728E-8;
-2,31953120613137E-9;
7,22170893831111E-8;
1,63809930858089E-7;
2,28257786939702E-7;
2,32641430887063E-7;
1,79324581627016E-7;
1,03529882985094E-7;
4,58198520285403E-8;
2,13570030933565E-8;
1,08865114112426E-8;
-1,92023549322957E-8;
-8,45281788258104E-8;
-1,65518594113209E-7;
-2,20596094396485E-7;
-2,19491617832588E-7;
-1,68812290892124E-7;
-1,07552120762362E-7;
-7,50287131556906E-8;
-7,74047406643732E-8;
-8,14206455786796E-8;
-4,21997224317667E-8;
5,65883140796194E-8;
1,83442006853312E-7;
2,7797783450924E-7;
2,94438998530264E-7;
2,35333216385813E-7;
1,47871042159093E-7;
8,57104168075199E-8;
6,69596312274558E-8;
6,27370726124436E-8;
2,55811997482658E-8;
-6,60266250755421E-8;
-1,84520773487942E-7;
-2,71607161304559E-7;
-2,83656831322903E-7;
-2,26587418730991E-7;
-1,50655782739293E-7;
-1,08585883171765E-7;
-1,11383809216008E-7;
-1,19061193468534E-7;
-7,51746172907162E-8;
4,24749198204707E-8;
1,97032410786076E-7;
3,15438581860754E-7;
3,41836661763501E-7;
2,78806591090713E-7;
1,82898723508277E-7;
1,17955578791912E-7;
1,04298276127808E-7;
1,05406033283608E-7;
6,29020396850436E-8;
-4,93722858288241E-8;
-1,97569327077465E-7;
-3,10242777078857E-7;
-3,33195303803925E-7;
-2,71667370740671E-7;
-1,84608227351879E-7;
-1,35197949748993E-7;
-1,38345538291963E-7;
-1,49014457829401E-7;
-1,01886179471251E-7;
2,98425681685648E-8;
2,05374571785834E-7;
3,42099100402798E-7;
3,76499871622325E-7;
3,11157636636343E-7;
2,09617350947178E-7;
1,43327732411856E-7;
1,34170462558833E-7;
1,39759775598355E-7;
9,34244860788009E-8;
-3,45134390521056E-8;
-2,05451589632042E-7;
-3,37962515430016E-7;
-3,69773850972279E-7;
-3,05466546058441E-7;
-2,10402141895871E-7;
-1,55604581693242E-7;
-1,59037357455508E-7;
-1,72090962634872E-7;
-1,22959533011304E-7;
1,86420330812745E-8;
2,09213064601004E-7;
3,59336756457809E-7;
3,99998539599887E-7;
3,33727270634619E-7;
2,28991276856917E-7;
1,62573121864035E-7;
1,57351522114726E-7;
1,66650483433104E-7;
1,17807927787464E-7;
-2,13830160233242E-8;
-2,08902570599537E-7;
-3,56148522247616E-7;
-3,94976237228624E-7;
-3,29332144662055E-7;
-2,28991763598441E-7;
-1,70515559593342E-7;
-1,74171289927567E-7;
-1,89065919552082E-7;
-1,38995016163688E-7;
8,81200853301906E-9;
2,09232120733725E-7;
3,68445321578466E-7;
4,13815247388017E-7;
3,47779919103248E-7;
2,41930669328965E-7;
1,76404191015201E-7;
1,745894532709E-7;
1,86891546349897E-7;
1,36685022280791E-7;
-9,90074125036361E-9;
-2,08606849221277E-7;
-3,66098769480072E-7;
-4,10293459278198E-7;
-3,44536897757699E-7;
-2,41277010867916E-7;
-1,80603741523812E-7;
-1,84427149370747E-7;
-2,00678665784717E-7;
-1,50570282670761E-7;
2,84778763791017E-10;
2,06065884752491E-7;
3,70622989309205E-7;
4,19329994679404E-7;
3,54499759569135E-7;
2,4929397065064E-7;
1,85496608216584E-7;
1,86592763066034E-7;
2,01265901481988E-7;
1,5066967434745E-7;
2,33650740579436E-11;
-2,0518425209451E-7;
-3,69014533984423E-7;
-4,17117751351984E-7;
-3,52269655900699E-7;
-2,48103798103749E-7;
-1,86503460306079E-7;
-1,90440444061354E-7;
-2,07623540252921E-7;
-1,58232735041103E-7;
-7,01644691505789E-9;
2,0028974091029E-7;
3,66976997553345E-7;
4,17819872858871E-7;
3,54981679225063E-7;
2,51876198669384E-7;
1,90484445902039E-7;
1,94032799586436E-7;
2,10508350065475E-7;
1,60345108331486E-7;
8,48835391103439E-9;
-1,99210055531333E-7;
-3,66011477295782E-7;
-4,16736626949483E-7;
-3,53635217570096E-7;
-2,50255777401268E-7;
-1,88802945626993E-7;
-1,92810257819332E-7;
-2,10550534551291E-7;
-1,62497067359528E-7;
-1,31748527021019E-8;
1,92422832550768E-7;
3,58512546715041E-7;
4,10452815566553E-7;
3,50237548407086E-7;
2,50417330868317E-7;
1,91956030300646E-7;
1,97535288036881E-7;
2,1531243274698E-7;
1,66260677568506E-7;
1,55964809467745E-8;
-1,91193089662512E-7;
-3,58102065818852E-7;
-4,10333188606359E-7;
-3,49650338360198E-7;
-2,48462433551751E-7;
-1,88050810623991E-7;
-1,92083127680094E-7;
-2,10060017207421E-7;
-1,63842225414731E-7;
-1,82732821627827E-8;
1,82929643867919E-7;
3,46147843702353E-7;
3,98295102266641E-7;
3,41183561179958E-7;
2,45591766296481E-7;
1,90459458037662E-7;
1,97684836187816E-7;
2,16318500281968E-7;
1,68928524843894E-7;
2,14526144490174E-8;
-1,81596301190338E-7;
-3,46210446462129E-7;
-3,98985118198874E-7;
-3,41244418503161E-7;
-2,43388877144636E-7;
-1,84748948338636E-7;
-1,88767355001498E-7;
-2,06705496455681E-7;
-1,62712149757451E-7;
-2,23983521935093E-8;
1,72225629183404E-7;
3,30703658329047E-7;
3,82304890308536E-7;
3,28654726800685E-7;
2,38015332765966E-7;
1,8649257067017E-7;
1,95015557815368E-7;
2,14122326173385E-7;
1,68829646588093E-7;
2,61630141393866E-8;
-1,70824617155357E-7;
-3,31161159216734E-7;
-3,8366628696779E-7;
-3,29260262363611E-7;
-2,35637326479578E-7;
-1,79353870511389E-7;
-1,83325045717378E-7;
-2,00992391341056E-7;
-1,59515337425443E-7;
-2,56370393456071E-8;
1,60671708214071E-7;
3,12914002789676E-7;
3,63343431372994E-7;
3,13396109468927E-7;
2,28242301471929E-7;
1,8050975504597E-7;
1,90017227144334E-7;
2,09267100126332E-7;
1,66404213193066E-7;
2,98359519860395E-8;
-1,59237406808479E-7;
-3,13698577122176E-7;
-3,65247666786973E-7;
-3,1445236860157E-7;
-2,25756597506307E-7;
-1,72280608847783E-7;
-1,76174148354412E-7;
-1,93377190485562E-7;
-1,54621344551915E-7;
-2,80752212089308E-8;
1,48586113422876E-7;
2,93425884292184E-7;
3,42171988247975E-7;
2,96077492340704E-7;
2,16769651352234E-7;
1,72919673586824E-7;
1,83134795978163E-7;
2,02245050764374E-7;
1,62053401906801E-7;
3,25740026397564E-8;
-1,47145814731883E-7;
-2,94474836337108E-7;
-3,4450659324338E-7;
-2,97495874121175E-7;
-2,14230635372853E-7;
-1,63898294365599E-7;
-1,67688459356515E-7;
-1,84272217065782E-7;
-1,48368929326461E-7;
-2,97950745393851E-8;
1,36239939633752E-7;
2,72804225220043E-7;
3,19461355994339E-7;
2,7728310176667E-7;
2,04037774836305E-7;
1,64090979257471E-7;
1,74768671758605E-7;
1,93505090192425E-7;
1,56145772783425E-7;
3,4479390960968E-8;
-1,34816926348968E-7;
-2,74062236793191E-7;
-3,22124282464343E-7;
-2,78987081985423E-7;
-2,01493041676011E-7;
-1,54536966027406E-7;
-1,58201108571873E-7;
-1,74040299291747E-7;
-1,41058022320689E-7;
-3,08815415082711E-8;
1,2386254147461E-7;
2,51540144378189E-7;
2,95793482654862E-7;
2,5752596143266E-7;
1,90433738176392E-7;
1,54347658156948E-7;
1,65274292377361E-7;
1,834411895469E-7;
1,49006932365127E-7;
3,56489843498264E-8;
-1,22476296919474E-7;
-2,5295387670608E-7;
-2,98695049235248E-7;
-2,59447590861179E-7;
-1,87922740570063E-7;
-1,44488166528833E-7;
-1,48007065092691E-7;
-1,63007644320487E-7;
-1,32958877233891E-7;
-3,14078041064312E-8;
1,11649480308481E-7;
2,30053326611195E-7;
2,71672420349629E-7;
2,37248733275456E-7;
1,76294568915039E-7;
1,43977427722287E-7;
1,54966863210818E-7;
1,72408390510196E-7;
1,40934309607011E-7;
3,6176559359705E-8;
-1,10315417063808E-7;
-2,31580182282773E-7;
-2,74733381007696E-7;
-2,39327346799514E-7;
-1,73850709972932E-7;
-1,34003572666272E-7;
-1,37362079224986E-7;
-1,51455985716142E-7;
-1,24306118894315E-7;
-3,14507938484882E-8;
9,97569015419152E-8;
2,08696619644322E-7;
2,47522902097856E-7;
2,16830606057006E-7;
1,61909036117125E-7;
1,33225729972921E-7;
1,44122445272493E-7;
1,60718217033496E-7;
1,32187775860519E-7;
3,61483306777948E-8;
-9,84884910377228E-8;
-2,10296506045917E-7;
-2,50675295765474E-7;
-2,19012642134269E-7;
-1,59559102511571E-7;
-1,23303596734839E-7;
-1,26489965473076E-7;
-1,39630346207608E-7;
-1,15308348723155E-7;
-3,10791333371338E-8;
8,83132291043962E-8;
1,87762980699177E-7;
2,23704889511807E-7;
1,9659316468235E-7;
1,47526697314079E-7;
1,22310037518472E-7;
1,32980382614345E-7;
1,48638955813833E-7;
1,22993167269011E-7;
3,56470036962683E-8;
-8,71179435879933E-8;
-1,89403807157675E-7;
-2,26889140074104E-7;
-1,98829721779977E-7;
-1,45290585657417E-7;
-1,12574728256462E-7;
-1,15577628473436E-7;
-1,27738707016978E-7;
-1,06143521774643E-7;
-3,0357110388307E-8;
7,74191034261796E-8;
1,6749264262212E-7;
2,0050872724885E-7;
1,76796162796568E-7;
1,33351151549898E-7;
1,11411699662162E-7;
1,21746231382641E-7;
1,36401157781442E-7;
1,13551565139305E-7;
3,47506338297932E-8;
-7,6304302824309E-8;
-1,69144755455296E-7;
-2,03675039723071E-7;
-1,79050114341477E-7;
-1,31245350689975E-7;
-1,01973545754754E-7;
-1,04787636772624E-7;
-1,15960129638154E-7;
-9,69657547436198E-8;
-2,93463128328243E-8;
6,71490911719502E-8;
1,4807650344619E-7;
1,78171858384531E-7;
1,57657549780293E-7;
1,19555342462956E-7;
1,00680892894993E-7;
1,10593887724638E-7;
1,24205830156243E-7;
1,04031702923336E-7;
3,35281269742277E-8;
-6,61177594851544E-8;
-1,49714673917826E-7;
-1,81280318416728E-7;
-1,59894779593568E-7;
-1,17588989673749E-7;
-9,16309676020566E-8;
-9,42516064419887E-8;
-1,04438993060174E-7;
-8,79030049615911E-8;
-2,81019879557391E-8;
5,75554887446662E-8;
1,2965994372982E-7;
1,56882588429475E-7;
1,39347640844742E-7;
1,06274872710911E-7;
9,02470195235046E-8;
9,96673353535087E-8;
1,12215104899188E-7;
9,4579871344424E-8;
3,20439864725607E-8;
-5,66100389532538E-8;
-1,31263274504444E-7;
-1,59898395733589E-7;
-1,41540551361139E-7;
-1,0445481526094E-7;
-8,16504431174908E-8;
-8,40764926527583E-8;
-9,32990357386555E-8;
-7,90621242725416E-8;
-2,66716920990065E-8;
4,86713387160114E-8;
1,12349896736063E-7;
1,36779751219923E-7;
1,21998124255956E-7;
9,36171149775174E-8;
8,02064733554533E-8;
8,90855436609751E-8;
1,00566678788843E-7;
8,53155471264254E-8;
3,03582288923587E-8;
-4,78129577251496E-8;
-1,13903246637693E-7;
-1,39673571778788E-7;
-1,241217522104E-7;
-9,19492459453727E-8;
-7,21172724135018E-8;
-7,43477104995127E-8;
-8,26319215549752E-8;
-7,05300388138705E-8;
-2,51048374277303E-8;
4,05160650673327E-8;
9,62218801655295E-8;
1,17962143353698E-7;
1,0570230827108E-7;
8,16633593246428E-8;
7,06420169551932E-8;
7,89411446927362E-8;
8,93670159585207E-8;
7,6336356358282E-8;
2,85192155571277E-8;
-3,97438729599379E-8;
-9,77111148869756E-8;
-1,20716159744924E-7;
-1,07739839091706E-7;
-8,01456754437818E-8;
-6,30947784311036E-8;
-6,5133424203259E-8;
-7,25135207621046E-8;
-6,23763591463326E-8;
-2,34400664845599E-8;
3,30925962602214E-8;
8,13196706846565E-8;
1,00496263713698E-7;
9,0526867898545E-8;
7,04715795683978E-8;
6,16110821241731E-8;
6,93086454181182E-8;
7,87037528160226E-8;
6,7723975872591E-8;
2,65781604040149E-8;
-3,24056778010512E-8;
-8,27349143019435E-8;
-1,03090882806904E-7;
-9,24640607068527E-8;
-6,91057161680047E-8;
-5,46262655270015E-8;
-5,64768795767473E-8;
-6,29974155769279E-8;
-5,4652901935585E-8;
-2,17139324531192E-8;
2,63927647711852E-8;
6,76613705072303E-8;
8,44143086907634E-8;
7,65077177048538E-8;
6,00789564731648E-8;
5,31582246745295E-8;
6,02430162910251E-8;
6,86407975565598E-8;
5,95380267224557E-8;
2,45745818744814E-8;
-2,57855855099162E-8;
-6,89948143214689E-8;
-8,68418807260906E-8;
-7,83336646666486E-8;
-5,88591781565137E-8;
-4,67466822889902E-8;
-4,8413594881833E-8;
-5,41204692374898E-8;
-4,739892361204E-8;
-1,99561847894613E-8;
2,03990905861325E-8;
5,5244986279667E-8;
6,97276386468641E-8;
6,36615207221095E-8;
5,05068174114488E-8;
4,53104238993213E-8;
5,17801307928943E-8;
5,92229075930393E-8;
5,18254540047766E-8;
2,25439389745818E-8;
-1,98691674568352E-8;
-5,6491479377799E-8;
-7,19793806691224E-8;
-6,53684805480647E-8;
-4,94280238068759E-8;
-3,94726233423269E-8;
-4,09607501531104E-8;
-4,59038795236064E-8;
-4,06406728769793E-8;
-1,81974598598937E-8;
1,5086079489971E-8;
4,40493927741412E-8;
5,64201023938709E-8;
5,19826942132723E-8;
4,17589261665575E-8;
3,80807244850544E-8;
4,39421696625672E-8;
5,04804180919063E-8;
4,46183123724024E-8;
2,05173557970989E-8;
-1,46274905577202E-8;
-4,52058087013955E-8;
-5,84938305662124E-8;
-5,35663244202099E-8;
-4,08139660810999E-8;
-3,28061965195979E-8;
-3,41250946836882E-8;
-3,83591077771961E-8;
-3,43907028051875E-8;
-1,64587627254767E-8;
1,04209321270677E-8;
3,4041365584638E-8;
4,44633145242407E-8;
4,1451208502194E-8;
3,38270731679525E-8;
3,14730932691521E-8;
3,67422865802439E-8;
4,24268431140598E-8;
3,79347080483268E-8;
1,85205490523269E-8;
-1,00307138118816E-8;
-3,51048032575261E-8;
-4,63586707184622E-8;
-4,29103455743177E-8;
-3,3009472807143E-8;
-2,67481637868344E-8;
-2,79049709209289E-8;
-3,14833986385391E-8;
-2,86571291874915E-8;
-1,47609508228699E-8;
6,3683192032477E-9;
2,51723540543564E-8;
3,38106536842077E-8;
3,20334775389928E-8;
2,6695159197706E-8;
2,54827524088961E-8;
3,01777959198801E-8;
3,50660102953786E-8;
3,17863738422323E-8;
1,65767280277087E-8;
-6,04135250741245E-9;
-2,61433007688498E-8;
-3,55275228048731E-8;
-3,33659088882544E-8;
-2,59950924199237E-8;
-2,12857682653414E-8;
-2,22896811672555E-8;
-2,52658206891888E-8;
-2,34364930543213E-8;
-1,31201025760021E-8;
2,8885162379677E-9;
1,73852642394074E-8;
2,4403466910847E-8;
2,36844226442831E-8;
2,03347135820526E-8;
2,00938025887513E-8;
2,42401706821119E-8;
2,83914521901374E-8;
2,61730202724765E-8;
1,470242105732E-8;
-2,61861358606942E-9;
-1,82662893051982E-8;
-2,59495962070004E-8;
-2,48926284113622E-8;
-1,97442418752283E-8;
-1,64010507406559E-8;
-1,72610754628895E-8;
-1,96892715393927E-8;
-1,87195546676691E-8;
-1,15497549653742E-8;
-5,97730347257823E-11;
1,0620904183342E-8;
1,61772006084029E-8;
1,63502526109376E-8;
1,47116189493033E-8;
1,52871342525715E-8;
1,89131113769231E-8;
2,23849693518743E-8;
2,10876140315231E-8;
1,29141801196027E-8;
2,76869426973028E-10;
-1,14131239476808E-8;
-1,75561015919947E-8;
-1,74367191896357E-8;
-1,42216287071638E-8;
-1,20685340148568E-8;
-1,27942880697268E-8;
-1,47289671035064E-8;
-1,44932960539315E-8;
-1,00592267713048E-8;
-2,5192599084053E-9;
4,80837215004303E-9;
9,05863526084093E-9;
9,97380865053681E-9;
9,78884547985695E-9;
1,10371132942955E-8;
1,41728713282091E-8;
1,70256842202862E-8;
1,65171470587603E-8;
1,12215922152835E-8;
2,69092181450987E-9;
-5,51404497437566E-9;
-1,0277896865009E-8;
-1,09434858487238E-8;
-9,38965383057436E-9;
-8,26188501494166E-9;
-8,86457953020718E-9;
-1,03554225330699E-8;
-1,07345639761581E-8;
-8,65746456026514E-9;
-4,53621522116535E-9;
-1,2109087206739E-10;
2,97100145510853E-9;
4,48989546759685E-9;
5,52302196506678E-9;
7,31417059712843E-9;
9,993107584465E-9;
1,22854516255688E-8;
1,2442860225762E-8;
9,63275821553941E-9;
4,66396052507553E-9;
-5,02383208462326E-10;
-4,03960139839139E-9;
-5,35000570172893E-9;
-5,20732775351528E-9;
-4,95255972005778E-9;
-5,44035981338292E-9;
-6,53602014106698E-9;
-7,42515923599787E-9;
-7,34953615359186E-9;
-6,14861417202211E-9;
-4,24096077337728E-9;
-2,16664545817584E-9;
-1,64845434276686E-10;
1,86873309778334E-9;
4,08656976579665E-9;
6,34372413670524E-9;
8,13097335622655E-9;
8,84383336913084E-9;
8,1555687095687E-9;
6,24030391765881E-9;
3,69426616280821E-9;
1,23905632633502E-9;
-5,88176852939078E-10;
-1,62715617043866E-9;
-2,10480680900793E-9;
-2,48769179972344E-9;
-3,23604197977314E-9;
-4,53714341260565E-9;
-6,13785675253088E-9;
-7,40202497521388E-9;
-7,62216925287058E-9;
-6,43196172824531E-9;
-4,05990723276401E-9;
-1,22011366898205E-9;
1,32116884258434E-9;
3,19068774710373E-9;
4,52868324274912E-9;
5,69311496683722E-9;
6,79005686827141E-9;
7,46133604726428E-9;
7,14781359878114E-9;
5,63614682456159E-9;
3,40577198778354E-9;
1,39614294841273E-9;
3,15158204383881E-10;
2,6163700372083E-11;
-4,20466127453428E-10;
-2,04598310050625E-9;
-5,02576069703931E-9;
-8,33494062780681E-9;
-1,03355158356613E-8;
-9,90732609511947E-9;
-7,26227716984799E-9;
-3,78933405397279E-9;
-1,01609282925431E-9;
4,98049312226E-10;
1,43811360915072E-9;
2,96325329834203E-9;
5,53925263958177E-9;
8,36646369413452E-9;
9,92903003196485E-9;
9,23336659298402E-9;
6,70036413037915E-9;
3,90882645990636E-9;
2,338575254442E-9;
2,13564013976258E-9;
1,9523978263753E-9;
7,90846647748767E-11;
-4,0124022329833E-9;
-8,98769236555422E-9;
-1,24524375890502E-8;
-1,26695263433617E-8;
-9,83777536087001E-9;
-5,88955094856105E-9;
-2,9628680165648E-9;
-1,76869573724966E-9;
-1,17665572993796E-9;
6,27587997954913E-10;
4,40277322020435E-9;
8,99526783298081E-9;
1,21073678341125E-8;
1,21065791097714E-8;
9,36061412896197E-9;
5,95792602609506E-9;
4,00455462219643E-9;
3,87728352465708E-9;
3,91677810112229E-9;
1,86580891333594E-9;
-3,09624320453518E-9;
-9,39450168277329E-9;
-1,40365334466968E-8;
-1,47952622262105E-8;
-1,18496808898569E-8;
-7,56290468737877E-9;
-4,55513584406284E-9;
-3,6466038182957E-9;
-3,35605211168121E-9;
-1,34647102925408E-9;
3,37864019248258E-9;
9,38183579340105E-9;
1,3749550916126E-8;
1,43349691362779E-8;
1,14521650442331E-8;
7,58971740732618E-9;
5,34445844508395E-9;
5,28408060062539E-9;
5,51290979081897E-9;
3,34283179216653E-9;
-2,27595451495575E-9;
-9,59094135643416E-9;
-1,51538029581713E-8;
-1,63566525304835E-8;
-1,33628863503681E-8;
-8,8568250719863E-9;
-5,8234385629029E-9;
-5,17076866299768E-9;
-5,13946562616516E-9;
-2,98777612767615E-9;
2,46304631570668E-9;
9,56233099535964E-9;
1,49187862341443E-8;
1,59884015372612E-8;
1,30371959342058E-8;
8,84668524786487E-9;
6,39199451344745E-9;
6,3911025198946E-9;
6,77522595624774E-9;
4,53896029366535E-9;
-1,54837228883933E-9;
-9,61007513045873E-9;
-1,58646596963975E-8;
-1,74251679995581E-8;
-1,44357349256083E-8;
-9,81312283979663E-9;
-6,80545670234537E-9;
-6,37709760227266E-9;
-6,56401762276904E-9;
-4,326431858037E-9;
1,65273471899868E-9;
9,56754194652947E-9;
1,56772490450493E-8;
1,71394278783831E-8;
1,41740942293788E-8;
9,77369974481625E-9;
7,18087507242218E-9;
7,22934489314051E-9;
7,74058116658415E-9;
5,48205125149989E-9;
-9,0792962874912E-10;
-9,47881848406718E-9;
-1,62252562991298E-8;
-1,80634647069852E-8;
-1,51231085248513E-8;
-1,04729270256427E-8;
-7,53258648622547E-9;
-7,29954995238196E-9;
-7,66807713436508E-9;
-5,39226527934359E-9;
9,42412257791419E-10;
9,42567138999367E-9;
1,6079157312592E-8;
1,78508588804916E-8;
1,49202658961671E-8;
1,04093441510106E-8;
7,74018604900056E-9;
7,83275346124691E-9;
8,44324683934296E-9;
6,2001631670961E-9;
-3,50921364371537E-10;
-9,22431569154363E-9;
-1,62854067690925E-8;
-1,83347661810082E-8;
-1,54803548122486E-8;
-1,08744842292145E-8;
-8,03491419941057E-9;
-7,97115540539414E-9;
-8,48742871772769E-9;
-6,21414840144873E-9;
3,25594660428565E-10;
9,16420218136284E-9;
1,61767729357927E-8;
1,81839990621754E-8;
1,53283809394155E-8;
1,07915918568519E-8;
8,0981061504158E-9;
8,22663699194692E-9;
8,91432837686262E-9;
6,7187648528027E-9;
1,27013210384757E-10;
-8,87294928058279E-9;
-1,60957125989142E-8;
-1,82917280380763E-8;
-1,55541301252724E-8;
-1,10550791184183E-8;
-8,34136307064478E-9;
-8,42135929890173E-9;
-9,0556571962861E-9;
-6,81780940782041E-9;
-2,01628072313153E-10;
8,80559143732654E-9;
1,6020082170929E-8;
1,81981635571765E-8;
1,5447947324748E-8;
1,09571563387801E-8;
8,28396400703568E-9;
8,4431074335403E-9;
9,18587499772572E-9;
7,06039884236696E-9;
5,3141413128912E-10;
-8,44267493078655E-9;
-1,56990649718122E-8;
-1,79891103734119E-8;
-1,5389510560375E-8;
-1,10468190231978E-8;
-8,47935703472205E-9;
-8,67907102774309E-9;
-9,40498485479682E-9;
-7,2306396231877E-9;
-6,46343229947394E-10;
8,37191500346283E-9;
1,56526246742339E-8;
1,79439356212289E-8;
1,53229943966225E-8;
1,09378681910616E-8;
8,32203475289995E-9;
8,50460729272157E-9;
9,28427331577461E-9;
7,2512245657546E-9;
8,69838717822388E-10;
-7,95400080285446E-9;
-1,51360188469904E-8;
-1,74740798873964E-8;
-1,50284222869494E-8;
-1,08808746527189E-8;
-8,47427346682597E-9;
-8,77255770167148E-9;
-9,56639443908306E-9;
-7,47753477054572E-9;
-1,01538494560748E-9;
7,88252991129028E-9;
1,5114213188654E-8;
1,74688318039524E-8;
1,49969025575558E-8;
1,07641857113567E-8;
8,23464927419346E-9;
8,43652044876741E-9;
9,2366619567013E-9;
7,31100530004997E-9;
1,14535068520206E-9;
-7,42703080020903E-9;
-1,44415225823517E-8;
-1,67861002458902E-8;
-1,45094152945982E-8;
-1,05860709874155E-8;
-8,34927907195992E-9;
-8,72770879785384E-9;
-9,56660331637436E-9;
-7,58030239206699E-9;
-1,31479834422902E-9;
7,353239110682E-9;
1,4440541063473E-8;
1,68174759697889E-8;
1,45060506542158E-8;
1,0463111715871E-8;
8,04480601919172E-9;
8,25961664454084E-9;
9,0656604248292E-9;
7,25884965460932E-9;
1,36480310695354E-9;
-6,87209023139698E-9;
-1,36468610888771E-8;
-1,59652179537619E-8;
-1,38626346850111E-8;
-1,0183658700347E-8;
-8,12438802307532E-9;
-8,56672776906442E-9;
-9,43229723192929E-9;
-7,56139440602124E-9;
-1,55148177578586E-9;
6,80019116015182E-9;
1,36657858841906E-8;
1,60251275054951E-8;
1,38832350731188E-8;
1,00613419206664E-8;
7,77104801798794E-9;
7,99490391187111E-9;
8,79618662924722E-9;
7,11453881678223E-9;
1,53275626828042E-9;
-6,30444738975999E-9;
-1,27832253903007E-8;
-1,50453940877016E-8;
-1,31189945941914E-8;
-9,70240058242286E-9;
-7,82079238778849E-9;
-8,30958325857362E-9;
-9,18677169599274E-9;
-7,44034297168073E-9;
-1,73254849280397E-9;
6,23383183740949E-9;
1,28147955783097E-8;
1,51288007803376E-8;
1,31622079201066E-8;
9,57814309681681E-9;
7,42996618346001E-9;
7,66011915354545E-9;
8,44595843051322E-9;
6,89533628812332E-9;
1,65504877842806E-9;
-5,73416511951742E-9;
-1,18700648020603E-8;
-1,40559459917787E-8;
-1,23068778146927E-8;
-9,15762109349405E-9;
-7,45343912446055E-9;
-7,97490517576823E-9;
-8,84977737095815E-9;
-7,23446962072595E-9;
-1,86185032620012E-9;
5,66595399090776E-9;
1,1914341708864E-8;
1,41578813136177E-8;
1,23667687530458E-8;
9,03710857693051E-9;
7,03919990588275E-9;
7,26990760690278E-9;
8,03243147196928E-9;
6,61465535340072E-9;
1,73662476380011E-9;
-5,17152266945952E-9;
-1,09323141836706E-8;
-1,30228158220888E-8;
-1,14490577577114E-8;
-8,57052949181046E-9;
-7,04020146554395E-9;
-7,58171720704589E-9;
-8,44229888724445E-9;
-6,96087674001123E-9;
-1,94628074896723E-9;
5,10630974507328E-9;
1,09857865923627E-8;
1,31383022153163E-8;
1,15209767315817E-8;
8,45254250850559E-9;
6,61011951226529E-9;
6,84020500935725E-9;
7,57276464626124E-9;
6,28598068002152E-9;
1,78307958360532E-9;
-4,62180723231253E-9;
-9,98636928647032E-9;
-1,19665671420546E-8;
-1,05632979578369E-8;
-7,95453365437563E-9;
-6,59208110413233E-9;
-7,14491460203558E-9;
-7,98171845382251E-9;
-6,63293398969253E-9;
-1,99288513376266E-9;
4,56036863620958E-9;
1,00484903530672E-8;
1,20936103559719E-8;
1,06459293101694E-8;
7,8416330936476E-9;
6,15648818684095E-9;
6,38310388943695E-9;
7,08057630227122E-9;
5,92386108612429E-9;
1,79940773039278E-9;
-4,09319042575069E-9;
-9,04879860679111E-9;
-1,09096315517561E-8;
-9,66865973190648E-9;
-7,32263900603266E-9;
-6,12189527536335E-9;
-6,67571960099443E-9;
-7,48204368416306E-9;
-6,26565687040669E-9;
-2,00413402985307E-9;
4,03546346625291E-9;
9,11501470032E-9;
1,10430415390668E-8;
9,7590903433151E-9;
7,21665504336327E-9;
5,68759672221469E-9;
5,90729419439868E-9;
6,56636420120818E-9;
5,53560980828912E-9;
1,78832362651537E-9;
-3,58841902838744E-9;
-8,12973103083453E-9;
-9,86454139026847E-9;
-8,77943834013312E-9;
-6,68912227469892E-9;
-5,64081716920931E-9;
-6,18719500614929E-9;
-6,95708282594581E-9;
-5,86950751253695E-9;
-1,98711748698641E-9;
3,53514514199328E-9;
8,19966093373693E-9;
1,00016601837161E-8;
8,87444844579028E-9;
6,5889883229293E-9;
5,21381867449533E-9;
5,426047882326E-9;
6,04371119648397E-9;
5,13303410097483E-9;
1,75557051171831E-9;
-3,11198244445643E-9;
-7,24249650317928E-9;
-8,84711345226337E-9;
-7,90724385801949E-9;
-6,0615961715168E-9;
-5,15698232537209E-9;
-5,69042794823077E-9;
-6,41888133911641E-9;
-5,4538898884464E-9;
-1,94532246185247E-9;
3,06433310988119E-9;
7,31487174963316E-9;
8,98444051807271E-9;
8,00504800424845E-9;
5,968757953181E-9;
4,74206926978797E-9;
4,94542921623573E-9;
5,51954502685737E-9;
4,72265656694781E-9;
1,70397251148122E-9;
-2,66770979048427E-9;
-6,39357488312412E-9;
-7,86572586126829E-9;
-7,06252901273115E-9;
-5,44778929604486E-9;
-4,67731142095944E-9;
-5,19199157119261E-9;
-5,87453207119464E-9;
-5,02925963748436E-9;
-1,88434193492621E-9;
2,62398961870877E-9;
6,46576177941365E-9;
8,00311697715687E-9;
7,16143499385578E-9;
5,3620995211708E-9;
4,27904871961065E-9;
4,47169708592011E-9;
5,00051665203641E-9;
4,311622376389E-9;
1,63814724767839E-9;
-2,2539884549454E-9;
-5,58840141375847E-9;
-6,93044979359277E-9;
-6,25362912529989E-9;
-4,85538773327715E-9;
-4,20703216572471E-9;
-4,70103495036499E-9;
-5,33609262041579E-9;
-4,59999167009894E-9;
-1,80813729539944E-9;
2,21522832704031E-9;
5,66233580802892E-9;
7,06496367039863E-9;
6,35104507050696E-9;
4,77672549984115E-9;
3,8288532867111E-9;
4,01021176834362E-9;
4,49460057247504E-9;
3,90638953813641E-9;
1,5587734223927E-9;
-1,87630512162884E-9;
-4,83397981170355E-9;
-6,04630173821533E-9;
-5,48378012349265E-9;
-4,28900911416016E-9;
-3,7535022111835E-9;
-4,22080966691061E-9;
-4,80832554811792E-9;
-4,1765278252539E-9;
-1,71744373439267E-9;
1,84114150516701E-9;
4,90428716340607E-9;
6,17592835156593E-9;
5,58097726281915E-9;
4,21784108778909E-9;
3,39763536772356E-9;
3,56720478850096E-9;
4,00768234871302E-9;
3,51163004863795E-9;
1,47128676771943E-9;
-1,53163224243041E-9;
-4,13152128413029E-9;
-5,21759371694672E-9;
-4,76029758345217E-9;
-3,75179208834113E-9;
-3,31920195588135E-9;
-3,75945257430822E-9;
-4,29667899307968E-9;
-3,76195929886768E-9;
-1,61919539225113E-9;
1,50086693596588E-9;
4,20086855481015E-9;
5,34274535654988E-9;
4,85478364712678E-9;
3,68863880349144E-9;
2,98651692982505E-9;
3,14379659394365E-9;
3,54103830965879E-9;
3,13016327679549E-9;
1,37810506796674E-9;
-1,21995800544584E-9;
-3,48310484063351E-9;
-4,44686759081619E-9;
-4,08525399268759E-9;
-3,24912332922196E-9;
-2,90736007733531E-9;
-3,31825082282137E-9;
-3,80704437925979E-9;
-3,36026679791249E-9;
-1,51310709268938E-9;
1,19334926973713E-9;
3,55014499834332E-9;
4,56748888220472E-9;
4,17636952971085E-9;
3,19163823616634E-9;
2,59898688679362E-9;
2,7450650907386E-9;
3,10032911628245E-9;
2,7662042323062E-9;
1,27962432233465E-9;
-9,4125880214631E-10;
-2,88875212847616E-9;
-3,73911229121214E-9;
-3,46141218623069E-9;
-2,77965839634944E-9;
-2,52029599534015E-9;
-2,89972495132463E-9;
-3,34169798775712E-9;
-2,97599264952568E-9;
-1,40214153856125E-9;
9,18018520823951E-10;
2,95196078168582E-9;
3,85007691810603E-9;
3,54696041120403E-9;
2,73068787436341E-9;
2,23805024035852E-9;
2,37078190458239E-9;
2,68624485788176E-9;
2,42120664375649E-9;
1,17869928280763E-9;
-6,94780636220168E-10;
-2,35034358314372E-9;
-3,09153286390822E-9;
-2,88946821058906E-9;
-2,34727369363285E-9;
-2,16080078977548E-9;
-2,50888674378086E-9;
-2,9026106705071E-9;
-2,61084920351154E-9;
-1,28972080983426E-9;
6,74638805889848E-10;
2,41019193388354E-9;
3,197131145624E-9;
2,97065042193513E-9;
2,30352803826871E-9;
1,90168861890722E-9;
2,02377920829013E-9;
2,30117863344318E-9;
2,09757060008969E-9;
1,07793238349848E-9;
-4,77267617177782E-10;
-1,86469701365685E-9;
-2,5039328879299E-9;
-2,36692342502369E-9;
-1,95036912327178E-9;
-1,82727168194057E-9;
-2,14405923448294E-9;
-2,4949382573056E-9;
-2,26783071291564E-9;
-1,17600992924231E-9;
4,60209802180523E-10;
1,92073116995791E-9;
2,60277450813379E-9;
2,44339989326339E-9;
1,91264885570294E-9;
1,59345450615605E-9;
1,70317455279524E-9;
1,94423322544243E-9;
1,79512545407634E-9;
9,76920999243005E-10;
-2,88471828240618E-10;
-1,43150658111408E-9;
-1,97608954672316E-9;
-1,89559644714561E-9;
-1,59030229419221E-9;
-1,52196406528979E-9;
-1,80785307749996E-9;
-2,11667667457407E-9;
-1,94844014949841E-9;
-1,06483134450984E-9;
2,75305856247296E-10;
1,4839690407146E-9;
2,06718329893436E-9;
1,96635655692054E-9;
1,55836784667513E-9;
1,31248656239865E-9;
1,40874756020728E-9;
1,61753348703341E-9;
1,51780384357624E-9;
8,78822580536781E-10;
-1,27059028790545E-10;
-1,04922568705725E-9;
-1,5060723113141E-9;
-1,47373979186058E-9;
-1,266080206506E-9;
-1,24362845763578E-9;
-1,49972200151779E-9;
-1,76909832456209E-9;
-1,65108708401E-9;
-9,558005626531E-10;
1,15420306350682E-10;
1,09652498372946E-9;
1,58924977291779E-9;
1,53902005782061E-9;
1,23860784423811E-9;
1,05854780355868E-9;
1,14428626165038E-9;
1,32070728146664E-9;
1,26202748587816E-9;
7,83774677887219E-10;
1,03082471350298E-11;
-7,12823344886406E-10;
-1,09062412186371E-9;
-1,09960164448296E-9;
-9,74623861376449E-10;
-9,9236997280496E-10;
-1,22086952400277E-9;
-1,4526706093447E-9;
-1,37849059559013E-9;
-8,49015940014092E-10;
-1,83700400787745E-11;
7,55963349031076E-10;
1,16594387110579E-9;
1,15959223718832E-9;
9,52893087203378E-10;
8,29061451606277E-10;
9,03899282300946E-10;
1,05227934784095E-9;
1,02996759267627E-9;
6,92304343510955E-10;
1,26033871569762E-10;
-4,19829754771989E-10;
-7,26859500580933E-10;
-7,69475096528312E-10;
-7,16937003021319E-10;
-7,67408620402054E-10;
-9,68536513705314E-10;
-1,16673754034717E-9;
-1,13045101932635E-9;
-7,48919700520945E-10;
-1,30548769834779E-10;
4,61345537594019E-10;
7,93899643119699E-10;
8,23900562844393E-10;
6,99930151139435E-10;
6,25095213991404E-10;
6,89924969915799E-10;
8,12674879517892E-10;
8,20520004694202E-10;
6,04815190205091E-10;
2,19138993483366E-10;
-1,70239029435654E-10;
-4,12433431387601E-10;
-4,82726504690506E-10;
-4,9091523070001E-10;
-5,6826848080141E-10;
-7,432653520165E-10;
-9,08956987426233E-10;
-9,05851034531784E-10;
-6,53741814352932E-10;
-2,22994354870319E-10;
2,06926472094464E-10;
4,71615628406962E-10;
5,31047323563043E-10;
4,77579704121244E-10;
4,45204786630223E-10;
5,00923336300548E-10;
6,00566710829979E-10;
6,33211693905644E-10;
5,229351868659E-10;
2,93184212509241E-10;
4,04922980477794E-11;
-1,42491608533725E-10;
-2,35823151610097E-10;
-2,94894721455722E-10;
-3,9218315329242E-10;
-5,44187119168577E-10;
-6,81106473728644E-10;
-7,04324372705715E-10;
-5,63972744074501E-10;
-2,95996800157807E-10;
-8,61928069232289E-12;
1,94767463725212E-10;
2,79125151775196E-10;
2,84735946306779E-10;
2,88439926549914E-10;
3,35691454739114E-10;
4,12914394333993E-10;
4,66060088458075E-10;
4,46671972903759E-10;
3,51993454961822E-10;
2,16777543855402E-10;
8,48404468627893E-11;
-2,38868308910329E-11;
-1,25154483585972E-10;
-2,40392612892958E-10;
-3,68278923062653E-10;
-4,78474999996182E-10;
-5,25119464598632E-10;
-4,78849363727695E-10;
-3,52262173713129E-10;
-1,8888268289658E-10;
-3,85897030325629E-11;
6,36931946822763E-11;
1,19191200337848E-10;
1,5259930451455E-10;
1,90798236529892E-10;
2,48543947655756E-10;
3,18082383874913E-10;
3,76365168867753E-10;
3,95391037474455E-10;
3,60756484612249E-10;
2,74775336386885E-10;
1,51997595417939E-10;
1,77635290294706E-11;
-1,08585156210915E-10;
-2,16345951071728E-10;
-3,02018449002703E-10;
-3,67001340766355E-10;
-4,02585610006593E-10;
-3,94284135446997E-10;
-3,3527819963455E-10;
-2,33866819514635E-10;
-1,1823436098948E-10;
-2,19859287741271E-11;
3,59647959356312E-11;
6,70039203532408E-11;
1,0903402640986E-10;
1,91538392974873E-10;
3,10770966038788E-10;
4,25910700846597E-10;
4,76583177527072E-10;
4,28448683285944E-10;
2,98147821557653E-10;
1,37657140521318E-10;
3,25062402611157E-12;
-8,49925942561494E-11;
-1,5076613427998E-10;
-2,28782278726998E-10;
-3,31081779720106E-10;
-4,23785071658492E-10;
-4,53366797695553E-10;
-3,93531258355976E-10;
-2,67301318352332E-10;
-1,39371031982954E-10;
-6,29935041958197E-11;
-3,79010365450367E-11;
-1,1473690277416E-11;
8,05818372765154E-11;
2,51357247906825E-10;
4,43666144819997E-10;
5,64985368605951E-10;
5,50985556313767E-10;
4,15312156050763E-10;
2,3611384302332E-10;
9,72560906660371E-11;
2,59211138469164E-11;
-2,1020130983911E-11;
-1,09175600319451E-10;
-2,65485001251283E-10;
-4,42099065703119E-10;
-5,47045401912398E-10;
-5,21422219278181E-10;
-3,8921416123761E-10;
-2,35951031554481E-10;
-1,42886178782955E-10;
-1,24627595212398E-10;
-1,11266883807771E-10;
-1,34591381507535E-11;
1,96271009983263E-10;
4,52139748712584E-10;
6,32024578463327E-10;
6,46923604410203E-10;
5,07911944705825E-10;
3,15262173478546E-10;
1,74718423565208E-10;
1,19438843614576E-10;
9,03222536711521E-11;
-7,62429192779974E-12;
-2,08265716075744E-10;
-4,49410047478518E-10;
-6,15434681346013E-10;
-6,21010602768561E-10;
-4,84915355403385E-10;
-3,12917913909308E-10;
-2,09391029153519E-10;
-1,95918700745706E-10;
-1,93314926859988E-10;
-9,18128085234607E-11;
1,48802735696517E-10;
4,53090268634718E-10;
6,77937563467189E-10;
7,16407991002507E-10;
5,77848018578993E-10;
3,76823544022393E-10;
2,37072241762971E-10;
1,95730637443103E-10;
1,7950688325396E-10;
7,77374734551759E-11;
-1,55374367555514E-10;
-4,50408346888147E-10;
-6,63760177975961E-10;
-6,94881657502145E-10;
-5,59467004513805E-10;
-3,73030376932623E-10;
-2,62342886255159E-10;
-2,5381253032859E-10;
-2,59612869335651E-10;
-1,5689009724151E-10;
1,05200036015601E-10;
4,46418596248126E-10;
7,06925927435813E-10;
7,63535389117469E-10;
6,27300960223003E-10;
4,23735307923343E-10;
2,86242491286095E-10;
2,5716594544058E-10;
2,53453360127732E-10;
1,48508160499295E-10;
-1,09557696476455E-10;
-4,43168525012686E-10;
-6,94402457377209E-10;
-7,46682497694982E-10;
-6,12127700350208E-10;
-4,18496650803472E-10;
-3,02272184574179E-10;
-2,98460164335501E-10;
-3,13307811658739E-10;
-2,08833773123392E-10;
6,83052968264213E-11;
4,34202325963109E-10;
7,19530937236379E-10;
7,93114924430254E-10;
6,61502618644417E-10;
4,56185086397954E-10;
3,23256547861018E-10;
3,04697089269228E-10;
3,11355406101569E-10;
2,06332215546532E-10;
-6,83983762268376E-11;
-4,30420000085477E-10;
-7,10536625993279E-10;
-7,80019092313046E-10;
-6,48846116835626E-10;
-4,5063927282249E-10;
-3,31818767476544E-10;
-3,3101507179829E-10;
-3,51936909270502E-10;
-2,50347471454713E-10;
3,52097118377427E-11;
4,17779542002349E-10;
7,20433898721178E-10;
8,05424943720104E-10;
6,78421357383153E-10;
4,75777798171669E-10;
3,48170890251339E-10;
3,40065045945492E-10;
3,55873893812279E-10;
2,51817759986065E-10;
-3,2697634717353E-11;
-4,13141431317396E-10;
-7,12128934049969E-10;
-7,94784816889141E-10;
-6,6905749849013E-10;
-4,70674476142143E-10;
-3,51783836131037E-10;
-3,5496189686119E-10;
-3,80751722614829E-10;
-2,81216397223396E-10;
6,82966439339922E-12;
3,9701798490705E-10;
7,09258325660904E-10;
8,0420872024212E-10;
6,84413881677168E-10;
4,86974571749451E-10;
3,66565812354888E-10;
3,65531101232679E-10;
3,87665949175592E-10;
2,86005783617017E-10;
-2,97309122006933E-12;
-3,93082310221386E-10;
-7,04545960097196E-10;
-7,96788093266346E-10;
-6,76319092729529E-10;
-4,80872687625391E-10;
-3,64297923492999E-10;
-3,69727981354108E-10;
-3,97984690654696E-10;
-3,03199648847256E-10;
-1,83831871331214E-11;
3,73730712629048E-10;
6,90927485486609E-10;
7,91235488569806E-10;
6,78139105023762E-10;
4,89028164517193E-10;
3,75119907135546E-10;
3,81065438664742E-10;
4,10071179284594E-10;
3,1198463645405E-10;
2,37507749087065E-11;
-3,6943363649991E-10;
-6,86700922758081E-10;
-7,86596286217729E-10;
-6,72485108335128E-10;
-4,81679427636667E-10;
-3,68223191398136E-10;
-3,75258534815039E-10;
-4,08715547162557E-10;
-3,18311787988375E-10;
-3,69650516062045E-11;
3,48683563474026E-10;
6,64044654338803E-10;
7,69114927256475E-10;
6,6400102495257E-10;
4,84316130432232E-10;
3,78583165938208E-10;
3,89625768224025E-10;
4,21915817304844E-10;
3,28167253747812E-10;
4,50851941075608E-11;
-3,44187967232863E-10;
-6,61622301411497E-10;
-7,66257148814004E-10;
-6,59300331380253E-10;
-4,76016821309603E-10;
-3,67828715295366E-10;
-3,76533563340109E-10;
-4,1027467646052E-10;
-3,25054429168478E-10;
-5,37300314401419E-11;
3,2338600196361E-10;
6,33381764256457E-10;
7,39832187439197E-10;
6,42715429565156E-10;
4,7195286565582E-10;
3,75003943857087E-10;
3,91019712537087E-10;
4,26736284218799E-10;
3,39116421037465E-10;
6,2726868725233E-11;
-3,18742543859307E-10;
-6,31440172698686E-10;
-7,38313736922586E-10;
-6,40004662009709E-10;
-4,65059592934989E-10;
-3,59941424503565E-10;
-3,71269390993922E-10;
-4,0750451684939E-10;
-3,27699410807058E-10;
-6,75089097197948E-11;
2,96975543499684E-10;
5,97266434329921E-10;
7,03414068585643E-10;
6,14864090174276E-10;
4,54884432923493E-10;
3,66121853998067E-10;
3,86093956817909E-10;
4,23533115960044E-10;
3,4126933936782E-10;
7,71033453392272E-11;
-2,91575969397469E-10;
-5,96301706344626E-10;
-7,03760297587015E-10;
-6,13646273319175E-10;
-4,48458594438838E-10;
-3,49900761124691E-10;
-3,61874892402137E-10;
-3,98395342825837E-10;
-3,24385410879938E-10;
-7,85747627262656E-11;
2,68756397937535E-10;
5,59071748232417E-10;
6,62455094698294E-10;
5,81902712551393E-10;
4,36015306425002E-10;
3,5452234757514E-10;
3,76470686840096E-10;
4,16526880440376E-10;
3,40400438845061E-10;
8,74145809645884E-11;
-2,65865944944778E-10;
-5,58504516614519E-10;
-6,64991925085782E-10;
-5,82884704680383E-10;
-4,27894049320376E-10;
-3,35505449553799E-10;
-3,48100318091922E-10;
-3,84993309468021E-10;
-3,17947459074032E-10;
-8,61199760005328E-11;
2,42814248066502E-10;
5,18197620444452E-10;
6,19673302799893E-10;
5,46840832592673E-10;
4,11707608578885E-10;
3,38664242992225E-10;
3,62945755043951E-10;
4,03615765563368E-10;
3,33636383292229E-10;
9,60870028385289E-11;
-2,38368668808623E-10;
-5,1854162325183E-10;
-6,2226997801389E-10;
-5,48060657041403E-10;
-4,05541929051602E-10;
-3,20181757954412E-10;
-3,33384451859198E-10;
-3,68621409225346E-10;
-3,0752444235908E-10;
-9,21918252597806E-11;
2,17012319347813E-10;
4,75849482388207E-10;
5,74536337730741E-10;
5,0981850904937E-10;
3,84857848614044E-10;
3,21529150157844E-10;
3,47732821154762E-10;
3,87277064232657E-10;
3,23562033683735E-10;
1,0137663828515E-10;
-2,12156798622386E-10;
-4,76644129864712E-10;
-5,77791125385806E-10;
-5,10698645961193E-10;
-3,79395168436608E-10;
-3,01899818940065E-10;
-3,14765024552538E-10;
-3,50019230705894E-10;
-2,94825140929659E-10;
-9,49295525892084E-11;
1,91506633926254E-10;
4,34687420509802E-10;
5,28319907802966E-10;
4,7085595133729E-10;
3,59460566933308E-10;
3,02039442972877E-10;
3,2895858005945E-10;
3,68795086310879E-10;
3,11170903989701E-10;
1,05557737555783E-10;
-1,87807255400519E-10;
-4,3569356607961E-10;
-5,32153538124401E-10;
-4,73722238204302E-10;
-3,53458042158832E-10;
-2,81668786482753E-10;
-2,94560706139011E-10;
-3,29069082823462E-10;
-2,80028465284274E-10;
-9,6344274759882E-11;
1,67952272456472E-10;
3,92839266420384E-10;
4,80870772529674E-10;
4,31298624459966E-10;
3,32301615625738E-10;
2,81045888126227E-10;
3,08143011813463E-10;
3,47888365456092E-10;
2,9527174129134E-10;
1,06231698820553E-10;
-1,64387665037576E-10;
-3,95474021662876E-10;
-4,86422549655582E-10;
-4,34860195894176E-10;
-3,26028776762256E-10;
-2,61454581380405E-10;
-2,7487484286832E-10;
-3,06807772716895E-10;
-2,63585933161506E-10;
-9,63784166095763E-11;
1,46551485132825E-10;
3,53025539624409E-10;
4,36128052647052E-10;
3,92032212565856E-10;
3,02487705095927E-10;
2,60469348739726E-10;
2,87790776325772E-10;
3,24481401624274E-10;
2,78519813703594E-10;
1,06600458242723E-10;
-1,42027475753077E-10;
-3,55392240057591E-10;
-4,40848705933339E-10;
-3,95570449689289E-10;
-2,98013544306853E-10;
-2,39935149242167E-10;
-2,53349256874489E-10;
-2,8430738467056E-10;
-2,45102198187287E-10;
-9,50482115554971E-11;
1,24204672816233E-10;
3,13692994079332E-10;
3,90595619898721E-10;
3,53817200994436E-10;
2,75726885972825E-10;
2,38921605681294E-10;
2,66307203779631E-10;
