0,00932688183659072;
0,0226198579346481;
0,0163622449380084;
0,0094249627030983;
0,0121651990190997;
0,00702543253968308;
0,00563580258585959;
0,00458400440751902;
0,000842060949533253;
0,001035231655952;
-0,00118555119248817;
-0,00198551410443867;
-0,0028006631302823;
-0,00454833632526302;
-0,00488271466678305;
-0,00585030907594873;
-0,00593337004150872;
-0,00617348308720805;
-0,00698720826706279;
-0,00792151930325293;
-0,00935913723158579;
-0,0102605950631706;
-0,0105382235387484;
-0,0101244166340311;
-0,00921666874256469;
-0,00843322861719768;
-0,00783035141279791;
-0,00745680470263819;
-0,00704684862293477;
-0,00641522155678134;
-0,00566847565529126;
-0,00494880216179782;
-0,00444311410477451;
-0,00408235511658392;
-0,00365637084490092;
-0,00301746925002807;
-0,00221559682726807;
-0,00155831679685872;
-0,00135029301626315;
-0,00166482408324638;
-0,00223892135170028;
-0,00261108125238619;
-0,0024339524876968;
-0,00167937933675872;
-0,000637680057458132;
0,000311889508449441;
0,000962932746070676;
0,00137594014481722;
0,0017659572495037;
0,00228231781463102;
0,00288227209901322;
0,00339040645586364;
0,00367762603007569;
0,0037952218199413;
0,00393441607172631;
0,0042452925855516;
0,00467051087228496;
0,00494799265239148;
0,00479967430682064;
0,00416346372264063;
0,00328287758115918;
0,00257219870357465;
0,0023509443570609;
0,00264412469677318;
0,00319304668134176;
0,00365907036257172;
0,00385730036140953;
0,00384545081979634;
0,00381773737683021;
0,00391026289020778;
0,00408609272473274;
0,00418869113595005;
0,00410387480154789;
0,00387853184067118;
0,00368529511053904;
0,00365946005367403;
0,00375018670013178;
0,00372347068173878;
0,00333093429984623;
0,00251776010548144;
0,00150232233138754;
0,000655317553982425;
0,000262334107268068;
0,000345462969139587;
0,000673462432158513;
0,000943883075461026;
0,000991670060873469;
0,000868203770324166;
0,000746383569128375;
0,000747117969641198;
0,000837043784848627;
0,000876343182025687;
0,000762995892350601;
0,000538293462295715;
0,000355230456847574;
0,000333422640040422;
0,000427015132830155;
0,000427579790098582;
0,000114151323228581;
-0,000562311690998617;
-0,0107420260408424;
-0,024726429145839;
-0,0187471347964172;
-0,0116561322779972;
-0,0140175842331964;
-0,00854438171816631;
-0,00701448793136595;
-0,00597039022511772;
-0,00223055289071476;
-0,00231305382593711;
0,000100802824060102;
0,00105098706423974;
0,00188199169249515;
0,00354744093887961;
0,0038373924110812;
0,0049044717244155;
0,00518954640586813;
0,0055479425700324;
0,00619885290949102;
0,00664518801833842;
0,00744155781155493;
0,00784048584739259;
0,00797874098743134;
0,00780496382808163;
0,00733309571983909;
0,00694196150511909;
0,00655698689657949;
0,00626676002983099;
0,00594099608614797;
0,00548884451528627;
0,00498987061851343;
0,00447568505054908;
0,00405250045651739;
0,0036832342270392;
0,0032773667040021;
0,00278053713902989;
0,0022062068022345;
0,00169814772423894;
0,00138767517306842;
0,00130960248788451;
0,00135210266935666;
0,00131007153143224;
0,00103304207323416;
0,000507030167412784;
-0,000138547606837893;
-0,000734086239753569;
-0,00118755042419278;
-0,00152436242383939;
-0,00184090685586986;
-0,00220385647042569;
-0,00259393540970673;
-0,00293215618438647;
-0,003159655409143;
-0,00329959017926314;
-0,00343865764500902;
-0,00364545992626655;
-0,00389433080384717;
-0,00406564341975319;
-0,00403192818619533;
-0,00376422997750382;
-0,00337433285311781;
-0,0030535249415361;
-0,00295026592414948;
-0,00307726397349045;
-0,00331538426442878;
-0,00350764670644257;
-0,00356805963181284;
-0,00352375045199137;
-0,00346605581328232;
-0,00345946681784102;
-0,00348727149275785;
-0,00347615811019662;
-0,00337244832246952;
-0,00319858000020608;
-0,0030368907579129;
-0,00295236868264768;
-0,00292144682914623;
-0,00283274140599585;
-0,0025673445654817;
-0,0020987278206061;
-0,00153181354261825;
-0,00104560388692255;
-0,000778835301340762;
-0,000743153644170439;
-0,000827108098550033;
-0,000883972842971312;
-0,000833352536129644;
-0,000700361563898359;
-0,000569845299448497;
-0,00050151000561849;
-0,000479324455946719;
-0,000434562485654512;
-0,000316813633501588;
-0,000146476308633227;
4,15798253557861E-7;
6,40704490348505E-5;
6,70383620752752E-5;
0,000113393354527459;
0,000314081023879082;
0,000694219144062687;
0,0011570015112347;
0,00153706741939157;
0,00170656138712549;
0,00165549300123879;
0,0014878527542975;
0,00134015579215754;
0,0012873908216457;
0,00130688119898758;
0,0013207486581299;
0,00127441563223631;
0,00118330252355444;
0,00111144481389256;
0,00110588250457786;
0,00114825851678347;
0,00116890979050817;
0,00111320032428063;
0,00100240561773898;
0,000932841685927608;
0,00100701846132674;
0,00124831355644959;
0,00156788244168645;
0,00181390628894003;
0,00186918372447192;
0,00172492394056935;
0,00147702024489304;
0,00125110539541356;
0,00111618632570598;
0,00105157056402744;
0,000985939415494997;
0,000869386416387089;
0,000716177944906812;
0,000585073856164139;
0,000519188327994787;
0,000501712957567872;
0,000468897186838028;
0,000370782813053635;
0,000226845172015379;
0,000125097021392021;
0,000159099441050599;
0,000350040485723057;
0,000616636588813164;
0,000820215133760733;
0,000853807401966058;
0,000709382602815336;
0,000474313567281838;
0,000262970495138165;
0,000138038093028564;
8,04832086476236E-5;
2,52220079931038E-5;
-7,3294319698504E-5;
-0,000202230359113964;
-0,000308332742996512;
-0,000352619007877448;
-0,00035056318908942;
-0,000360235006667524;
-0,000427130448938305;
-0,000533722228029539;
-0,000600361114491437;
-0,00054244993895564;
-0,000341041928859469;
-7,00046418522131E-5;
0,000144920173356314;
0,000206806362617135;
0,000108317496568426;
-7,16115067162034E-5;
-0,000229716079810691;
-0,000309517420567492;
-0,000328378357616868;
-0,000345206366773804;
-0,000401218943325307;
-0,000484929411628656;
-0,000548418096347224;
-0,000556668252491424;
-0,000523747857661281;
-0,000502059975482369;
-0,000532630565095841;
-0,000599733194846383;
-0,00063177988580346;
-0,000552800214226207;
-0,000345890984031671;
-7,7534842243218E-5;
0,000139276858844252;
0,00021753210640147;
0,000150688103376028;
9,58476609643534E-6;
-0,000113188221400242;
-0,000167044869946283;
-0,000167578784923955;
-0,000167557080156999;
-0,000203859627851994;
-0,0002661805793566;
-0,000311644160367498;
-0,000308946341201593;
-0,000270663379804443;
-0,000243589579327993;
-0,000264312694336699;
-0,000318741304966651;
-0,000342972248053012;
-0,000269257539159851;
-8,2553968767858E-5;
0,000157888857544734;
0,00035146886321734;
0,000420805461325709;
0,000360183035345762;
0,000232705968293794;
0,000120752871286507;
6,93072213852649E-5;
6,45399114851229E-5;
5,9639340630398E-5;
2,193640782169E-5;
-3,93589727629255E-5;
-8,61753213901208E-5;
-9,07345671240526E-5;
-6,41519547616282E-5;
-4,78248193937563E-5;
-7,40767389880894E-5;
-0,000130372933152895;
-0,000160153886013132;
-0,000103522585025678;
5,27987885744342E-5;
0,0002564767633662;
0,00041873353090706;
0,000471362348389939;
0,000409410893263412;
0,000288582055712656;
0,00018150167942755;
0,000127798583870243;
0,000115304626458135;
0,000102851476734845;
6,17452453478114E-5;
1,21150929694233E-7;
-4,85466302545424E-5;
-5,98590129211997E-5;
-4,35743612283809E-5;
-3,6002297744674E-5;
-6,54599873703153E-5;
-0,000120928375660098;
-0,000152844126381236;
-0,000108778266936334;
2,28478103757005E-5;
0,0001962165387423;
0,00033369947755754;
0,000375721045826749;
0,000318004215237371;
0,000209216375745954;
0,000112737049774613;
6,31095641364353E-5;
4,97031057978635E-5;
3,66397366868982E-5;
-1,06076816805325E-6;
-5,63087569641089E-5;
-9,99894531782549E-5;
-0,000110910516979722;
-9,75776027688415E-5;
-9,15400414348697E-5;
-0,00011737494977566;
-0,000165513543790339;
-0,000192985901722288;
-0,000154390598077644;
-3,97549634878436E-5;
0,000111205043388498;
0,000231301089822726;
0,000269028428394856;
0,000220721942408028;
0,00012844235825236;
4,69015225010044E-5;
5,87734548890268E-6;
-3,82770161471769E-6;
-1,31507055566137E-5;
-4,36079090311096E-5;
-8,90924603380251E-5;
-0,000124563544106294;
-0,000131821914317013;
-0,000118202776772475;
-0,000110814960613656;
-0,000130749460555406;
-0,000169789157679831;
-0,000191102849516762;
-0,000155824952767156;
-5,54667960953145E-5;
7,59425726884044E-5;
0,000180930519438277;
0,000215497542491044;
0,000176548254500158;
0,000100009982693866;
3,25541084213136E-5;
-4,53736021365062E-7;
-6,87025711264689E-6;
-1,30410618662071E-5;
-3,72634827568119E-5;
-7,43335190187401E-5;
-0,000102974305292293;
-0,000107746464984226;
-9,48903643853929E-5;
-8,7396789641485E-5;
-0,000103124831312261;
-0,000135099069759229;
-0,000152150883635737;
-0,000121438877462361;
-3,58303038530885E-5;
7,59072112772053E-5;
0,000165273423706337;
0,000195195410083195;
0,000163106698137317;
9,92879192704041E-5;
4,3012038913411E-5;
1,55915462933388E-5;
1,04127943034296E-5;
5,3613786030049E-6;
-1,48946331161191E-5;
-4,59764059275367E-5;
-7,00599983108535E-5;
-7,42342834126646E-5;
-6,37278740975895E-5;
-5,77472001832775E-5;
-7,11833890770525E-5;
-9,81974392021154E-5;
-0,000112808081020584;
-8,7688475840952E-5;
-1,69411435673552E-5;
7,54892705839264E-5;
0,00014931700338289;
0,000173805490620685;
0,000146869788894916;
9,36270868376892E-5;
4,65901660945231E-5;
2,33711136738528E-5;
1,84929481620089E-5;
1,37032661174226E-5;
-3,62576105536657E-6;
-2,98695926292742E-5;
-5,03530154059584E-5;
-5,44688068406523E-5;
-4,65239915283217E-5;
-4,22804042884139E-5;
-5,39304793630053E-5;
-7,66722988796382E-5;
-8,92443343192917E-5;
-6,9333213090081E-5;
-1,21630438970918E-5;
6,27029250514391E-5;
0,000122435933483072;
0,000142046394416411;
0,000119880960825066;
7,63693933616608E-5;
3,78930761309657E-5;
1,87092385235423E-5;
1,43690159498634E-5;
1,01144059506172E-5;
-4,23847892417328E-6;
-2,5751211615538E-5;
-4,25990353939874E-5;
-4,6259284299576E-5;
-4,02077424126418E-5;
-3,70971035332242E-5;
-4,66864276390696E-5;
-6,51133970148044E-5;
-7,53771615647233E-5;
-5,96864899563169E-5;
-1,4276230729536E-5;
4,52385076383984E-5;
9,2744244282976E-5;
0,000108422558876393;
9,10045917056128E-5;
5,66998868554439E-5;
2,63743201550796E-5;
1,12688285366087E-5;
7,85778499388872E-6;
4,52038875136587E-6;
-6,73516714286556E-6;
-2,35882021751601E-5;
-3,67721252364881E-5;
-3,96336881938814E-5;
-3,49036555689586E-5;
-3,24497818540981E-5;
-3,98533430237829E-5;
-5,40946955208651E-5;
-6,19861165641709E-5;
-4,97803251525956E-5;
-1,46140787412864E-5;
3,1427407379565E-5;
6,82296902649164E-5;
8,05906966527287E-5;
6,75831156188691E-5;
4,16503585471509E-5;
1,87398409565908E-5;
7,40478155240379E-6;
4,94311356972327E-6;
2,52835040060254E-6;
-5,88023750435107E-6;
-1,85120395038183E-5;
-2,83755504294955E-5;
-3,04785382518177E-5;
-2,68884814578831E-5;
-2,49986323965042E-5;
-3,04566874013957E-5;
-4,09911763899854E-5;
-4,67967083225919E-5;
-3,77103574873038E-5;
-1,16659495981034E-5;
2,2380723001331E-5;
4,96287391169713E-5;
5,8962096060326E-5;
4,97550732760752E-5;
3,11203213963075E-5;
1,46582904490112E-5;
6,54878285890972E-6;
4,81823767809598E-6;
3,10733081994587E-6;
-2,90324837307707E-6;
-1,19281064589058E-5;
-1,89808055674114E-5;
-2,05315972624159E-5;
-1,80626932128495E-5;
-1,6788499574696E-5;
-2,06555214127795E-5;
-2,80505765844389E-5;
-3,2141218051131E-5;
-2,59126166294335E-5;
-7,99675724936366E-6;
1,53991454685404E-5;
3,41367407982321E-5;
4,06829617722753E-5;
3,46757410754885E-5;
2,23093805085965E-5;
1,1378297186233E-5;
5,98585381329658E-6;
4,79640241546025E-6;
3,6077784154102E-6;
-3,95486732692073E-7;
-6,35232668317939E-6;
-1,10268062762337E-5;
-1,21648331233818E-5;
-1,07376323773728E-5;
-1,00602533640325E-5;
-1,25975804243362E-5;
-1,73103865156196E-5;
-1,99539664889117E-5;
-1,62514107304238E-5;
-5,44055109483868E-6;
8,66088686798933E-6;
1,99643676081292E-5;
2,40464424345646E-5;
2,0772863831909E-5;
1,38067387180756E-5;
7,64394120776875E-6;
4,58962012173386E-6;
3,86057437281966E-6;
3,12073041474663E-6;
8,54275194182318E-7;
-2,44523800621107E-6;
-5,05425902695483E-6;
-5,81979763480541E-6;
-5,27194791578124E-6;
-5,08807328153984E-6;
-6,45685958231001E-6;
-8,83431865085808E-6;
-1,02037990773983E-5;
-8,64357593937867E-6;
-3,91151540828322E-6;
2,22881360953918E-6;
7,16707164977583E-6;
9,1482310286905E-6;
8,23259164152275E-6;
5,91275199552776E-6;
3,85855541545879E-6;
2,83579665502024E-6;
2,53412903682081E-6;
2,212916892454E-6;
1,46629475612365E-6;
4,73207943707575E-7;
-3,33933831310576E-7;
-7,41179621637637E-7;
-9,02316968361578E-7;
-1,09968099481701E-6;
-1,43609384662792E-6;
-1,78965420355219E-6;
-2,03836048327265E-6;
-2,26116701889127E-6;
-2,65655891046806E-6;
-3,24428442414199E-6;
-3,68517195060191E-6;
-3,47359949459901E-6;
-2,38522393917819E-6;
-7,64459565706272E-7;
6,69047942295628E-7;
1,3808025279566E-6;
1,45997069692777E-6;
1,5118314207701E-6;
2,06573580858373E-6;
3,03499841441391E-6;
3,76488443721643E-6;
3,67967180300049E-6;
2,94229510715327E-6;
2,44225147122508E-6;
2,98767672127153E-6;
4,34584433213508E-6;
5,05070441547361E-6;
3,34842714566692E-6;
-1,32715106931008E-6;
-7,5368713145891E-6;
-1,24771707590058E-5;
-1,37557225997069E-5;
-1,10119428827006E-5;
-6,12143165571072E-6;
-1,79325903303643E-6;
3,56794523666661E-7;
7,50300332165839E-7;
1,1101736595111E-6;
2,74125263683783E-6;
5,33610842648939E-6;
7,33940293433519E-6;
7,5222433394654E-6;
6,30986505185596E-6;
5,5598527021961E-6;
6,83172926580219E-6;
9,59976365955364E-6;
1,1089509664612E-5;
8,16923155253434E-6;
-2,85044137272248E-8;
-1,08652125492714E-5;
-1,95146821898844E-5;
-2,20382020924341E-5;
-1,79642220455209E-5;
-1,04214033133699E-5;
-3,74457061807756E-6;
-4,31829927943178E-7;
2,09803361181057E-7;
8,13614939368144E-7;
3,31497559386182E-6;
7,22646053768247E-6;
1,02612804179747E-5;
1,06610669191736E-5;
9,06399334824987E-6;
8,11113522678169E-6;
9,9689274518125E-6;
1,38744176308272E-5;
1,59977498243115E-5;
1,20978077453108E-5;
1,0658338216633E-6;
-1,34950122120677E-5;
-2,51349430508885E-5;
-2,86761907899256E-5;
-2,35590830620788E-5;
-1,39144642914041E-5;
-5,37502323636779E-6;
-1,14189965833205E-6;
-3,05685994044831E-7;
4,9057814643933E-7;
3,68229701906884E-6;
8,63871611096092E-6;
1,24937501276589E-5;
1,3070743190393E-5;
1,11763799849629E-5;
1,00693564267402E-5;
1,23932554804289E-5;
1,71979829652113E-5;
1,98253095522524E-5;
1,51655777945744E-5;
1,92240806421259E-6;
-1,55467216400748E-5;
-2,95260239513826E-5;
-3,38739333298803E-5;
-2,79631317384437E-5;
-1,67022123389479E-5;
-6,72850881563818E-6;
-1,78592420999749E-6;
-7,97776762319111E-7;
1,49815495107797E-7;
3,87580485683527E-6;
9,63885726932439E-6;
1,41293299503247E-5;
1,48514212246136E-5;
1,2740725708181E-5;
1,15257613758071E-5;
1,4211714217989E-5;
1,97059707427005E-5;
2,27239597810756E-5;
1,75017103732072E-5;
2,60296632916195E-6;
-1,7047439601426E-5;
-3,27853573375687E-5;
-3,77498378454035E-5;
-3,12641277651654E-5;
-1,88155040231037E-5;
-7,78596278818215E-6;
-2,32012802030564E-6;
-1,21756726584046E-6;
-1,55097052667594E-7;
3,9667243564013E-6;
1,03249932003378E-5;
1,52865658981428E-5;
1,61241315668339E-5;
1,38672059681523E-5;
1,25836339264209E-5;
1,55382370763035E-5;
2,15352772552051E-5;
2,48420597602252E-5;
1,92291513549011E-5;
3,1624948091219E-6;
-1,80303563156672E-5;
-3,50165110774016E-5;
-4,04307084335594E-5;
-3,35628090663523E-5;
-2,03038326493208E-5;
-8,55204228575745E-6;
-2,72805285090274E-6;
-1,54585108367556E-6;
-4,02416976651098E-7;
3,99184006025183E-6;
1,07579024043165E-5;
1,60443168692884E-5;
1,69690052390823E-5;
1,46247941813306E-5;
1,33047090694947E-5;
1,64440768385523E-5;
2,27784924159291E-5;
2,62828128192349E-5;
2,04270425389735E-5;
3,61605408057856E-6;
-1,85634683407747E-5;
-3,6353635597229E-5;
-4,20722910144756E-5;
-3,49899344652658E-5;
-2,12491184441758E-5;
-9,06574047731275E-6;
-3,02796382909852E-6;
-1,79734588892799E-6;
-6,03439019701331E-7;
3,95511916127188E-6;
1,09653015282478E-5;
1,64485587009769E-5;
1,74345488192349E-5;
1,50528980171904E-5;
1,37230078770825E-5;
1,6973605373624E-5;
2,3501430777642E-5;
2,71234565243458E-5;
2,11515724516951E-5;
3,96130632930479E-6;
-1,87254107252715E-5;
-3,69358968813283E-5;
-4,28326535830944E-5;
-3,56789600926108E-5;
-2,17379414418564E-5;
-9,37227995391827E-6;
-3,24445386026604E-6;
-1,99205894148198E-6;
-7,73724859221953E-7;
3,85644340469576E-6;
1,09703781396387E-5;
1,65406315651031E-5;
1,7565580316178E-5;
1,5188941590968E-5;
1,38719558632832E-5;
1,71708318086899E-5;
2,37689389504769E-5;
2,74403072608843E-5;
2,14603156307081E-5;
4,20222067283807E-6;
-1,85823946505959E-5;
-3,68851410534711E-5;
-4,28507555403955E-5;
-3,57456873208848E-5;
-2,18423512150731E-5;
-9,50509019507106E-6;
-3,39155266428298E-6;
-2,13950446551445E-6;
-9,18442833254451E-7;
3,70510938594092E-6;
1,08041307761653E-5;
1,63684438989961E-5;
1,74133137431084E-5;
1,50773710197166E-5;
1,37923290730753E-5;
1,70862647180929E-5;
2,36506819504095E-5;
2,73135277902069E-5;
2,1416056392975E-5;
4,35205060643057E-6;
-1,81860103284001E-5;
-3,63044734895165E-5;
-4,22458237605974E-5;
-3,52884545580431E-5;
-2,16208731460006E-5;
-9,48759754193518E-6;
-3,47522461630169E-6;
-2,24184578404162E-6;
-1,0361160511318E-6;
3,51552196531539E-6;
1,05005194596483E-5;
1,59811125150694E-5;
1,7029570344702E-5;
1,47634896397297E-5;
1,35257394694079E-5;
1,67700937752237E-5;
2,32140496193385E-5;
2,68197847888787E-5;
2,10792670019183E-5;
4,42568682548444E-6;
-1,75809568871476E-5;
-3,52860320384201E-5;
-4,11251538885719E-5;
-3,43959453274533E-5;
-2,11262882530446E-5;
-9,34094209274229E-6;
-3,50100754080539E-6;
-2,30142989571774E-6;
-1,12602831403277E-6;
3,29992180863363E-6;
1,00893649465647E-5;
1,54220692708944E-5;
1,64600901072688E-5;
1,4286973564898E-5;
1,31083785487083E-5;
1,6266178882975E-5;
2,25184124914226E-5;
2,60267940524633E-5;
2,05029132455709E-5;
4,4347054968063E-6;
-1,68097566251251E-5;
-3,39154579923335E-5;
-3,95882741869726E-5;
-3,31510084328882E-5;
-2,04091031116427E-5;
-9,08709314499262E-6;
-3,4767991853982E-6;
-2,32328091066537E-6;
-1,19042651409934E-6;
3,06650190253847E-6;
9,59477593235752E-6;
1,47277718968598E-5;
1,57435024977429E-5;
1,36810872749841E-5;
1,25704776758534E-5;
1,56117620374461E-5;
2,1615091114801E-5;
2,49935151132379E-5;
1,9732819494762E-5;
4,38782459642545E-6;
-1,59122404524931E-5;
-3,22712894703297E-5;
-3,77262107703036E-5;
-3,16297048463268E-5;
-1,95163402432837E-5;
-8,74743972813043E-6;
-3,41129298247782E-6;
-2,31341254463583E-6;
-1,23272802632221E-6;
2,82130564989186E-6;
9,03716619818871E-6;
1,39298174219071E-5;
1,49134912070726E-5;
1,29748641513415E-5;
1,19384967721086E-5;
1,48396999194759E-5;
2,05496467778198E-5;
2,3772465746428E-5;
1,88099222059959E-5;
4,29301001462898E-6;
-1,49236532208499E-5;
-3,04232513116718E-5;
-3,56198293062256E-5;
-2,9899626406553E-5;
-1,8489780601614E-5;
-8,34094182389202E-6;
-3,31212744312735E-6;
-2,2770359416793E-6;
-1,25578066116536E-6;
2,56994048367042E-6;
8,4349581156413E-6;
1,30566216932983E-5;
1,40004011439724E-5;
1,21946022393961E-5;
1,12365192112364E-5;
1,39798074646423E-5;
1,93632035836166E-5;
2,24109884896368E-5;
1,7771385846518E-5;
4,15831362154043E-6;
-1,38741233458062E-5;
-2,84319735960395E-5;
-3,33396956249116E-5;
-2,8019725840164E-5;
-1,73657011037339E-5;
-7,88382753813795E-6;
-3,18558261381984E-6;
-2,21830192275467E-6;
-1,26166458984163E-6;
2,31775653026349E-6;
7,8047720735445E-6;
1,21336088002282E-5;
1,30313743654558E-5;
1,13639161121555E-5;
1,04862401330904E-5;
1,30588105778967E-5;
1,80924227414238E-5;
2,09512268454036E-5;
1,66504587395318E-5;
3,99150520761674E-6;
-1,27893350476105E-5;
-2,63499104193011E-5;
-3,09470654926112E-5;
-2,60412415780461E-5;
-1,61756409047108E-5;
-7,3902068681067E-6;
-3,03713527175723E-6;
-2,14085832195121E-6;
-1,25224661733196E-6;
2,0693499397221E-6;
7,16101905935579E-6;
1,1182853906327E-5;
1,20300018880069E-5;
1,05033529648471E-5;
9,70655256897174E-6;
1,20999999240483E-5;
1,67692390934381E-5;
1,94298953913311E-5;
1,54761777638558E-5;
3,79954934540964E-6;
-1,16913194468186E-5;
-2,42223327581857E-5;
-2,84949319598164E-5;
-2,40086132425676E-5;
-1,49471088238115E-5;
-6,87258703883297E-6;
-2,87186398452617E-6;
-2,04822048099261E-6;
-1,2295041247913E-6;
1,8283147399548E-6;
6,51575515346809E-6;
1,02230457985361E-5;
1,10163142324719E-5;
9,63036317024677E-6;
8,91352687014015E-6;
1,11232557613596E-5;
1,54209967205664E-5;
1,7878492251758E-5;
1,4273504869241E-5;
3,58852837899335E-6;
-1,05988313068232E-5;
-2,20879329831118E-5;
-2,60286727006802E-5;
-2,19600003527526E-5;
-1,37038727528257E-5;
-6,3419788305023E-6;
-2,69446045435304E-6;
-1,94373862334228E-6;
-1,19546902008603E-6;
1,59738014390898E-6;
5,87893892167589E-6;
9,26981323170208E-6;
1,00071264270269E-5;
8,75962583674182E-6;
8,12071529202894E-6;
1,01454006760186E-5;
1,40708858635202E-5;
1,63237786005611E-5;
1,30637280622456E-5;
3,36380513927933E-6;
-9,52749397086609E-6;
-1,99792171659089E-5;
-2,35865119617065E-5;
-1,99276265319416E-5;
-1,2466104622356E-5;
-5,80785129603689E-6;
-2,50908732331199E-6;
-1,83044588579982E-6;
-1,15205794503706E-6;
1,3786378941208E-6;
5,25874672988276E-6;
8,33612354232152E-6;
9,01644566555947E-6;
7,90340560464438E-6;
7,3394847883968E-6;
9,18057599807903E-6;
1,27384078400346E-5;
1,47882822260484E-5;
1,18648622748029E-5;
3,13016629418425E-6;
-8,48998585339471E-6;
-1,79229442040902E-5;
-2,12000429455246E-5;
-1,79382006002652E-5;
-1,12505945563885E-5;
-5,2781717803296E-6;
-2,31933875270304E-6;
-1,71100593597645E-6;
-1,10100349407418E-6;
1,17367275748051E-6;
4,66179518102565E-6;
7,43257419680987E-6;
8,05576698337963E-6;
7,07180125905821E-6;
6,57922999288099E-6;
8,24048988123896E-6;
1,14397052797662E-5;
1,32906726313891E-5;
1,06919326622066E-5;
2,89185111258697E-6;
-7,49633647049821E-6;
-1,59406810615974E-5;
-1,8894855196544E-5;
-1,60134273369485E-5;
-1,00710640883387E-5;
-4,75954893035913E-6;
-2,12829470760638E-6;
-1,58774916784697E-6;
-1,04388619014157E-6;
9,83597252132518E-7;
4,09328382557157E-6;
6,56759472179409E-6;
7,13427507554229E-6;
6,2729241718265E-6;
5,8475374548996E-6;
7,33461690708861E-6;
1,01878454281841E-5;
1,18460855527965E-5;
9,55720783812956E-6;
2,65254834769636E-6;
-6,5542424018819E-6;
-1,40493673088343E-5;
-1,66911802598997E-5;
-1,41705555738348E-5;
-8,9385071660886E-6;
-4,25739343154498E-6;
-1,93860046143276E-6;
-1,46272405155131E-6;
-9,82153559831736E-7;
8,09081837925215E-7;
3,55710300530721E-6;
5,74765099224994E-6;
6,25907736624706E-6;
5,51307724919529E-6;
5,15033818241599E-6;
6,47039774010434E-6;
8,99310275019519E-6;
1,04664526707463E-5;
8,47044209260626E-6;
2,4153979177126E-6;
-5,66936620431531E-6;
-1,22618487663985E-5;
-1,46044846382876E-5;
-1,24228551575928E-5;
-7,86148607989897E-6;
-3,77604093916744E-6;
-1,75249239475683E-6;
-1,3377285169066E-6;
-9,17148286160242E-7;
6,50413564749157E-7;
3,0560062494267E-6;
4,97747000817584E-6;
5,43542056297505E-6;
4,7969519475785E-6;
4,49208810824908E-6;
5,65345915423116E-6;
7,86327087057078E-6;
9,16085450895108E-6;
7,43915644520727E-6;
2,18305497727013E-6;
-4,84557804988854E-6;
-1,05873491849048E-5;
-1,26460159919865E-5;
-1,07800768635685E-5;
-6,84639090795526E-6;
-3,318856777341E-6;
-1,57183879800569E-6;
-1,21430307013323E-6;
-8,50074461260984E-7;
5,0756119853524E-7;
2,59175139127828E-6;
4,26025940193462E-6;
4,66693703483905E-6;
4,12784063479605E-6;
3,87595756649872E-6;
4,88784139684925E-6;
6,80395785386176E-6;
7,93585729965953E-6;
6,4688857699642E-6;
1,95771567945085E-6;
-4,08518242446108E-6;
-9,0319202996427E-6;
-1,08233240726068E-5;
-9,24886662278904E-6;
-5,89769701845364E-6;
-2,88833775276973E-6;
-1,39815430583165E-6;
-1,09375507922033E-6;
-7,82006655988215E-7;
3,80243671702059E-7;
2,165252908869E-6;
3,59792312778158E-6;
3,95586013629725E-6;
3,50781202462025E-6;
3,30399687642228E-6;
4,176198203896E-6;
5,81886124788685E-6;
6,79583070784617E-6;
5,56343744030634E-6;
1,74117978330838E-6;
-3,38914881737438E-6;
-7,59887655301734E-6;
-9,14074918172497E-6;
-7,83318164099706E-6;
-5,01820520332428E-6;
-2,48621013028998E-6;
-1,23263097418578E-6;
-9,77158375554942E-7;
-7,13889007708131E-7;
2,67968652974493E-7;
1,7767066645962E-6;
2,99123897370719E-6;
3,30321495484868E-6;
2,93788818581536E-6;
2,77728706959792E-6;
3,51998305306172E-6;
4,91003096748568E-6;
5,74323876756E-6;
4,72509870593251E-6;
1,53486801820635E-6;
-2,75730932794866E-6;
-6,28918645589984E-6;
-7,59988554832632E-6;
-6,53466351424255E-6;
-4,20927607393946E-6;
-2,11353498420786E-6;
-1,07617833799635E-6;
-8,65388504948255E-7;
-6,46539399052415E-7;
1,70079337592016E-7;
1,4256998989603E-6;
2,44003775378149E-6;
2,70900624260522E-6;
2,41819525717923E-6;
2,29608160713976E-6;
2,919620384077E-6;
4,07809540864862E-6;
4,77890907779466E-6;
3,95485826542536E-6;
1,33986859646463E-6;
-2,18856077568697E-6;
-5,10185508413014E-6;
-6,20000538890736E-6;
-5,35299641624511E-6;
-3,47104512563333E-6;
-1,77079681094758E-6;
-9,29454288900913E-7;
-7,59138591557029E-7;
-5,80664274892755E-7;
8,578983095769E-8;
1,11132092377394E-6;
1,94335498870595E-6;
2,17237975349385E-6;
1,94810249802486E-6;
1,85993308084024E-6;
2,37466503908472E-6;
3,32248506257987E-6;
3,90228434237885E-6;
3,2525882287305E-6;
1,1569644909931E-6;
-1,68103095521145E-6;
-4,03425426207616E-6;
-4,93845358139301E-6;
-4,28623636461927E-6;
-2,80261813938716E-6;
-1,45798779866884E-6;
-7,92893346791552E-7;
-6,58931138066829E-7;
-5,16856273981405E-7;
1,42200158026197E-8;
8,32257759911929E-7;
1,49957779122555E-6;
1,6917737949063E-6;
1,52636527922948E-6;
1,46781837933374E-6;
1,88395126534019E-6;
2,64163545762183E-6;
3,11165260946055E-6;
2,61723531108555E-6;
9,86670932443292E-7;
-1,23223580153983E-6;
-3,08242830190189E-6;
-3,8109992269338E-6;
-3,33109280607353E-6;
-2,20224956563516E-6;
-1,17469069215621E-6;
-6,66731636927539E-7;
-5,65141946974131E-7;
-4,5560814706593E-7;
-4,55717969406511E-8;
5,86877014898084E-7;
1,10657534945246E-6;
1,26506450143331E-6;
1,15123212531652E-6;
1,11824159347624E-6;
1,44572312471977E-6;
2,03317111257435E-6;
2,40436317827798E-6;
2,0469759593636E-6;
8,29272237643988E-7;
-8,39216361636361E-7;
-2,24137371654421E-6;
-2,81214816814044E-6;
-2,48320129329359E-6;
-1,66750733655343E-6;
-9,20144417097553E-7;
-5,51036892531993E-7;
-4,78009181178445E-7;
-3,97313577456976E-7;
-9,45677050020985E-8;
3,73309469060812E-7;
7,6181629752851E-7;
8,89684336560865E-7;
8,20564983861086E-7;
8,09340094122732E-7;
1,05776041416047E-6;
1,49406555669933E-6;
1,77700615426496E-6;
1,53937002347016E-6;
6,8484706624668E-7;
-4,98663129916676E-7;
-1,50528027170866E-6;
-1,93543538532309E-6;
-1,73735801523372E-6;
-1,19541423046071E-6;
-6,93310080903463E-7;
-4,45733260318348E-7;
-3,97660551038752E-7;
-3,42276777027816E-7;
-1,33756610104013E-7;
1,89514775306455E-7;
4,6247355117385E-7;
5,62734313954177E-7;
5,31922429561557E-7;
5,38964275045325E-7;
7,17479966117215E-7;
1,02079459685977E-6;
1,22559203918224E-6;
1,09149142990621E-6;
5,5329809816108E-7;
-2,07023638660409E-7;
-8,6774821484168E-7;
-1,17367604490139E-6;
-1,08773392170813E-6;
-7,82579863349127E-7;
-4,92929472842796E-7;
-3,50615997537378E-7;
-3,24112231917036E-7;
-2,90725052999573E-7;
-1,64131016599524E-7;
3,33411533542875E-8;
2,05511446060295E-7;
2,81079057940386E-7;
2,82651667813838E-7;
3,04759221289108E-7;
4,22037017157539E-7;
6,09467631421843E-7;
7,45697856241487E-7;
7,00047230398903E-7;
4,34383676022092E-7;
3,9403218963115E-8;
-3,21983358980206E-7;
-5,19183979766499E-7;
-5,28058722699345E-7;
-4,25318508298055E-7;
-3,17579064907582E-7;
-2,65384914757834E-7;
-2,57299514187729E-7;
-2,42809854837357E-7;
-1,86660081844587E-7;
-9,74286868067974E-8;
-1,22352532230394E-8;
4,14336948076031E-8;
6,99582788311204E-8;
1,0422783076855E-7;
1,68403494980851E-7;
2,55936974161786E-7;
3,32597502241558E-7;
3,61481534242228E-7;
3,27732420706033E-7;
2,44388188303891E-7;
1,39046078018539E-7;
3,60284734877383E-8;
-5,17840086871619E-8;
-1,19745502386809E-7;
-1,65712161059334E-7;
-1,89652006102608E-7;
-1,97080107213689E-7;
-1,98617659451128E-7;
-2,02279378824225E-7;
-2,05023204316772E-7;
-1,93988740013018E-7;
-1,59567487040546E-7;
-1,09029913842398E-7;
-6,52056815362748E-8;
-4,65579822341191E-8;
-4,40966452100241E-8;
-1,86157002735145E-8;
7,20690799283759E-8;
2,32878147589687E-7;
4,11701310062121E-7;
5,22456853621949E-7;
5,00090916169947E-7;
3,47777088293521E-7;
1,38132103062902E-7;
-3,57057805515892E-8;
-1,22970845075817E-7;
-1,43250667150868E-7;
-1,58178931934282E-7;
-2,11884634744434E-7;
-2,91654729404189E-7;
-3,42976473944016E-7;
-3,25302385550824E-7;
-2,57204078773303E-7;
-2,06147794932199E-7;
-2,26029826193355E-7;
-2,95004206583047E-7;
-3,12941246917164E-7;
-1,72008338492091E-7;
1,49271384632948E-7;
5,45058240485331E-7;
8,35344818890496E-7;
8,81132662664282E-7;
6,77332411065959E-7;
3,52342436750856E-7;
7,41111673366466E-8;
-6,4836995040109E-8;
-9,55549341440809E-8;
-1,21472349023038E-7;
-2,16319893800776E-7;
-3,59486707865821E-7;
-4,62379434848016E-7;
-4,59114696664165E-7;
-3,7743289428124E-7;
-3,21192802332484E-7;
-3,73187787952745E-7;
-5,01143900059561E-7;
-5,55374317901178E-7;
-3,74592098774845E-7;
7,63026613895837E-8;
6,48070245460093E-7;
1,08467455834307E-6;
1,18716091018766E-6;
9,43508366944004E-7;
5,26887160791147E-7;
1,65423267349744E-7;
-1,47158827722156E-8;
-5,36991570693807E-8;
-8,84329446312731E-8;
-2,16373918751333E-7;
-4,10609878211812E-7;
-5,55291509666828E-7;
-5,64267898842373E-7;
-4,72529919755681E-7;
-4,12887276672333E-7;
-4,91154481235536E-7;
-6,66813580019681E-7;
-7,50840408306964E-7;
-5,39486258700881E-7;
1,33161663184407E-8;
7,24207318002683E-7;
1,27720232661051E-6;
1,42596827960967E-6;
1,1527697001156E-6;
6,65685882254345E-7;
2,3990199514205E-7;
2,79507965989199E-8;
-1,73573033697166E-8;
-5,89623515301436E-8;
-2,12776835201395E-7;
-4,47017471912427E-7;
-6,24696288936512E-7;
-6,43914046879994E-7;
-5,45206023324065E-7;
-4,83702597221848E-7;
-5,82969725141829E-7;
-7,96189994532525E-7;
-9,04140164310872E-7;
-6,70419743794257E-7;
-4,03729328722812E-8;
7,7677281200192E-7;
1,41941198877606E-6;
1,60505357450331E-6;
1,31134922141703E-6;
7,72535857173014E-7;
2,99194102461987E-7;
6,37370781438007E-8;
1,38173724490855E-8;
-3,2926756060093E-8;
-2,06193989433487E-7;
-4,70597213278386E-7;
-6,73427694227033E-7;
-7,01059000107754E-7;
-5,98064926375E-7;
-5,36009142347539E-7;
-6,51550921844297E-7;
-8,9329690664465E-7;
-1,01989666579197E-6;
-7,7099138709919E-7;
-8,54643376056584E-8;
8,08877757743851E-7;
1,51746172555243E-6;
1,73155820841236E-6;
1,42520261457514E-6;
8,51075495115423E-7;
3,44885100513539E-7;
9,32182652105303E-8;
4,01891278917788E-8;
-1,0173016631958E-8;
-1,97235437771658E-7;
-4,83117933635691E-7;
-7,04163463791261E-7;
-7,38551874739733E-7;
-6,33569318437831E-7;
-5,7205769444481E-7;
-6,99676059885979E-7;
-9,61961109154913E-7;
-1,10252156121326E-6;
-8,44655737310846E-7;
-1,22665761509456E-7;
8,23424865395553E-7;
1,57715116093553E-6;
1,81222437353594E-6;
1,49995544787727E-6;
9,04759166718391E-7;
3,78506027284028E-7;
1,16966475611566E-7;
6,21295771298263E-8;
9,47778548617729E-9;
-1,86444261873802E-7;
-4,86226170062505E-7;
-7,19407104444547E-7;
-7,59057265366907E-7;
-6,54034098152771E-7;
-5,93971368182254E-7;
-7,29972645272565E-7;
-1,00580232548969E-6;
-1,15618033416902E-6;
-8,94690727729145E-7;
-1,52681801865133E-7;
8,2310422347645E-7;
1,60388852652577E-6;
1,85335867666658E-6;
1,54088917845336E-6;
9,36839067332495E-7;
4,01505993130409E-7;
1,3553765414447E-7;
8,00090992494344E-8;
2,62125740370886E-8;
-1,74304297955101E-7;
-4,81430482809775E-7;
-7,21478897823685E-7;
-7,65058372132247E-7;
-6,61615974057751E-7;
-6,03730597886277E-7;
-7,44890879825294E-7;
-1,02820608041276E-6;
-1,18478256011948E-6;
-9,24174178028918E-7;
-1,76200347781489E-7;
8,10382573266733E-7;
1,60268558371951E-6;
1,86081752068307E-6;
1,55291178336055E-6;
9,50347730726571E-7;
4,15256507947842E-7;
1,49478789920955E-7;
9,419916911649E-8;
4,02345203683834E-8;
-1,61241065493523E-7;
-4,7011871817933E-7;
-7,12516046902321E-7;
-7,58841883669545E-7;
-6,58308116132626E-7;
-6,03169775950957E-7;
-7,46707506678796E-7;
-1,03231907658215E-6;
-1,19196379332754E-6;
-9,35986102058773E-7;
-1,93892067102433E-7;
7,87506716763479E-7;
1,57813679827027E-6;
1,83998580024366E-6;
1,54055140353546E-6;
9,48096138534611E-7;
4,21036405386635E-7;
1,5930970700499E-7;
1,05061718846497E-7;
5,17478650200944E-8;
-1,47623371440753E-7;
-4,5353896695603E-7;
-6,94463945186753E-7;
-7,42499643292508E-7;
-6,45935992219832E-7;
-5,93975063905822E-7;
-7,37518425376015E-7;
-1,02103622198794E-6;
-1,18107315345977E-6;
-9,32789285565181E-7;
-2,0640259542745E-7;
7,56504405170818E-7;
1,53443163046506E-6;
1,79578610694591E-6;
1,50795077489858E-6;
9,32662869378628E-7;
4,2003233350239E-7;
1,65525777310496E-7;
1,12951546628033E-7;
6,09619694237816E-8;
-1,33773322869952E-7;
-4,32817629418207E-7;
-6,69084856656262E-7;
-7,1792859470882E-7;
-6,26159267320812E-7;
-5,77682561009549E-7;
-7,19238779440397E-7;
-9,97009443575877E-7;
-1,15517917006145E-6;
-9,17031663747955E-7;
-2,14347320349593E-7;
7,19187841845138E-7;
1,47534739982044E-6;
1,73267409677832E-6;
1,45887456381101E-6;
9,06400123053077E-7;
4,13336256365062E-7;
1,68595457502447E-7;
1,18203610069452E-7;
6,8086840296055E-8;
-1,19956507939904E-7;
-4,08954082580267E-7;
-6,37957380212258E-7;
-6,86837886649459E-7;
-6,00473508971876E-7;
-5,55681246670554E-7;
-6,93602650404862E-7;
-9,62638550877005E-7;
-1,1170674560372E-6;
-8,90945122362449E-7;
-2,18309253620446E-7;
6,77170675809188E-7;
1,40427565121056E-6;
1,6546546895374E-6;
1,39670838824638E-6;
8,71431242503606E-7;
4,01949369573084E-7;
1,68959550206103E-7;
1,21144076674993E-7;
7,33295117781735E-8;
-1,06398646285188E-7;
-3,82832541059067E-7;
-6,02490941791752E-7;
-6,50751444766768E-7;
-5,70219424308597E-7;
-5,2921781998591E-7;
-6,62168327263841E-7;
-9,20087446030539E-7;
-1,06924857854706E-6;
-8,56547062777789E-7;
-2,18835456181486E-7;
6,31862656288984E-7;
1,32422487069891E-6;
1,5652944882086E-6;
1,32447843336965E-6;
8,29667010818046E-7;
3,86774571737909E-7;
1,67024381074374E-7;
1,22075188703224E-7;
7,68891282159211E-8;
-9,32806900484342E-8;
-3,55223067459783E-7;
-5,63921728562652E-7;
-6,11015974771722E-7;
-5,36583612897091E-7;
-4,99399299975202E-7;
-6,26326812614608E-7;
-8,71284808712073E-7;
-1,01396408003652E-6;
-8,15651462851116E-7;
-2,16434648965315E-7;
5,84496347503482E-7;
1,23784089022748E-6;
1,46774593071818E-6;
1,24486515508242E-6;
7,82799763340942E-7;
3,68625706133586E-7;
1,63164898486806E-7;
1,21283631327119E-7;
7,89610963600813E-8;
-8,075014754244E-8;
-3,26791368832658E-7;
-5,23332353459824E-7;
-5,68814449846449E-7;
-5,00610304359409E-7;
-4,67202575535868E-7;
-5,87303252039513E-7;
-8,17937129209857E-7;
-9,53204024963639E-7;
-7,69871654243694E-7;
-2,11578196247767E-7;
5,36128273991428E-7;
1,14743051882424E-6;
1,36476364901343E-6;
1,16021851304481E-6;
7,32322863842677E-7;
3,48227777936453E-7;
1,57727942161666E-7;
1,19035818711547E-7;
7,97300648876698E-8;
-6,89166423644017E-8;
-2,98103698188119E-7;
-4,81658061760781E-7;
-5,25169671921812E-7;
-4,63201114323225E-7;
-4,33481327071304E-7;
-5,46177235790556E-7;
-7,61539001110452E-7;
-8,88711739139533E-7;
-7,20629861365569E-7;
-2,04698422010379E-7;
4,87654616673344E-7;
1,05498339927531E-6;
1,25873287058302E-6;
1,07257951241797E-6;
6,79542265662611E-7;
3,26222830512702E-7;
1,51025819002658E-7;
1,15575994664641E-7;
7,93735731514968E-8;
-5,78621056579218E-8;
-2,6964071265271E-7;
-4,39691441977107E-7;
-4,80956931224473E-7;
-4,25140823179198E-7;
-3,98968522207784E-7;
-5,03874748558572E-7;
-7,03389671527465E-7;
-8,22003671002515E-7;
-6,69171550580391E-7;
-1,96189343663178E-7;
4,39827475609537E-7;
9,62187986520093E-7;
1,15169198402314E-6;
9,837015241016E-7;
6,25584633980937E-7;
3,03172207946377E-7;
1,43340623068375E-7;
1,11130142210964E-7;
7,805476054966E-8;
-4,76429440283094E-8;
-2,41795730552254E-7;
-3,98105191658013E-7;
-4,36920149758429E-7;
-3,87088284205168E-7;
-3,64293643857292E-7;
-4,61195453131516E-7;
-6,44601583878773E-7;
-7,5438585898332E-7;
-6,16571780441866E-7;
-1,86405611462331E-7;
3,93260705476807E-7;
8,70466110426285E-7;
1,0453655549089E-6;
8,95067747903613E-7;
5,71409517435078E-7;
2,7956457377916E-7;
1,34923476440242E-7;
1,05901912686744E-7;
7,59319618080259E-8;
-3,82899380484716E-8;
-2,14888659630126E-7;
-3,57451681232389E-7;
-3,93677487952538E-7;
-3,49598152640183E-7;
-3,29983720543105E-7;
-4,18811565598525E-7;
-5,86114545301342E-7;
-6,86960143539213E-7;
-5,6375077624698E-7;
-1,75667655009542E-7;
3,48452358786555E-7;
7,80989654068146E-7;
9,41183172401662E-7;
8,07919153998615E-7;
5,1782821532175E-7;
2,55818491931689E-7;
1,25999778027888E-7;
1,00077584604757E-7;
7,31449654463193E-8;
-2,98172168813267E-8;
-1,8917256541555E-7;
-3,18180678148022E-7;
-3,51731448844987E-7;
-3,1312470611787E-7;
-2,96476718224406E-7;
-3,77282852570744E-7;
-5,2871718066193E-7;
-6,20656648701496E-7;
-5,11484089782306E-7;
-1,64259028839976E-7;
3,05787346106482E-7;
6,94703973114127E-7;
8,40309908525619E-7;
7,2327336187675E-7;
4,65507930124548E-7;
2,32283523169909E-7;
1,16763953244016E-7;
9,38190033529083E-8;
6,98252106989732E-8;
-2,22208413037615E-8;
-1,64843143593963E-7;
-2,80648480283331E-7;
-3,11488376303995E-7;
-2,78034991525274E-7;
-2,64125968776282E-7;
-3,3706800180378E-7;
-4,73051600461235E-7;
-5,56233853953652E-7;
-4,60414852736617E-7;
-1,52426993379146E-7;
2,65557362601584E-7;
6,12353885086217E-7;
7,43672305146095E-7;
6,41945650830556E-7;
4,14995451305709E-7;
2,09254767712292E-7;
1,07387125426837E-7;
8,72735146631609E-8;
6,60899590107768E-8;
-1,54826814157396E-8;
-1,42036551288493E-7;
-2,45122774957313E-7;
-2,73258907144148E-7;
-2,44615684886588E-7;
-2,33211342324274E-7;
-2,98529952611811E-7;
-4,19631020110968E-7;
-4,94300054847026E-7;
-4,11068952444631E-7;
-1,40394241425438E-7;
2,27967802746856E-7;
5,34504250278447E-7;
6,51986597557683E-7;
5,64569766428428E-7;
3,6671560203938E-7;
1,86973791575131E-7;
9,80151289902548E-8;
8,05698987654288E-8;
6,20523863205312E-8;
-9,57407686896887E-9;
-1,20848761371453E-7;
-2,11802634736328E-7;
-2,37275347556394E-7;
-2,13079655204928E-7;
-2,03947931630463E-7;
-2,61950116822756E-7;
-3,68855341836145E-7;
-4,35336106411639E-7;
-3,63859691635742E-7;
-1,2834523372282E-7;
1,93148251226901E-7;
4,61560326316931E-7;
5,65777213421056E-7;
4,91622394159672E-7;
3,21002338937992E-7;
1,65632523601687E-7;
8,87734027328664E-8;
7,38179268881572E-8;
5,78026813076407E-8;
-4,45760282870065E-9;
-1,01333423944485E-7;
-1,80819138681874E-7;
-2,03698437839226E-7;
-1,83583138336055E-7;
-1,7649000551607E-7;
-2,27535518823321E-7;
-3,21023470410985E-7;
-3,79699145103331E-7;
-3,19107773932656E-7;
-1,16440276699153E-7;
1,61168220580737E-7;
3,93790014390935E-7;
4,85407455498385E-7;
4,23436947880234E-7;
2,78090008459911E-7;
1,45377219040645E-7;
7,97647103860374E-8;
6,71143422188238E-8;
5,34283229705384E-8;
-9,09815282186211E-11;
-8,35108526653053E-8;
-1,52245268991975E-7;
-1,72626971940737E-7;
-1,56221172652139E-7;
-1,50940985924614E-7;
-1,9543101128722E-7;
-2,76339764598612E-7;
-3,27642628388514E-7;
-2,77049113131491E-7;
-1,04813208794111E-7;
1,32043531492833E-7;
3,31341767812607E-7;
4,11089514206858E-7;
3,60221692394436E-7;
2,38140948346087E-7;
1,26318528361921E-7;
7,10729401849615E-8;
6,05385546231766E-8;
4,90039604282945E-8;
3,5802009903403E-9;
-6,73690337406392E-8;
-1,26111629631855E-7;
-1,44106704954818E-7;
-1,31044460252714E-7;
-1,27360502469373E-7;
-1,65720830937688E-7;
-2,34933827096229E-7;
-2,79327826660097E-7;
-2,37839084089136E-7;
-9,35741391985441E-8;
1,05739065630557E-7;
2,74259943621838E-7;
3,42920530701921E-7;
3,02085110581212E-7;
2,01247679304401E-7;
1,0853105486903E-7;
6,27656441855884E-8;
5,41575260991658E-8;
4,45920509436676E-8;
6,60411921454771E-9;
-5,28764576696566E-8;
-1,02403687116538E-7;
-1,18140194126333E-7;
-1,08064436246719E-7;
-1,05769561298094E-7;
-1,38445356077321E-7;
-1,96867868859626E-7;
-2,34836819926226E-7;
-2,01573057885392E-7;
-8,28119862641533E-8;
8,21876111920064E-8;
2,22502654986878E-7;
2,80887583010206E-7;
2,49038363159516E-7;
1,6744188439845E-7;
9,20617502352882E-8;
5,48938870273503E-8;
4,80253253869073E-8;
4,02498501268546E-8;
9,03823001622472E-9;
-3,99796739057038E-8;
-8,10738809607971E-8;
-9,46887014965377E-8;
-8,7257623796486E-8;
-8,61584285946912E-8;
-1,13601513746174E-7;
-1,62144917394191E-7;
-1,94185295090002E-7;
-1,6828689589188E-7;
-7,25961303355111E-8;
6,12892469977859E-8;
1,7596117820119E-7;
2,24891863865291E-7;
2,01019684223635E-7;
1,3670845625329E-7;
7,69307571785334E-8;
4,74984122066756E-8;
4,21855047978848E-8;
3,60226259981863E-8;
1,09359295701004E-8;
-2,86111898863656E-8;
-6,20472459510292E-8;
-7,36876958876653E-8;
-6,85731931319115E-8;
-6,84868066285574E-8;
-9,11508254314124E-8;
-1,30718747500475E-7;
-1,57331799417297E-7;
-1,37972626071106E-7;
-6,29754856652452E-8;
4,29226374431386E-8;
1,34459966146335E-7;
1,74763460776784E-7;
1,57908099537303E-7;
1,08989392122198E-7;
6,31344247694689E-8;
4,06030020726491E-8;
3,66703564329471E-8;
3,19495752311789E-8;
1,23558558740436E-8;
-1,86909086192002E-8;
-4,52285528051E-8;
-5,5042010681476E-8;
-5,19390282810177E-8;
-5,26970759136443E-8;
-7,10282272664836E-8;
-1,02507371803688E-7;
-1,2418522970378E-7;
-1,1057698463444E-7;
-5,39896040243511E-8;
2,69466888468942E-8;
9,77861870986619E-8;
1,3027150813785E-7;
1,19525656930936E-7;
8,41945557123958E-8;
5,06532883696596E-8;
3,42251507826934E-8;
3,15056613669437E-8;
2,80582828096949E-8;
1,33481796688773E-8;
-1,01271486588588E-8;
-3,05031722890826E-8;
-3,86410085413674E-8;
-3,72595419155275E-8;
-3,87113051675485E-8;
-5,3146474215768E-8;
-7,73919995833188E-8;
-9,46210191928047E-8;
-8,60193946418441E-8;
-4,56585674614089E-8;
1,3206232682131E-8;
6,56861087439312E-8;
9,11470142721949E-8;
8,56580814764743E-8;
6,22036021537945E-8;
3,94533713432949E-8;
2,83699078937651E-8;
2,67034542048338E-8;
2,43737539746015E-8;
1,39665579059862E-8;
-2,82882852619764E-9;
-1,77463694932786E-8;
-2,43583765827035E-8;
-2,44341812874033E-8;
-2,64390283007451E-8;
-3,73970554615882E-8;
-5,5231870788568E-8;
-6,84788892062212E-8;
-6,41854646613374E-8;
-3,79933241783752E-8;
1,53940240637824E-9;
3,78820835209804E-8;
5,70808451453335E-8;
5,60611922655415E-8;
4,28806720362861E-8;
2,94864103542636E-8;
2,30336690287317E-8;
2,22740707449527E-8;
2,09148823179045E-8;
1,42613110318745E-8;
3,30459614178572E-9;
-6,82289696400251E-9;
-1,20554773373737E-8;
-1,33444236234468E-8;
-1,57799754403181E-8;
-2,36631280308175E-8;
-3,58654467946184E-8;
-4,5581166802946E-8;
-4,4949116456339E-8;
-3,09911164298221E-8;
-8,21886376916315E-9;
1,40776081154737E-8;
2,77443513962958E-8;
3,04681043149409E-8;
2,60682444157597E-8;
2,06942424766847E-8;
1,82108736780334E-8;
1,82204365177104E-8;
1,76926384164031E-8;
1,42798167543226E-8;
8,37161104221277E-9;
2,40551406398417E-9;
-1,5905174626584E-9;
-3,87043962896122E-9;
-6,62422601577926E-9;
-1,18143815063893E-8;
-1,91175708435938E-8;
-2,57265241696941E-8;
-2,81640918721683E-8;
-2,46494359591353E-8;
-1,62385023511347E-8;
-6,03050415853509E-9;
2,79277055090337E-9;
8,59742352976488E-9;
1,1602297227295E-8;
1,30140829357965E-8;
1,38867467285763E-8;
1,45386807211912E-8;
1,47143663252243E-8;
1,40648462362646E-8;
1,24726101358495E-8;
1,00814592749005E-8;
7,18340739169702E-9;
4,11331898805019E-9;
1,13840665035148E-9;
-1,71566130301441E-9;
-4,80410397197242E-9;
-8,70866137744407E-9;
-1,36716006765743E-8;
-1,89449131287991E-8;
-2,26837094353188E-8;
-2,2755386011044E-8;
-1,81265037859115E-8;
-9,84071020777842E-9;
-6,90895816671957E-10;
6,37615454857635E-9;
1,00423426017604E-8;
1,1222321935469E-8;
1,19844872192937E-8;
1,36581973572164E-8;
1,57052046198756E-8;
1,63464350739081E-8;
1,44155293688402E-8;
1,07342388268361E-8;
7,62335146536079E-9;
6,77304934225066E-9;
7,26457409871922E-9;
5,68902972544361E-9;
-1,30856519830206E-9;
-1,38609054337192E-8;
-2,7718769574391E-8;
-3,64034329674371E-8;
-3,53683342087714E-8;
-2,51385285690819E-8;
-1,09870340149884E-8;
7,05705666712883E-10;
6,65495187953914E-9;
8,25799092354714E-9;
9,50093234323979E-9;
1,30969140272958E-8;
1,8161920792576E-8;
2,13371446236021E-8;
2,02510361725683E-8;
1,61170331326257E-8;
1,29426218870555E-8;
1,37881279461921E-8;
1,72776185336815E-8;
1,76838910629661E-8;
9,09155381764876E-9;
-9,36774496463137E-9;
-3,14999677670042E-8;
-4,7280096888972E-8;
-4,92794824268381E-8;
-3,75836104046574E-8;
-1,94599090238252E-8;
-4,07004883061726E-9;
3,69969023598976E-9;
5,63257091542862E-9;
7,25946421436742E-9;
1,24140483050218E-8;
1,99364705870844E-8;
2,51917125754743E-8;
2,48333548148201E-8;
2,03850795657798E-8;
1,72089234027056E-8;
1,94689568261377E-8;
2,54260260883112E-8;
2,74934687693943E-8;
1,76986679701683E-8;
-5,43552939621649E-9;
-3,41781788550383E-8;
-5,56785080014822E-8;
-6,02038038211238E-8;
-4,7461614850019E-8;
-2,62840434689292E-8;
-8,02896211363371E-9;
1,15281249027566E-9;
3,33284099984804E-9;
5,25437436344431E-9;
1,16394665009292E-8;
2,11132355101694E-8;
2,80387488151484E-8;
2,83002443710457E-8;
2,36590176551148E-8;
2,05335028062409E-8;
2,3950018693114E-8;
3,18930929207481E-8;
3,53316302391531E-8;
2,46795172505997E-8;
-2,03189629148871E-9;
-3,58950825972105E-8;
-6,18815426864903E-8;
-6,84683001288895E-8;
-5,50481226146497E-8;
-3,16293606910234E-8;
-1,12432024444387E-8;
-1,01824262915676E-9;
1,33505687050894E-9;
3,47782527665999E-9;
1,0800757614782E-8;
2,17743115573751E-8;
3,00015510661388E-8;
3,07821712282294E-8;
2,60538293578776E-8;
2,30194326240316E-8;
2,73600240361496E-8;
3,68612127702723E-8;
4,14041645041903E-8;
3,0193943292638E-8;
8,79354315147797E-10;
-3,67833925252483E-8;
-6,6158249740641E-8;
-7,43871769522552E-8;
-6,06049978990473E-8;
-3,56576159636791E-8;
-1,37885961304205E-8;
-2,83982090752019E-9;
-3,76820040990663E-10;
1,91899043921838E-9;
9,92282743553691E-9;
2,19933647981278E-8;
3,11960574670642E-8;
3,2407042193308E-8;
2,76757312464812E-8;
2,47682788979461E-8;
2,98271486544472E-8;
4,04978072021665E-8;
4,59080880833963E-8;
3,44014548092836E-8;
3,33491822566112E-9;
-3,69653443999286E-8;
-6,87616630466772E-8;
-7,82574352789075E-8;
-6,43806120441873E-8;
-3,8524822866189E-8;
-1,57364647950116E-8;
-4,34100384343828E-9;
-1,82381355055944E-9;
5,654496003437E-10;
9,02396583638842E-9;
2,18415036907303E-8;
3,17307668323747E-8;
3,32872969665489E-8;
2,86290357283515E-8;
2,58739746120288E-8;
3,14635509024045E-8;
4,2967756487703E-8;
4,90348138465915E-8;
3,74524305230959E-8;
5,37009086076641E-9;
-3,65584333152024E-8;
-6,99269979982021E-8;
-8,0356087303894E-8;
-6,66125769115784E-8;
-4,03761616155457E-8;
-1,7152860698479E-8;
-5,5534303004661E-9;
-3,02704807015294E-9;
-5,9353384231347E-10;
8,12340359699988E-9;
2,13827195418463E-8;
3,17063487482625E-8;
3,35343070413554E-8;
2,90075303377862E-8;
2,64233602163394E-8;
3,23844967164622E-8;
4,44255819133057E-8;
5,09593521881336E-8;
3,94891152548321E-8;
7,02440288763487E-9;
-3,56632274593964E-8;
-6,98728000210901E-8;
-8,09425907673684E-8;
-6,7519051560253E-8;
-4,13506681386198E-8;
-1,810218376665E-8;
-6,50198782792105E-9;
-4,00714101129779E-9;
-1,57264891949736E-9;
7,23389377679824E-9;
2,06727049185095E-8;
3,12147870753522E-8;
3,32478647622234E-8;
2,8901870724468E-8;
2,65017350042725E-8;
3,26896011090022E-8;
4,50134532025492E-8;
5,18517800581872E-8;
4,06438868558961E-8;
8,33191519659584E-9;
-3,43744446775723E-8;
-6,88011679439125E-8;
-8,02545345121174E-8;
-6,73011938139105E-8;
-4,15766829767407E-8;
-1,86475034610784E-8;
-7,21521455102815E-9;
-4,78457761604014E-9;
-2,38705127445861E-9;
6,36863122270236E-9;
1,97669936004272E-8;
3,03416137334149E-8;
3,25187165237957E-8;
2,83902543390888E-8;
2,61834132057602E-8;
3,24754510438862E-8;
4,48619631643715E-8;
5,1862688767563E-8;
4,10433968771979E-8;
9,32857179992921E-9;
-3,27782368436332E-8;
-6,6893664000404E-8;
-7,85112915164376E-8;
-6,61463539950255E-8;
-4,11701798847172E-8;
-1,88450045026898E-8;
-7,72171453199544E-9;
-5,3801750069132E-9;
-3,04691228949867E-9;
5,53931752310661E-9;
1,87075976805051E-8;
2,91591762742046E-8;
3,14315793556877E-8;
2,75461900522697E-8;
2,55362034086316E-8;
3,1831261640983E-8;
4,40943607802183E-8;
5,11342925486428E-8;
4,08019517411595E-8;
1,00472062993339E-8;
-3,09490030411913E-8;
-6,4313405170591E-8;
-7,59075459005551E-8;
-6,42230523473659E-8;
-4,02407366400782E-8;
-1,87474024783707E-8;
-8,04560553457323E-9;
-5,81314028623927E-9;
-3,56921148736033E-9;
4,75057394025566E-9;
1,7540148137883E-8;
2,774078814105E-8;
3,00604138955051E-8;
2,64388161880199E-8;
2,46253735968191E-8;
3,08327428559986E-8;
4,28212058482629E-8;
4,97974061687544E-8;
4,00268727090092E-8;
1,05239275827758E-8;
-2,89526803962861E-8;
-6,12121806375313E-8;
-7,26261600585254E-8;
-6,16850190112467E-8;
-3,88858471873254E-8;
-1,84031172590104E-8;
-8,20975769256867E-9;
-6,10359498628841E-9;
-3,9676844615121E-9;
4,01046299543861E-9;
1,62971920978076E-8;
2,61417559651921E-8;
2,84718057433796E-8;
2,51249486878597E-8;
2,35051197396564E-8;
2,95537942374369E-8;
4,11420230581689E-8;
4,79680953219226E-8;
3,88127322202325E-8;
1,07874303165948E-8;
-2,68455031358099E-8;
-5,77176404957691E-8;
-6,88214648055843E-8;
-5,86676438484065E-8;
-3,71922590755844E-8;
-1,78536404514538E-8;
-8,23761519965195E-9;
-6,26743854221645E-9;
-4,25261821938065E-9;
3,32182136236846E-9;
1,50121885856783E-8;
2,44170955919947E-8;
2,67223116221578E-8;
2,36583184514298E-8;
2,22266715086148E-8;
2,80566019496994E-8;
3,91461129112624E-8;
4,57532592874085E-8;
3,72489027382839E-8;
1,08654267121742E-8;
-2,46813689190512E-8;
-5,3947740010241E-8;
-6,46347076224123E-8;
-5,52919047920266E-8;
-3,52418914306628E-8;
-1,71434918477447E-8;
-8,14932732402881E-9;
-6,32313012529271E-9;
-4,43905927450855E-9;
2,68882462865289E-9;
1,37103710518153E-8;
2,26134734399362E-8;
2,48677489132822E-8;
2,20855203669514E-8;
2,08329916215218E-8;
2,63989623382681E-8;
3,69132793798253E-8;
4,32430805828967E-8;
3,54111708227282E-8;
1,07880109701319E-8;
-2,24985730554578E-8;
-5,00025757560686E-8;
-6,01919766026974E-8;
-5,1666181542152E-8;
-3,31014327934726E-8;
-1,63047517196365E-8;
-7,96333961938105E-9;
-6,28622914897781E-9;
-4,53916281077346E-9;
2,11192669921431E-9;
1,24145491244762E-8;
2,07702483955284E-8;
2,29503064778671E-8;
2,04458293170567E-8;
1,93641277774742E-8;
2,46303916219634E-8;
3,45158988606794E-8;
4,05267728307727E-8;
3,33713277166079E-8;
1,05779674128588E-8;
-2,03360774978046E-8;
-4,59683479135244E-8;
-5,55971703610227E-8;
-4,78841173698045E-8;
-3,08345594380752E-8;
-1,53737364337992E-8;
-7,69932608054668E-9;
-6,16925947033337E-9;
-4,56431306406508E-9;
1,59114482545833E-9;
1,11450142517459E-8;
1,89217554343427E-8;
2,10092400891006E-8;
1,8775363152271E-8;
1,78539124718782E-8;
2,27945283497832E-8;
3,20110746860964E-8;
3,76704705798237E-8;
3,11883526187612E-8;
1,02585077411491E-8;
-1,8222217826605E-8;
-4,19197139001495E-8;
-5,09424092195734E-8;
-4,40235384987486E-8;
-2,84915741503669E-8;
-1,43737646510683E-8;
-7,37112971762964E-9;
-5,98848552366496E-9;
-4,52469759156054E-9;
1,12703924630954E-9;
9,91445505800383E-9;
1,70951071485155E-8;
1,90770859788657E-8;
1,71034422636837E-8;
1,63310429040716E-8;
2,09288145913719E-8;
2,94536737542901E-8;
3,47404351461132E-8;
2,89179946720303E-8;
9,85051205979636E-9;
-1,61811994234085E-8;
-3,79176641723405E-8;
-4,63058702941948E-8;
-4,01544528410392E-8;
-2,6120480456597E-8;
-1,33325265426749E-8;
-6,99276433063916E-9;
-5,75451199250998E-9;
-4,43167561545766E-9;
7,15566641187236E-10;
8,73550305622771E-9;
1,53154031675754E-8;
1,71804808428762E-8;
1,54535644441126E-8;
1,48168082410125E-8;
1,90633818706873E-8;
2,68890149572513E-8;
3,17874526534945E-8;
2,6604949944919E-8;
9,37392753541616E-9;
-1,42331492944742E-8;
-3,40137934315241E-8;
-4,175177220246E-8;
-3,63340603537179E-8;
-2,37580740696339E-8;
-1,22710540123359E-8;
-6,57949492486469E-9;
-5,47952726126117E-9;
-4,2943496420672E-9;
3,5726510890141E-10;
7,61981609441967E-9;
1,36005566407421E-8;
1,53423740547048E-8;
1,38476541311805E-8;
1,33349906720199E-8;
1,72277149182793E-8;
2,4355200122794E-8;
2,88601489784254E-8;
2,42884976184969E-8;
8,84570165083314E-9;
-1,23890652724885E-8;
-3,02492333859153E-8;
-3,7333489164935E-8;
-3,26108523710758E-8;
-2,143740427285E-8;
-1,12051047291289E-8;
-6,14001032864138E-9;
-5,17257633557698E-9;
-4,11884168733403E-9;
4,9059986571379E-11;
6,57080413447989E-9;
1,19654281027035E-8;
1,35788915945426E-8;
1,23017995279011E-8;
1,19006687211939E-8;
1,54395597972383E-8;
2,18827752219971E-8;
2,59941157392503E-8;
2,20008749416958E-8;
8,28005713891196E-9;
-1,0662020043548E-8;
-2,66572916883722E-8;
-3,30930322025361E-8;
-2,90215128366373E-8;
-1,91859572316324E-8;
-1,01530638481425E-8;
-5,68550534437404E-9;
-4,84349601169355E-9;
-3,91676691421451E-9;
-2,13359479601913E-10;
5,59527457712892E-9;
1,04203129417171E-8;
1,19041173471617E-8;
1,08273223233776E-8;
1,05270368662775E-8;
1,37214924678401E-8;
1,94974458401512E-8;
2,32214561942461E-8;
1,97720420001774E-8;
7,68963250417816E-9;
-9,05970004661237E-9;
-2,32606329356964E-8;
-2,90608155787675E-8;
-2,55961061720584E-8;
-1,70233822822339E-8;
-9,1256215490307E-9;
-5,22380152056831E-9;
-4,49858077382387E-9;
-3,69155338989908E-9;
-4,31610038499601E-10;
4,69670895870901E-9;
8,97506368007566E-9;
1,0327122462514E-8;
9,43561934973606E-9;
9,2253080367062E-9;
1,20831535285377E-8;
1,72174044417158E-8;
2,05656305992701E-8;
1,7622242383482E-8;
7,08708658937584E-9;
-7,58401044964179E-9;
-2,0080076627117E-8;
-2,52649664752028E-8;
-2,23573129844171E-8;
-1,49667282210273E-8;
-8,13395490182202E-9;
-4,76278540144065E-9;
-4,14690708049541E-9;
-3,45126089682493E-9;
-6,09086704126629E-10;
3,87455340324476E-9;
7,63388457438018E-9;
8,85836925905088E-9;
8,13330710412938E-9;
7,99952469586075E-9;
1,05375968072991E-8;
1,5062355055285E-8;
1,80454438546047E-8;
1,5567328703068E-8;
6,48100359991603E-9;
-6,23687982331556E-9;
-1,71246939649572E-8;
-2,17198449377288E-8;
-1,93216166744812E-8;
-1,30293484234137E-8;
-7,18688110588551E-9;
-4,30793431466747E-9;
-3,79332226914486E-9;
-3,20125515268288E-9;
-7,50250562902126E-10;
3,12835898086513E-9;
6,39943046563502E-9;
7,49940677159384E-9;
6,92466724267783E-9;
6,85746467386679E-9;
9,08969312474108E-9;
1,30387025594352E-8;
1,56750132062338E-8;
1,36245693407889E-8;
5,88279150390224E-9;
-5,01791272395806E-9;
-1,44017773381376E-8;
-1,84369651023588E-8;
-1,65005140000732E-8;
-1,12179320012839E-8;
-6,28988954628025E-9;
-3,86478924869135E-9;
-3,44204784522622E-9;
-2,94576840713644E-9;
-8,57854833503656E-10;
2,45736792049907E-9;
5,27284274277389E-9;
6,25253991065931E-9;
5,81147857337464E-9;
5,80195277533085E-9;
7,7461860770819E-9;
1,11572818003755E-8;
1,34657384092029E-8;
1,18008485167511E-8;
5,29616035930964E-9;
-3,92324141838397E-9;
-1,1913303260639E-8;
-1,54235979760447E-8;
-1,39004485536989E-8;
-9,53854663798091E-9;
-5,44773993287109E-9;
-3,43900368277974E-9;
-3,09986136419535E-9;
-2,69075484533108E-9;
-9,36784869040057E-10;
1,86013552823571E-9;
4,25289118953555E-9;
5,11757516925352E-9;
4,79552413562239E-9;
4,83398989372063E-9;
6,50894540599694E-9;
9,41868410286382E-9;
1,14184062704547E-8;
1,01034608492237E-8;
4,73034780827192E-9;
-2,9502974348773E-9;
-9,65740967511382E-9;
-1,26751393535669E-8;
-1,15212093950764E-8;
-7,99451440029807E-9;
-4,6633459886809E-9;
-3,03097338611425E-9;
-2,76613580948695E-9;
-2,43700767876861E-9;
-9,8890650846973E-10;
1,33372884472994E-9;
3,33730820030317E-9;
4,09258228315538E-9;
3,87470625038669E-9;
3,95206239280115E-9;
5,37857821318403E-9;
7,82791385123391E-9;
9,54087864002531E-9;
8,53740706302459E-9;
4,18665086279608E-9;
-2,09451871446703E-9;
-7,6292907578769E-9;
-1,01909113023732E-8;
-9,36268597842261E-9;
-6,58575465566574E-9;
-3,93826019344386E-9;
-2,64561750300796E-9;
-2,4469369696654E-9;
-2,18925501535568E-9;
-1,01770481532004E-9;
8,75119653850468E-10;
2,52359750670811E-9;
3,17560778630846E-9;
3,04842978055216E-9;
3,15779534628219E-9;
4,35373794363831E-9;
6,38190792697597E-9;
7,83040067200363E-9;
7,10068334915804E-9;
3,67090535195386E-9;
-1,34596132490824E-9;
-5,82092958086853E-9;
-7,96436380937883E-9;
-7,41956439617234E-9;
-5,31012131252173E-9;
-3,27436274629951E-9;
-2,28449816758356E-9;
-2,1437375210826E-9;
-1,9493496727039E-9;
-1,02683283816247E-9;
4,76833704272965E-10;
1,8056032384731E-9;
2,36236075604588E-9;
2,31054434583458E-9;
2,44573769641827E-9;
3,43291315294082E-9;
5,07876272567617E-9;
6,28469739404105E-9;
5,79446169624903E-9;
3,18427534281436E-9;
-7,01717290898377E-10;
-4,22366390817191E-9;
-5,98515670525944E-9;
-5,68542290277178E-9;
-4,16522634130895E-9;
-2,669429586199E-9;
-1,94774336673712E-9;
-1,85985431011147E-9;
-1,71987357878136E-9;
-1,01798501670675E-9;
1,36910540290744E-10;
1,17788544777799E-9;
1,64698132625889E-9;
1,66101825688785E-9;
1,81572540206917E-9;
2,61205001707094E-9;
3,91339560130162E-9;
4,8976309390488E-9;
4,61608903714691E-9;
2,7307580075887E-9;
-1,53928473183798E-10;
-2,82643079146421E-9;
-4,24165828366107E-9;
-4,15091860250488E-9;
-3,14515830117787E-9;
-2,12454366409475E-9;
-1,6369330930732E-9;
-1,59147745199501E-9;
-1,50195079805597E-9;
-9,96456665733584E-10;
-1,48348606758915E-10;
6,35008273391727E-10;
1,02443067247195E-9;
1,09313780154021E-9;
1,26029532244216E-9;
1,88614973097813E-9;
2,88043265736261E-9;
3,66605805991041E-9;
3,56177413471002E-9;
2,30939429711478E-9;
3,0650261787495E-10;
-1,61678701356418E-9;
-2,72061831801382E-9;
-2,80604298408424E-9;
-2,24629054658925E-9;
-1,63585924781193E-9;
-1,3518702646332E-9;
-1,34481869876662E-9;
-1,29702952081974E-9;
-9,62838910802738E-10;
-3,83911186066216E-10;
1,73788048687812E-10;
4,88300453855527E-10;
6,01141713190656E-10;
7,77185817687605E-10;
1,25093685513385E-9;
1,97338964160892E-9;
2,57934149188314E-9;
2,62679550607644E-9;
1,92258950707218E-9;
6,86060509789376E-10;
-5,79457751038579E-10;
-1,40860994052137E-9;
-1,64064659822296E-9;
-1,45980944340157E-9;
-1,20257306511659E-9;
-1,09281970313588E-9;
-1,11655249192326E-9;
-1,10482327674006E-9;
-9,18944528100898E-10;
-5,7467844251712E-10;
-2,14989342093088E-10;
3,3984441974274E-11;
1,81396871320256E-10;
3,60238168073806E-10;
7,00094219736776E-10;
1,18526547695786E-9;
1,63245127003589E-9;
1,80424007564792E-9;
1,56919569814793E-9;
9,93527754583776E-10;
2,94678175712926E-10;
-2,90388568483892E-10;
-6,38913663736379E-10;
-7,80310498776614E-10;
-8,22177783704033E-10;
-8,58425895145143E-10;
-9,08653035998639E-10;
-9,27922247496072E-10;
-8,6907523669619E-10;
-7,25476461404783E-10;
-5,3621673596159E-10;
-3,48148146988631E-10;
-1,73702472176875E-10;
7,63200588427762E-12;
2,29584683278162E-10;
5,07552122908707E-10;
8,14054765561823E-10;
1,0879552570706E-9;
1,25005162427861E-9;
1,23395203739954E-9;
1,0216077172692E-9;
6,50654087458696E-10;
2,08475971971076E-10;
-1,97582846819867E-10;
-4,89821718357468E-10;
-6,49519812691887E-10;
-7,19692188476946E-10;
-7,65117496505584E-10;
-8,13200384672865E-10;
-8,40249559649081E-10;
-7,97361168098214E-10;
-6,60541268386895E-10;
-4,66963646626121E-10;
-2,89065619430657E-10;
-1,69265700181718E-10;
-6,85831496240323E-11;
1,16932269681233E-10;
4,71137748792315E-10;
9,61352542150239E-10;
1,41590923526397E-9;
1,61486470020355E-9;
1,42813377626288E-9;
9,14051775627971E-10;
2,92342587149313E-10;
-2,03921029827225E-10;
-4,64686910191037E-10;
-5,5073984750337E-10;
-6,16483590126403E-10;
-7,53578241649944E-10;
-9,22511420391067E-10;
-1,00381631553018E-9;
-9,13494288521595E-10;
-7,05157555781197E-10;
-5,32318819117666E-10;
-5,00352277150098E-10;
-5,49872021816447E-10;
-4,69308089771276E-10;
-5,25869788436502E-11;
7,06280527806463E-10;
1,54812236255313E-9;
2,08681447311554E-9;
2,05713941111531E-9;
1,49302153558233E-9;
6,9938195610814E-10;
3,96835858582313E-11;
-3,00248595291833E-10;
-4,0070589164117E-10;
-4,82064991917392E-10;
-6,910994836155E-10;
-9,78891732428721E-10;
-1,16124233228594E-9;
-1,11098537868704E-9;
-8,95874314752061E-10;
-7,2946565617109E-10;
-7,71109675195538E-10;
-9,46314179210521E-10;
-9,55146973075675E-10;
-4,92429116555387E-10;
4,79372871322646E-10;
1,63341271595426E-9;
2,45066213287536E-9;
2,55360895091358E-9;
1,95502902445648E-9;
1,02956811092975E-9;
2,43420382174709E-10;
-1,58112736151024E-10;
-2,68135438381883E-10;
-3,61633239843114E-10;
-6,27782626828432E-10;
-1,00950559576351E-9;
-1,27555149083909E-9;
-1,25987443662876E-9;
-1,04042019080615E-9;
-8,82288857783257E-10;
-9,86023567571929E-10;
-1,26446462479049E-9;
-1,3487255232246E-9;
-8,54442355072335E-10;
2,81449519066035E-10;
1,67898008893486E-9;
2,71818815772694E-9;
2,93260531375207E-9;
2,31427889323117E-9;
1,2926624865577E-9;
4,10615186960144E-10;
-3,7782422599381E-11;
-1,51599903833388E-10;
-2,54759821364584E-10;
-5,6671009387744E-10;
-1,02011440672254E-9;
-1,35177982207188E-9;
-1,36634805408702E-9;
-1,14813067257435E-9;
-9,99242593470692E-10;
-1,1524055629921E-9;
-1,51348133153996E-9;
-1,65984399005729E-9;
-1,14667072814806E-9;
1,09930309268543E-10;
1,69203238927811E-9;
2,90197401435194E-9;
3,20662243775863E-9;
2,58155061615295E-9;
1,49386397781152E-9;
5,46286029763386E-10;
6,62500085114278E-11;
-5,22481554596244E-11;
-1,6045787824214E-10;
-5,04133686882118E-10;
-1,01377411910659E-9;
-1,395964571189E-9;
-1,43481214107424E-9;
-1,22077139628546E-9;
-1,08160370911826E-9;
-1,27493719194004E-9;
-1,70038957663475E-9;
-1,89667461111251E-9;
-1,37601978528209E-9;
-3,61926708084236E-11;
1,67906733588603E-9;
3,01425366136724E-9;
3,38922547806121E-9;
2,76848506974687E-9;
1,64114178221975E-9;
6,5133670353184E-10;
1,53235303515183E-10;
3,42329729818248E-11;
-7,82229428179939E-11;
-4,44690909896371E-10;
-9,92323996134275E-10;
-1,41124728220242E-9;
-1,47057513048421E-9;
-1,26294537155779E-9;
-1,13538980463731E-9;
-1,35935136405836E-9;
-1,83207865867705E-9;
-2,06891490296678E-9;
-1,54884587835085E-9;
-1,58742704195828E-10;
1,64090731651602E-9;
3,06254713160825E-9;
3,49337301207995E-9;
2,8851903765787E-9;
1,74171566480431E-9;
7,31647405956143E-10;
2,23512070880907E-10;
1,05721988288862E-10;
-6,550126553726E-12;
-3,86649881792456E-10;
-9,59912824786711E-10;
-1,40409511166729E-9;
-1,47934060829911E-9;
-1,28037958535613E-9;
-1,16354061519939E-9;
-1,41092248773111E-9;
-1,91723509262669E-9;
-2,18340526264348E-9;
-1,67258837080471E-9;
-2,60300624329828E-10;
1,58474920856761E-9;
3,05802976620969E-9;
3,52906041326088E-9;
2,93923425657713E-9;
1,80063045989814E-9;
7,89267625648772E-10;
2,80403500183503E-10;
1,65749972272755E-10;
5,35475696490678E-11;
-3,33290083794336E-10;
-9,19229969859057E-10;
-1,37700381305737E-9;
-1,4639455317968E-9;
-1,27539128009435E-9;
-1,16998292533419E-9;
-1,43418877585894E-9;
-1,96131870337289E-9;
-2,24795457417636E-9;
-1,75236442558259E-9;
-3,43538870008366E-10;
1,51304363432674E-9;
3,00894852626707E-9;
3,50689232318709E-9;
2,94362808145739E-9;
1,82539589139877E-9;
8,26122584839195E-10;
3,23896749855471E-10;
2,12613611449972E-10;
1,02768961021079E-10;
-2,8231664133642E-10;
-8,68678472116099E-10;
-1,33315336150461E-9;
-1,43145584936156E-9;
-1,253238890521E-9;
-1,15847950723726E-9;
-1,43236244884852E-9;
-1,96965968983483E-9;
-2,2714536747224E-9;
-1,79538817449769E-9;
-4,09326996561611E-10;
1,43065204038166E-9;
2,92492653953069E-9;
3,43829137180869E-9;
2,90455481498597E-9;
1,81779934708036E-9;
8,44085710285459E-10;
3,57174378794913E-10;
2,51165007154506E-10;
1,44797619338244E-10;
-2,35083535799488E-10;
-8,14905848986661E-10;
-1,27663521891146E-9;
-1,3820453785169E-9;
-1,21704113250812E-9;
-1,1329653237114E-9;
-1,41027995572354E-9;
-1,94786219182939E-9;
-2,25792622799626E-9;
-1,80652223670572E-9;
-4,58768815579479E-10;
1,34120333780759E-9;
2,81118066246886E-9;
3,32997508886426E-9;
2,82943581157816E-9;
1,78778562188107E-9;
8,4976548869055E-10;
3,79673483468894E-10;
2,79514096881836E-10;
1,77439427902168E-10;
-1,91284884305299E-10;
-7,56285048956135E-10;
-1,21115719342987E-9;
-1,32008897699921E-9;
-1,16780310535477E-9;
-1,09467755210678E-9;
-1,3719377593079E-9;
-1,90396500312655E-9;
-2,21442072991875E-9;
-1,78821964943424E-9;
-4,94843256839039E-10;
1,24426628799644E-9;
2,67425679387929E-9;
3,19118827993243E-9;
2,7260450301175E-9;
1,73496348135339E-9;
8,4005288977499E-10;
3,9420622006264E-10;
2,99668283613427E-10;
2,02799704768289E-10;
-1,51710978443991E-10;
-6,97959146044331E-10;
-1,13736678172077E-9;
-1,24866749502621E-9;
-1,11031915464808E-9;
-1,04587022166171E-9;
-1,3198061291023E-9;
-1,83769976381419E-9;
-2,14576872518524E-9;
-1,75033963644646E-9;
-5,18205310837154E-10;
1,1463979644455E-9;
2,51976229429421E-9;
3,02775673198665E-9;
2,59981840850026E-9;
1,66596464281748E-9;
8,20897580459588E-10;
4,0085632742322E-10;
3,12894165310587E-10;
2,22220144932552E-10;
-1,14503287798416E-10;
-6,37121677807304E-10;
-1,06009204333759E-9;
-1,17064637032551E-9;
-1,04578638254451E-9;
-9,91662608392489E-10;
-1,25733992623564E-9;
-1,75615330862341E-9;
-2,0586413051293E-9;
-1,69326785902276E-9;
-5,31861075636354E-10;
1,04538604813495E-9;
2,35499956799346E-9;
2,84808041275925E-9;
2,45611945584251E-9;
1,58580433981407E-9;
7,94170815348217E-10;
4,00336715048955E-10;
3,20432882242116E-10;
2,35289970271784E-10;
-8,30213120991994E-11;
-5,75887356882876E-10;
-9,7858987246288E-10;
-1,08792906310702E-9;
-9,74993558716452E-10;
-9,29888266057201E-10;
-1,18553458795817E-9;
-1,66289132393934E-9;
-1,95744727352067E-9;
-1,62064340419128E-9;
-5,33476891068183E-10;
9,45764192830273E-10;
2,18161832320623E-9;
2,6567304027867E-9;
2,30008146814848E-9;
1,49468806131691E-9;
7,60309937940329E-10;
3,94319377733621E-10;
3,21824981621978E-10;
2,42922155174585E-10;
-5,54818920007282E-11;
-5,17322582959935E-10;
-8,97329396448523E-10;
-1,0042877317558E-9;
-9,02820739034976E-10;
-8,65510911628973E-10;
-1,10963534052363E-9;
-1,56150895728465E-9;
-1,84356035796867E-9;
-1,53737623866671E-9;
-5,30186764590703E-10;
8,48674325712131E-10;
2,00459037013514E-9;
2,45564807473244E-9;
2,13739351569932E-9;
1,39822175298062E-9;
7,21172040442595E-10;
3,85195858416365E-10;
3,18019287245471E-10;
2,46529170931499E-10;
-2,83819261229654E-11;
-4,59865794133055E-10;
-8,15194613561679E-10;
-9,18233250081541E-10;
-8,29966240932255E-10;
-7,99151858378695E-10;
-1,03013834500921E-9;
-1,45452832780326E-9;
-1,72113768687392E-9;
-1,4448490003251E-9;
-5,19426060338377E-10;
7,54023228027368E-10;
1,82768139073629E-9;
2,25368668993965E-9;
1,96879741944798E-9;
1,29583899065929E-9;
6,78150097765179E-10;
3,70649046363041E-10;
3,10710025110621E-10;
2,4615427908915E-10;
-7,49459163664427E-12;
-4,05025954984842E-10;
-7,33741653619018E-10;
-8,32466939083577E-10;
-7,55797935316901E-10;
-7,31245841783351E-10;
-9,47553345804542E-10;
-1,343242265463E-9;
-1,59475173761855E-9;
-1,34796121277666E-9;
-5,03658278162981E-10;
6,64039112566128E-10;
1,65234436323747E-9;
2,05123612916695E-9;
1,80047679167198E-9;
1,19136357170292E-9;
6,31083005896727E-10;
3,54244689266804E-10;
3,01117018955047E-10;
2,41817159571928E-10;
1,01222154406265E-11;
-3,53139992297374E-10;
-6,55043814517435E-10;
-7,48955337137326E-10;
-6,82982955052067E-10;
-6,64407333639917E-10;
-8,65666165209575E-10;
-1,22958097240381E-9;
-1,46466071019332E-9;
-1,24800104976914E-9;
-4,83358115286633E-10;
5,7909852479542E-10;
1,4812661708116E-9;
1,85154475764963E-9;
1,63239103870477E-9;
1,08756155201926E-9;
5,84544121869777E-10;
3,35085231550644E-10;
2,88398738197961E-10;
2,3584654661528E-10;
2,61873128897314E-11;
-3,03936972310772E-10;
-5,8027634937979E-10;
-6,68349045689038E-10;
-6,11517417170418E-10;
-5,97895430468166E-10;
-7,84188001796399E-10;
-1,11855418635418E-9;
-1,33568554826338E-9;
-1,14493026781814E-9;
-4,59615121579477E-10;
4,98468150828645E-10;
1,31651928355826E-9;
1,65745669061473E-9;
1,46830556933049E-9;
9,84352995736445E-10;
5,35944552214758E-10;
3,13630579454271E-10;
2,73055520608653E-10;
2,27454162451936E-10;
3,87468614873173E-11;
-2,5844813855617E-10;
-5,0800396811196E-10;
-5,90767972932857E-10;
-5,43533736897343E-10;
-5,34960262670614E-10;
-7,05191753297789E-10;
-1,00885440099326E-9;
-1,20904132375984E-9;
-1,04318077949069E-9;
-4,3292641387345E-10;
4,24567732328527E-10;
1,16027854764621E-9;
1,47130841104995E-9;
1,30980004118962E-9;
8,84088284515652E-10;
4,8772648780557E-10;
2,91918470983658E-10;
2,56713649493063E-10;
2,16492895133274E-10;
5,00433056365198E-11;
-2,15886713147008E-10;
-4,41993626793192E-10;
-5,18252437979676E-10;
-4,78322855663017E-10;
-4,72871778725781E-10;
-6,27893174468363E-10;
-9,02692408176988E-10;
-1,08566046306505E-9;
-9,43281882236933E-10;
-4,04530976571525E-10;
3,55617023952718E-10;
1,01100346672941E-9;
1,29346661859974E-9;
1,15855123691793E-9;
7,87954468918614E-10;
4,40918964419607E-10;
2,69870140221398E-10;
2,39745127275488E-10;
2,04896679163684E-10;
5,76365553066362E-11;
-1,77889996968225E-10;
-3,78706509020004E-10;
-4,47860143670225E-10;
-4,15286083329826E-10;
-4,1487861373965E-10;
-5,54755490337146E-10;
-8,00053417968221E-10;
-9,66542909591131E-10;
-8,45961760725224E-10;
-3,7567185545603E-10;
2,92156141788629E-10;
8,7228489846015E-10;
1,12672953947993E-9;
1,01490677036639E-9;
6,95190823634072E-10;
3,94623757074888E-10;
2,47026205263547E-10;
2,22533673694313E-10;
1,9254482136548E-10;
6,30043505872479E-11;
-1,42736311458509E-10;
-3,19909850259978E-10;
-3,84193946727908E-10;
-3,58745028305134E-10;
-3,60900278952804E-10;
-4,8588811771468E-10;
-7,02980193040395E-10;
-8,52610432936799E-10;
-7,52888592561991E-10;
-3,45429345837463E-10;
2,35807833888361E-10;
7,42799085140698E-10;
9,70793183506668E-10;
8,79711456503798E-10;
6,07275645417908E-10;
3,51264618803552E-10;
2,25599980599884E-10;
2,04890053216699E-10;
1,79252489306503E-10;
6,77702887428457E-11;
-1,11554238567065E-10;
-2,66105511980074E-10;
-3,2328568145411E-10;
-3,04714977433709E-10;
-3,08798442456863E-10;
-4,20029936004586E-10;
-6,12054712174299E-10;
-7,44036664207974E-10;
-6,6241968333338E-10;
-3,16097242313123E-10;
1,84833609087437E-10;
6,24570741749678E-10;
8,25875541804435E-10;
7,5422749953402E-10;
5,24653966013256E-10;
3,08667041765526E-10;
2,03227531083593E-10;
1,86500886996762E-10;
1,65798308777606E-10;
6,95625038463577E-11;
-8,43104268592094E-11;
-2,17777000136976E-10;
-2,69915701895462E-10;
-2,56468874687617E-10;
-2,63110944798474E-10;
-3,60118030344577E-10;
-5,25650179750473E-10;
-6,43305013099857E-10;
-5,78340169751287E-10;
-2,85943162711472E-10;
1,39145110003099E-10;
5,15925929554879E-10;
6,91773328173163E-10;
6,37054875607929E-10;
4,49317056897482E-10;
2,69321335906638E-10;
1,81134068511321E-10;
1,68701021202614E-10;
1,52525499112016E-10;
7,10600159329484E-11;
-6,04263973965412E-11;
-1,73550301310786E-10;
-2,18766629911138E-10;
-2,10705014682248E-10;
-2,19097537312563E-10;
-3,03368829563257E-10;
-4,46382217489709E-10;
-5,49785752738207E-10;
-4,99484526237899E-10;
-2,56544705696151E-10;
9,93932869846579E-11;
4,1691312483294E-10;
5,70251937116943E-10;
5,30877354651888E-10;
3,78490997726944E-10;
2,32505229610525E-10;
1,61069333485629E-10;
1,51111646810829E-10;
1,38373056957598E-10;
7,16681395969545E-11;
-3,83504414312874E-11;
-1,34968761178401E-10;
-1,74891878761753E-10;
-1,70213867260188E-10;
-1,79575006816893E-10;
-2,52333380180219E-10;
-3,73573774003978E-10;
-4,63091265858234E-10;
-4,26261606566533E-10;
-2,29388971846157E-10;
6,3485660809193E-11;
3,29201023164244E-10;
4,60992617346279E-10;
4,34372843458424E-10;
3,14244957124353E-10;
1,97805038016679E-10;
1,41990746138496E-10;
1,34705430474488E-10;
1,24115376483401E-10;
6,97898762454235E-11;
-1,9805860745121E-11;
-1,00193532597016E-10;
-1,35256989788083E-10;
-1,33499757147484E-10;
-1,43777298780777E-10;
-2,05388425425381E-10;
-3,07413073974629E-10;
-3,84218382519484E-10;
-3,58450822650957E-10;
-2,0249108280903E-10;
3,42146877163408E-11;
2,51066881788678E-10;
3,61588591035937E-10;
3,46157197682676E-10;
2,56128588956758E-10;
1,66246373527757E-10;
1,22467576359134E-10;
1,18667725297947E-10;
1,11182237613984E-10;
6,76494924585638E-11;
-3,87925383396535E-12;
-6,93001044235298E-11;
-1,00297390736726E-10;
-1,00770102999316E-10;
-1,10790828757527E-10;
-1,63860167772234E-10;
-2,47685861492195E-10;
-3,12503172779021E-10;
-2,9709731304893E-10;
-1,76660052799077E-10;
8,27250744984997E-12;
1,80258783802386E-10;
2,72581226444507E-10;
2,68134683666052E-10;
2,03996126387607E-10;
1,37468003315381E-10;
1,05556132328572E-10;
1,03538890854688E-10;
9,88748227454312E-11;
6,60970305301286E-11;
9,39709652029528E-12;
-4,28250933508194E-11;
-6,88720769187471E-11;
-7,35478595001353E-11;
-8,35653581923725E-11;
-1,26275577163185E-10;
-1,94446752951769E-10;
-2,47363190630917E-10;
-2,41056492109758E-10;
-1,53367365173642E-10;
-1,27010848558816E-11;
1,1980883956364E-10;
1,9603238607391E-10;
1,99316068755631E-10;
1,5572247777281E-10;
1,10955628611197E-10;
8,95574124589974E-11;
8,87835368150296E-11;
8,63787916034389E-11;
6,23113351811686E-11;
2,0290567767116E-11;
-2,01614427424854E-11;
-4,10884524260117E-11;
-4,66512385256019E-11;
-5,88419831497684E-11;
-9,26239525878173E-11;
-1,45898133521573E-10;
-1,90369751330421E-10;
-1,8950099724761E-10;
-1,30509246142288E-10;
-3,08293993590997E-11;
6,82354623264723E-11;
1,27926651528943E-10;
1,38002455652476E-10;
1,14840679709991E-10;
8,71241984834969E-11;
7,49253948650079E-11;
7,61790601181422E-11;
7,49784582235904E-11;
5,80034790364404E-11;
2,86376800522784E-11;
-2,35266638411778E-13;
-1,84224011638437E-11;
-2,47664576784024E-11;
-3,62894747555345E-11;
-6,43619158465604E-11;
-1,03471626934857E-10;
-1,39130749565828E-10;
-1,45081275744925E-10;
-1,09775128249989E-10;
-4,58626546123275E-11;
2,24436215499381E-11;
6,89973115928877E-11;
8,46873237000097E-11;
7,77644197224965E-11;
6,54772878650416E-11;
6,15183994493864E-11;
6,36862575188034E-11;
6,39400008859306E-11;
5,53785971669754E-11;
3,65678311043703E-11;
1,62559019202845E-11;
1,47743725375405E-12;
-7,62812810724609E-12;
-1,76316341775606E-11;
-3,74016696681859E-11;
-6,62105801166811E-11;
-9,35885001026603E-11;
-1,04655838002604E-10;
-9,12834915014126E-11;
-5,75878697362685E-11;
-1,56525872265336E-11;
1,90711574379311E-11;
3,8955763887143E-11;
4,61669649133985E-11;
4,73322775981031E-11;
4,94339234647318E-11;
5,32454346865965E-11;
5,48512534259919E-11;
5,10473403803573E-11;
4,12989633443349E-11;
2,90261741823969E-11;
1,82680923119567E-11;
9,10940790989165E-12;
-1,10880758198272E-12;
-1,54952409801947E-11;
-3,42904285296786E-11;
-5,41387221569437E-11;
-6,96934253180042E-11;
-7,4426286221239E-11;
-6,58522971180733E-11;
-4,63397415893522E-11;
-2,23044429829643E-11;
-9,42426348474742E-15;
1,86337918743292E-11;
3,10029827708777E-11;
3,79099556082974E-11;
4,25776564596776E-11;
4,47285207898636E-11;
4,58223703506237E-11;
4,51713669353884E-11;
4,01574394310635E-11;
3,1790960788711E-11;
2,11344629842235E-11;
1,14592127452568E-11;
3,00679254979272E-12;
-7,50900551230839E-12;
-2,10439967576822E-11;
-4,00425649568356E-11;
-5,92878843775066E-11;
-7,14769015620789E-11;
-7,29898120061839E-11;
-5,83352531375888E-11;
-3,23942518562322E-11;
-4,86159355309458E-12;
1,75665866785807E-11;
2,87945354536151E-11;
3,23680151301706E-11;
3,69293935031817E-11;
4,28666163548844E-11;
4,7170691480249E-11;
4,8131629836801E-11;
4,23350905250983E-11;
3,17766733957258E-11;
2,33688586227484E-11;
1,82678194397207E-11;
1,47305371862993E-11;
7,7493005164365E-12;
-1,29724021846644E-11;
-4,55642467451221E-11;
-7,57553917734673E-11;
-9,17607453873516E-11;
-8,61442395318717E-11;
-5,91493135320843E-11;
-2,33330315119595E-11;
4,54911236924313E-12;
2,0023190836463E-11;
2,60556472920188E-11;
2,9596088674635E-11;
3,87837535504814E-11;
4,88279035400021E-11;
5,38998496666596E-11;
5,06296196539493E-11;
3,99069182676579E-11;
3,21444090308023E-11;
3,13515897370786E-11;
3,39567926662571E-11;
3,05414984183656E-11;
9,00287460162626E-12;
-3,25140482474471E-11;
-7,90062859384933E-11;
-1,08048386349601E-10;
-1,08065156684102E-10;
-8,03375646881769E-11;
-3,96799209420923E-11;
-6,27057121832724E-12;
1,17459550368103E-11;
1,8254650601451E-11;
2,29401666924625E-11;
3,36065255888325E-11;
4,86856384465715E-11;
5,8479144459119E-11;
5,70087381793943E-11;
4,73970137695635E-11;
3,89561233098521E-11;
4,14906614305934E-11;
5,03583075626392E-11;
5,03047256139299E-11;
2,73291883811797E-11;
-2,17952898170561E-11;
-7,87970546045787E-11;
-1,19519276541128E-10;
-1,26312069448071E-10;
-9,68913573670966E-11;
-5,1893321340554E-11;
-1,38899746487047E-11;
6,41943290958739E-12;
1,13937215317039E-11;
1,6065936957428E-11;
3,03709317253882E-11;
4,84557201044303E-11;
6,1382420589238E-11;
6,21200534355486E-11;
5,13997585928961E-11;
4,41436546540659E-11;
4,95241548368706E-11;
6,19039939461713E-11;
6,5698515418223E-11;
4,24364233490233E-11;
-1,11490031143684E-11;
-7,78766947683885E-11;
-1,28250748616059E-10;
-1,38770957798908E-10;
-1,09735801910635E-10;
-6,27997980484472E-11;
-2,18680669193349E-11;
2,51636468458502E-13;
5,64737430469397E-12;
1,11684536807226E-11;
2,66328195546423E-11;
4,67215590725488E-11;
6,31638681163877E-11;
6,50755647156341E-11;
5,47259169619524E-11;
4,86309297802916E-11;
5,51343471964832E-11;
7,07391633766192E-11;
7,70051167445723E-11;
5,30861306599741E-11;
-3,87007473632564E-12;
-7,68659373701391E-11;
-1,32747591381013E-10;
-1,46566891412325E-10;
-1,19302330208059E-10;
-6,9794175508154E-11;
-2,61082115734606E-11;
-4,60115651021023E-12;
1,54905232077398E-12;
6,69610577836577E-12;
2,20209737927156E-11;
4,64739760305505E-11;
6,45643597273484E-11;
6,57446033423656E-11;
5,63261241109897E-11;
5,09265969387326E-11;
5,99951713919529E-11;
7,8942500612241E-11;
8,67696456021909E-11;
6,27759328339321E-11;
3,39779757258878E-12;
-7,3431091465111E-11;
-1,34619297982565E-10;
-1,52211843163403E-10;
-1,24335982224591E-10;
-7,4453510315856E-11;
-3,06486489984297E-11;
-7,97874530253053E-12;
-2,53390107552375E-12;
2,87729314609155E-12;
1,96489316498563E-11;
4,3550628366865E-11;
6,24215988684783E-11;
6,60832157670962E-11;
5,73550796059327E-11;
5,17422865372577E-11;
6,16353800218377E-11;
8,32827813977221E-11;
9,40075668018559E-11;
6,97853832201698E-11;
8,43963500122843E-12;
-7,01049475861404E-11;
-1,33389068350888E-10;
-1,53375274200248E-10;
-1,27563711876148E-10;
-7,81342137038167E-11;
-3,37826175384537E-11;
-1,14890508501321E-11;
-6,73373183162875E-12;
-1,288346515098E-12;
1,64789816560233E-11;
4,18138948202832E-11;
6,13404302440922E-11;
6,54983909464039E-11;
5,68798700870784E-11;
5,22928812201342E-11;
6,42173062807323E-11;
8,56816970407983E-11;
9,7546950105606E-11;
7,59291776324472E-11;
1,40969122910101E-11;
-6,65999856116446E-11;
-1,31939862365626E-10;
-1,53402642338239E-10;
-1,28066587312744E-10;
-7,93980275516536E-11;
-3,64881377194242E-11;
-1,41931904586215E-11;
-8,57944307379793E-12;
-3,51873303010208E-12;
1,34253172161456E-11;
3,88835371456888E-11;
5,92241597774242E-11;
6,40800219828719E-11;
5,63840491364276E-11;
5,17909543669626E-11;
6,36921722405623E-11;
8,65535278816016E-11;
9,90025208335652E-11;
7,82056239127634E-11;
1,810940497663E-11;
-6,2107141727323E-11;
-1,28489546275453E-10;
-1,50845692757828E-10;
-1,26485811933195E-10;
-7,96621089678013E-11;
-3,76826529629687E-11;
-1,61814070549615E-11;
-1,1056730165616E-11;
-5,30851672927483E-12;
1,11245516112504E-11;
3,58573151953259E-11;
5,65989748378603E-11;
6,16347596319803E-11;
5,48056681546693E-11;
5,10063746205625E-11;
6,28366342983848E-11;
8,65856213780109E-11;
1,00018758044633E-10;
8,01508696511047E-11;
2,08518104047682E-11;
-5,78884297455066E-11;
-1,22172295484305E-10;
-1,4613260187615E-10;
-1,24720627312972E-10;
-7,91555552399436E-11;
-3,85161484528678E-11;
-1,76354655720566E-11;
-1,31678349454745E-11;
-8,15858712883437E-12;
8,74735059912157E-12;
3,29082374391955E-11;
5,35087733097519E-11;
5,97096374673119E-11;
5,26054402411714E-11;
4,96569834755705E-11;
6,21378868652302E-11;
8,4465144081567E-11;
9,86166903422235E-11;
8,03616571425345E-11;
2,29260757707968E-11;
-5,27616267716281E-11;
-1,16128438650853E-10;
-1,40703336398465E-10;
-1,19826694508706E-10;
-7,68778500540302E-11;
-3,88282017058918E-11;
-1,79680794192845E-11;
-1,37197745639719E-11;
-9,35285856979272E-12;
6,62747846862328E-12;
3,0152040098001E-11;
5,08697700181073E-11;
5,55111666417785E-11;
4,86604543730967E-11;
4,72205751680491E-11;
5,91533070687291E-11;
8,21332798157662E-11;
9,65296253905845E-11;
7,87162107594231E-11;
2,4355655218421E-11;
-4,86865240710553E-11;
-1,09951062100313E-10;
-1,33798881710635E-10;
-1,14842859230203E-10;
-7,3839979448927E-11;
-3,78221008989817E-11;
-1,90494643996371E-11;
-1,44515538407917E-11;
-1,07643261117761E-11;
3,55699663817928E-12;
2,77214108420046E-11;
4,73721691642434E-11;
5,19176846312985E-11;
4,7164190707102E-11;
4,54745723829004E-11;
5,68030621623988E-11;
7,86105029329403E-11;
9,26362100524352E-11;
7,73138661805615E-11;
2,56141541308691E-11;
-4,46326427132594E-11;
-1,03219332581564E-10;
-1,25788910493722E-10;
-1,0877142448053E-10;
-7,13731317486555E-11;
-3,62090161413759E-11;
-1,83001798489014E-11;
-1,5534669974334E-11;
-1,14642447028034E-11;
2,89622252673569E-12;
2,47389634672011E-11;
4,31386520273987E-11;
4,82487581901347E-11;
4,32325132850116E-11;
4,17221427935815E-11;
5,40911346625595E-11;
7,60566534997907E-11;
8,90036471094389E-11;
7,34847530594511E-11;
2,60353630385192E-11;
-3,92749224269649E-11;
-9,5093925201161E-11;
-1,16229985650106E-10;
-1,01195411192496E-10;
-6,69367459850581E-11;
-3,43829941722364E-11;
-1,84289252516648E-11;
-1,58926466157132E-11;
-1,20622192965628E-11;
1,43552475601295E-12;
2,22676723092084E-11;
3,98836730897133E-11;
4,49701696685808E-11;
4,00398383217862E-11;
3,85746234598132E-11;
5,07724845659514E-11;
7,13178497701242E-11;
8,39886548364768E-11;
7,08003848393567E-11;
2,64552459306735E-11;
-3,46961168687929E-11;
-8,67603509819717E-11;
-1,0821963216882E-10;
-9,55052998533688E-11;
-6,28973159183451E-11;
-3,32665884502339E-11;
-1,87022516360995E-11;
-1,5866864895302E-11;
-1,30932119543315E-11;
-2,37243811324122E-13;
1,96956930384491E-11;
3,63573926830076E-11;
4,11876495263817E-11;
3,68750363355067E-11;
3,58844722025116E-11;
4,70723066910492E-11;
6,67251414581551E-11;
7,91330541360105E-11;
6,76213841511659E-11;
2,61187054036143E-11;
-3,0966368841181E-11;
-7,92002262613619E-11;
-9,93155829378611E-11;
-8,72573889656692E-11;
-5,84992263383738E-11;
-3,1248088019991E-11;
-1,74787744647566E-11;
-1,50360055693714E-11;
-1,22884669767015E-11;
-2,24817006371316E-12;
1,6217662992787E-11;
3,18286828460746E-11;
3,60693247882952E-11;
3,36339827543722E-11;
3,30663182447638E-11;
4,36237576236419E-11;
6,18784031457086E-11;
7,30235663035356E-11;
6,34748071794226E-11;
2,61820333030374E-11;
-2,67818441407613E-11;
-7,14872595886814E-11;
-9,07285573929881E-11;
-8,00395074650732E-11;
-5,30257717754607E-11;
-2,91879080409374E-11;
-1,72946035539888E-11;
-1,50228317048898E-11;
-1,24655085418322E-11;
-1,55370394367706E-12;
1,47988388899505E-11;
2,81905372878061E-11;
3,27270808766739E-11;
3,02819234459743E-11;
3,05980622288053E-11;
3,93614835084605E-11;
5,60762427082942E-11;
6,88368885781078E-11;
5,89323871763383E-11;
2,45970535280965E-11;
-2,27574667182913E-11;
-6,4452345996358E-11;
-8,17855081757033E-11;
-7,2438589874964E-11;
-4,85284791359727E-11;
-2,73433645809116E-11;
-1,69883090981838E-11;
-1,45323056936791E-11;
-1,24898114285438E-11;
-2,38542878450125E-12;
1,33251497237827E-11;
2,53574077798282E-11;
2,95304211560119E-11;
2,75920669622623E-11;
2,74371433187563E-11;
3,60684328443686E-11;
5,13501636512658E-11;
6,12750336541942E-11;
5,32714120447544E-11;
2,40586136519243E-11;
-1,91901279530129E-11;
-5,68535507377107E-11;
-7,30527887006345E-11;
-6,61046126848315E-11;
-4,45308102853018E-11;
-2,51934267557057E-11;
-1,55572254552084E-11;
-1,32215323307894E-11;
-1,21311353855249E-11;
-3,74756172194361E-12;
1,02198274101203E-11;
2,18424129086415E-11;
2,62314589493129E-11;
2,42177917861318E-11;
2,39557546200212E-11;
3,23062956730645E-11;
4,72383301025787E-11;
5,7435334907615E-11;
4,99156553943296E-11;
2,2454975713366E-11;
-1,6264842076526E-11;
-4,99665144854434E-11;
-6,40552284642826E-11;
-5,8239521660369E-11;
-4,09437770954349E-11;
-2,32816974987368E-11;
-1,44148584850455E-11;
-1,31167547985373E-11;
-1,15053041177806E-11;
-3,86377545264359E-12;
8,73107557640125E-12;
1,90740675965625E-11;
2,23679656273209E-11;
2,14677474174939E-11;
2,2508357171714E-11;
2,94110946446942E-11;
4,1821321846037E-11;
5,08797936543899E-11;
4,44935483867788E-11;
2,11208231933751E-11;
-1,30635382292002E-11;
-4,37179738840143E-11;
-5,70979749038345E-11;
-5,31131121305172E-11;
-3,67198255203521E-11;
-2,09844917193814E-11;
-1,39064176027342E-11;
-1,15713303882457E-11;
-1,07501472192618E-11;
-3,71034636829917E-12;
7,47531466062579E-12;
1,53020580907949E-11;
2,02426637123568E-11;
2,00858795870867E-11;
1,97275101049601E-11;
2,64641120283146E-11;
3,71779773231072E-11;
4,4987362182278E-11;
4,05778862750908E-11;
1,97414224711218E-11;
-1,05848097183155E-11;
-3,75437402659078E-11;
-4,9425541854413E-11;
-4,50420821463657E-11;
-3,1906334971546E-11;
-1,83923838323186E-11;
-1,19537680145625E-11;
-1,17176533333245E-11;
-1,01156097128378E-11;
-4,3495956980299E-12;
5,19022054396853E-12;
1,42241374824016E-11;
1,75386414203369E-11;
1,61344844678017E-11;
1,59594244538469E-11;
2,2732483516002E-11;
3,30692015013355E-11;
4,02091495639423E-11;
3,69179491743714E-11;
1,79835654409994E-11;
-8,56413454526611E-12;
-3,19445085414713E-11;
-4,37427503168015E-11;
-3,95990294900879E-11;
-2,76600586166789E-11;
-1,67794899818823E-11;
-1,06713493774808E-11;
-1,00573143715691E-11;
-9,25285026665184E-12;
-3,59580102557903E-12;
4,66991562475762E-12;
1,14720492829014E-11;
1,42807961663278E-11;
1,34319391049665E-11;
1,37163647850834E-11;
1,95920532286377E-11;
2,87698526070216E-11;
3,51327906714624E-11;
3,25464124252215E-11;
1,71231111154508E-11;
-5,9732198261689E-12;
-2,60870961017017E-11;
-3,62339736071822E-11;
-3,3719872084292E-11;
-2,33877382995737E-11;
-1,45874906482628E-11;
-1,02016362028677E-11;
-9,20760743487045E-12;
-8,76834807574833E-12;
-4,53840143321803E-12;
2,5728127749789E-12;
9,0981270852401E-12;
1,17932698242204E-11;
1,09704802015714E-11;
1,2303317243174E-11;
1,7955544563202E-11;
2,55701449652711E-11;
3,09058805169984E-11;
2,82745702453314E-11;
1,4895851009788E-11;
-4,87561206357202E-12;
-2,1996157555148E-11;
-3,05616484445582E-11;
-2,866703064494E-11;
-2,06525643241502E-11;
-1,32250351830546E-11;
-8,41113244793517E-12;
-7,96748132358892E-12;
-7,9906044258218E-12;
-3,91804423777234E-12;
1,80678761917316E-12;
7,62048863679573E-12;
1,04622984404183E-11;
9,34943526405175E-12;
9,95217997713735E-12;
1,44098328069725E-11;
2,09345296894858E-11;
2,64223722739586E-11;
2,46771874702887E-11;
1,44212048164545E-11;
-1,61345728742849E-12;
-1,78096384080638E-11;
-2,55604638217522E-11;
-2,3675447751964E-11;
-1,7317152321827E-11;
-1,13581796359177E-11;
-7,74746077396847E-12;
-7,41378007461349E-12;
-7,64688093492569E-12;
-4,07410823546224E-12;
1,35920574448116E-12;
5,806826124094E-12;
8,0653860527577E-12;
8,07185577096729E-12;
8,86640975034951E-12;
1,25938420344662E-11;
1,82893846054457E-11;
2,28191447110889E-11;
2,15816816843696E-11;
1,28125369420704E-11;
-8,95604855415757E-13;
-1,37612358656198E-11;
-2,03141667907251E-11;
-1,97895634608419E-11;
-1,41759522361565E-11;
-8,95516910925719E-12;
-7,20174055814612E-12;
-6,50674395815687E-12;
-6,52846607319049E-12;
-4,37889171380984E-12;
8,30808574266738E-13;
4,23180877575557E-12;
5,82455774612488E-12;
6,52495479898901E-12;
6,580265380709E-12;
9,32389430583918E-12;
1,49682621697673E-11;
1,89747123427167E-11;
1,7589425919718E-11;
1,08740032214911E-11;
2,63798328328215E-13;
-1,04700346717104E-11;
-1,5530462882428E-11;
-1,52248725590233E-11;
-1,20484822618002E-11;
-7,81348827467823E-12;
-6,15909293322147E-12;
-6,30538073317612E-12;
-6,03052865328816E-12;
-3,73332634677852E-12;
5,9186805508695E-13;
3,34423380265792E-12;
4,54581937528229E-12;
4,94356373432104E-12;
4,92306596533058E-12;
7,61599047923712E-12;
1,27241221717379E-11;
1,60241113529139E-11;
1,4889690001251E-11;
9,78114743866901E-12;
1,44255736490236E-12;
-7,02945110816785E-12;
-1,18837609069945E-11;
-1,24942008555349E-11;
-9,62446393523288E-12;
-5,97190585431269E-12;
-4,16665117217837E-12;
-4,52702020037402E-12;
-4,41892159136276E-12;
-3,03606719475487E-12;
-1,34212581379841E-12;
1,23363376761068E-12;
2,4596210589888E-12;
2,0977036788874E-12;
3,66888820239742E-12;
6,76054344815206E-12;
9,11507247534791E-12;
1,17524103736769E-11;
1,27401653731044E-11;
8,68593278074905E-12;
2,10356145179649E-12;
-4,33872490132467E-12;
-8,66202399762191E-12;
-9,12441379362319E-12;
-7,44999448091878E-12;
-5,30441611417477E-12;
-3,68141372019504E-12;
-4,51231857610106E-12;
-5,18966954952246E-12;
-3,29840344068262E-12;
-1,62389078154737E-12;
4,51834674699002E-13;
1,81117926316159E-12;
1,5525432100154E-12;
2,99379060194291E-12;
5,37407853557169E-12;
7,97205360203557E-12;
9,75066075912155E-12;
1,02009991293433E-11;
8,57661215187331E-12;
2,54586282787678E-12;
-3,04055566259894E-12;
-5,58497343198203E-12;
-6,75238943073841E-12;
-5,31857658608959E-12;
-4,14417247010793E-12;
-3,68212929331026E-12;
-2,70938767253879E-12;
-3,89248098085994E-12;
-3,55535494445168E-12;
-7,96942302202726E-13;
-1,54051927146171E-14;
6,08344886398747E-13;
1,59715980527302E-12;
1,77262863670926E-12;
3,38362620976402E-12;
5,9397550411402E-12;
7,40990993250428E-12;
7,74946220012715E-12;
6,00629827434578E-12;
3,28365023647824E-12;
4,29592574734827E-13;
-3,12843469862284E-12;
-4,35262510547997E-12;
-3,23869138765779E-12;
-3,01682102119861E-12;
-3,23928882729597E-12;
-2,75841578732602E-12;
-2,90397087879695E-12;
-3,10714575447687E-12;
-2,03135469681512E-12;
-4,19752200026333E-13;
7,14167557924798E-13;
-1,69243153031829E-13;
2,83941904051429E-13;
3,32768574640656E-12;
4,76872736443856E-12;
5,76101446057853E-12;
6,62833076423768E-12;
6,07146853697066E-12;
4,13142646046901E-12;
1,20788809348365E-12;
-8,94350189719062E-13;
-2,46991525865953E-12;
-3,02140865053056E-12;
-2,15977396049478E-12;
-2,35302062307216E-12;
-2,96601830739703E-12;
-2,1378106391486E-12;
-2,10788626152822E-12;
-2,17245580620168E-12;
-4,59877859370383E-13;
-1,57723431053841E-13;
-5,49628929931863E-13;
-1,85071861227831E-14;
8,59135790459529E-13;
2,84913162944125E-12;
3,66440716533496E-12;
3,86277751606052E-12;
4,61931802584246E-12;
3,74222720473042E-12;
2,63040939122219E-12;
1,71296103729482E-12;
1,24101297817046E-13;
-1,05825672111956E-12;
-1,70859704020472E-12;
-1,8397140217118E-12;
-2,25543405399247E-12;
-2,71995252773427E-12;
-1,75681435649042E-12;
-1,5423289125181E-12;
-1,84490678531806E-12;
-7,02558856860726E-13;
-3,69520821471869E-13;
-3,45315144904909E-13;
9,43177648881164E-13;
1,97328227929047E-12;
2,37033538613737E-12;
3,09677020451338E-12;
3,66762395737885E-12;
3,90883902438215E-12;
4,11196235376856E-12;
3,14147854629728E-12;
1,850683822064E-12;
2,52102073108443E-13;
-9,39709233785862E-13;
-2,81282123875747E-13;
-9,70781387288282E-13;
-2,35388207859675E-12;
-2,16066867924192E-12;
-1,62698985370736E-12;
-1,41625120467607E-12;
-1,38957272452378E-12;
-1,48057372954536E-12;
-1,04061244806702E-12;
-2,75854979350661E-14;
3,84028578628876E-14;
6,78275288100959E-13;
1,68810774157633E-12;
2,58970231143177E-12;
4,42841410691196E-12;
4,82257826871574E-12;
4,11143976444312E-12;
2,81576055128067E-12;
1,05137543184254E-12;
3,00732086413236E-13;
-5,18010359051379E-13;
-1,1521710289535E-12;
-1,03637782096234E-12;
-1,49901333255654E-12;
-2,05160774939434E-12;
-1,93300593300077E-12;
-1,9939097885843E-12;
-1,91978032283247E-12;
-1,0306145195233E-12;
-4,89642398347393E-13;
-5,356350380565E-13;
-3,54742776536248E-13;
2,70919690275775E-13;
2,19141412115871E-12;
4,5126032303147E-12;
5,17578394832966E-12;
4,89791219256177E-12;
4,02913149343229E-12;
2,23612627620218E-12;
3,94130513312189E-13;
-9,21664589816032E-13;
-1,17772883066578E-12;
-1,03125177631216E-12;
-1,33587190283438E-12;
-1,71181820322816E-12;
-2,33204800237319E-12;
-2,67418882979837E-12;
-2,01780824929614E-12;
-1,41622447378023E-12;
-1,17690267529308E-12;
-1,15943826677705E-12;
-1,25384053477868E-12;
-5,72254892316638E-13;
1,26664437295321E-12;
4,00518166695583E-12;
5,54918393631156E-12;
5,67298172576404E-12;
4,97178482456172E-12;
2,72341147214183E-12;
7,4989288200423E-13;
-1,01745816006507E-13;
1,47977857436822E-13;
1,20861630603881E-13;
-1,06465634495317E-12;
-1,95770030325929E-12;
-2,46005712381941E-12;
-2,06383270839183E-12;
-1,84433600731315E-12;
-1,91331057806593E-12;
-1,99576883683781E-12;
-2,62524206053172E-12;
-1,81964340405506E-12;
-9,36863985302533E-13;
5,59294243655491E-13;
4,03518973242573E-12;
5,66063949851666E-12;
5,53129478748472E-12;
4,80534885868429E-12;
2,96072153855726E-12;
1,25443722243152E-12;
2,69848690446693E-13;
1,92846773792128E-13;
-1,12500540014785E-14;
-1,3122194652098E-12;
-2,23084199738325E-12;
-2,46146239610044E-12;
-2,79137561701538E-12;
-2,13200311579142E-12;
-1,42006776165409E-12;
-2,20103341819228E-12;
-2,56283260103628E-12;
-2,55467817766299E-12;
-1,57064307194052E-12;
1,25920012093217E-12;
3,32343966880313E-12;
5,62908652656503E-12;
7,23005117602711E-12;
5,07177383966065E-12;
3,08026341675372E-12;
1,99862862566085E-12;
5,61883256026734E-13;
8,24391662299586E-13;
2,48338943023326E-13;
-7,21335089273364E-13;
-9,28116868658037E-13;
-2,13758739898154E-12;
-2,3393490199797E-12;
-2,18932543875138E-12;
-2,20028164652583E-12;
-2,37913061263042E-12;
-3,49368266023912E-12;
-3,90021121508173E-12;
-2,43426205879028E-12;
1,17873473468084E-12;
4,21151456020377E-12;
6,13706378826246E-12;
7,12759576846313E-12;
5,85039583901592E-12;
3,7202337651973E-12;
1,40815714282776E-12;
4,0237073019619E-13;
-2,64771514891341E-13;
-9,25490306808767E-13;
-1,07873305845859E-13;
-1,29560474280754E-12;
-2,98808307828659E-12;
-2,33295602686873E-12;
-1,74938067926314E-12;
-1,83861387045474E-12;
-2,49189848950356E-12;
-3,32519365560137E-12;
-3,5269335026615E-12;
-2,73334100036245E-12;
-5,32377020390026E-13;
3,37803836329798E-12;
6,73968443558594E-12;
6,85450632797713E-12;
6,17966111975759E-12;
4,82920927517719E-12;
2,17102921341662E-12;
7,75367164517295E-13;
3,59621861598234E-14;
4,16539823951645E-13;
5,7591822914197E-13;
-1,59849443310201E-12;
-2,47992672763478E-12;
-2,16908207842918E-12;
-1,99690008779227E-12;
-1,46630985764554E-12;
-2,6223750552261E-12;
-3,84434158463019E-12;
-3,4935951081946E-12;
-2,1662585630961E-12;
3,17541593787349E-13;
3,03889709988979E-12;
5,62129104042754E-12;
7,16461793696923E-12;
6,56247493175518E-12;
3,42782038215274E-12;
8,19242983285935E-13;
9,21127489010653E-13;
5,16933941529499E-13;
-9,43618626822769E-14;
-5,89098591635367E-13;
-1,6450054966686E-12;
-1,69169460714543E-12;
-1,944789885509E-12;
-2,4179774262202E-12;
-2,0114671449511E-12;
-2,36677622894377E-12;
-4,22363860472578E-12;
-4,7728771898583E-12;
-2,8680356653918E-12;
-6,25303526558831E-13;
2,39048772977485E-12;
6,26256714903718E-12;
7,8181798250009E-12;
6,18040227670737E-12;
4,1299862774118E-12;
2,33950129398842E-12;
9,39352285973725E-13;
1,29752591685326E-12;
1,32774314748341E-12;
1,28227797945859E-13;
-8,73368465873001E-13;
-1,77340575528356E-12;
-2,70565731878143E-12;
-2,65384692320268E-12;
-1,7765138472584E-12;
-2,82999662598433E-12;
-3,93462003758835E-12;
-3,40114255790507E-12;
-3,16007966914063E-12;
-6,90396419342266E-13;
3,34711903051431E-12;
5,68962860352999E-12;
6,28785850077158E-12;
5,53963629053788E-12;
4,25102905387838E-12;
2,18827694808635E-12;
8,15082846474574E-13;
1,15052667225277E-12;
1,20932994866667E-12;
1,53313401351262E-13;
-1,56700627335983E-12;
-2,36541469714207E-12;
-2,23176803344059E-12;
-2,21542087967748E-12;
-2,21216321901564E-12;
-2,477245257797E-12;
-2,97850006507596E-12;
-3,86615375874974E-12;
-3,54739581184865E-12;
-5,66156213698267E-13;
3,29787324160095E-12;
5,48529221670692E-12;
5,92100219788492E-12;
5,99353867375092E-12;
4,05362039378738E-12;
2,4276773655324E-12;
2,16131535840451E-12;
6,67834877180081E-13;
9,20719843994377E-13;
2,61941285528668E-13;
-2,02132600551158E-12;
-2,29386216659555E-12;
-2,63881945204758E-12;
-1,89943082117412E-12;
-1,07636387898997E-12;
-2,51909837242279E-12;
-3,59464968603561E-12;
-3,41859156982892E-12;
-2,94494755404151E-12;
-1,39264326446628E-12;
2,59320421145104E-12;
5,92026972318283E-12;
5,84666639573847E-12;
4,43552717741355E-12;
3,04580564019626E-12;
2,21285699139716E-12;
1,36823501506192E-12;
3,5674610857997E-13;
6,52954359830006E-13;
2,27738977683548E-13;
-1,03756558491499E-12;
-9,60148490397736E-13;
-1,167235672234E-12;
-1,59221739928033E-12;
-1,87434717408769E-12;
-2,60968936929921E-12;
-3,07928163852774E-12;
-3,58130341161748E-12;
-2,91005986964679E-12;
-5,37367456385193E-13;
2,31973080883471E-12;
5,11720549056511E-12;
5,72173900817339E-12;
4,64674102341442E-12;
3,44118501334625E-12;
1,91403645871695E-12;
1,60232665798382E-12;
1,10825429902258E-12;
6,73010088918188E-13;
9,10082341741429E-13;
-1,03778396070216E-12;
-2,61861675330649E-12;
-2,31899887897745E-12;
-1,6904571887151E-12;
-1,20443687476131E-12;
-1,97772525608789E-12;
-3,0685904033911E-12;
-3,26868350003629E-12;
-2,39444743630892E-12;
-1,16325871834259E-12;
7,42568978780618E-13;
4,18905812282433E-12;
5,98520205304891E-12;
5,13621507094552E-12;
3,67219297690818E-12;
2,16238179222777E-12;
1,13842995137146E-12;
5,71330712337551E-13;
3,38102569792078E-13;
-1,09297292957089E-13;
-6,01260122526533E-13;
-1,21750954681473E-12;
-1,98800229697751E-12;
-1,32590970699696E-12;
-7,25867764787134E-13;
-1,21498028873818E-12;
-2,49079962250059E-12;
-3,85145525615893E-12;
-2,52066173986858E-12;
-4,78057720609361E-13;
1,70273925452668E-12;
4,88338953943011E-12;
5,69071199104202E-12;
4,81216519769629E-12;
3,28144604879436E-12;
1,87577909953051E-12;
1,54182736627739E-12;
1,14244526298855E-12;
9,8108567627324E-13;
1,42424261441907E-14;
-1,21760577741628E-12;
-1,20295522806415E-12;
-1,24347738725424E-12;
-1,28377309736982E-12;
-1,05149464369441E-12;
-1,3894907713115E-12;
-2,3572628241814E-12;
-3,41038434136129E-12;
-3,04186327535653E-12;
-1,38351937563187E-12;
1,26335932545079E-12;
4,32355620064791E-12;
4,79921476286755E-12;
3,58606303079699E-12;
2,59462507605785E-12;
1,79865228577643E-12;
1,58437978869215E-12;
1,47625308743267E-12;
1,21334559063157E-12;
8,16317552583565E-13;
-2,07419599468315E-13;
-1,19623966120999E-12;
-1,08440639974471E-12;
-7,15362605892004E-13;
-7,8097309308854E-13;
-1,47308034375003E-12;
-2,42962931510046E-12;
-2,76333076042888E-12;
-2,82152180324279E-12;
-1,93685400048656E-12;
9,6516757992222E-13;
3,53388140530967E-12;
4,52535396184433E-12;
4,42966926690208E-12;
2,99275188652592E-12;
1,7369325616313E-12;
9,92245561647055E-13;
1,17396371535028E-12;
7,73432841785497E-13;
-6,15917587245303E-13;
-5,40304067867284E-13;
-1,08648955847058E-12;
-1,69806254977118E-12;
-1,36827130033562E-12;
-9,34798020349502E-13;
-1,24484753400391E-12;
-2,28108008925366E-12;
-2,39244015866566E-12;
-2,80832925944119E-12;
-1,46217310484041E-12;
1,49413419346684E-12;
3,4391330132679E-12;
4,24468354440814E-12;
2,92347400588462E-12;
2,14530087979656E-12;
2,06554860075144E-12;
1,18696407785327E-12;
1,06693048093135E-12;
1,10708710791142E-12;
8,50070762957516E-13;
5,56477463158624E-13;
-4,78848821783656E-13;
-1,52285057955081E-12;
-6,85463206589732E-13;
-5,14010318175317E-13;
-1,81388842275696E-12;
-1,71096780033167E-12;
-2,54137722144658E-12;
-2,81864001716827E-12;
-8,67670532758839E-13;
7,81075694018601E-13;
2,42664569687578E-12;
2,8391024763416E-12;
2,85168635822285E-12;
2,66772924661059E-12;
8,53152676205566E-13;
2,87474309054538E-13;
8,09776084889806E-13;
3,57052313518833E-13;
4,53879582282416E-13;
5,98050934315506E-13;
-3,25376915633965E-13;
-7,26597966006797E-13;
-8,76177088394719E-13;
-8,32683460970145E-13;
-8,51252877003785E-13;
-1,9740080777486E-12;
-2,37905097851273E-12;
-1,77874001871972E-12;
-9,01781196632046E-13;
8,04585350570898E-13;
2,81634145724715E-12;
3,56414828801615E-12;
3,17775054860559E-12;
2,60185119172244E-12;
1,66844754543289E-12;
1,35876416574407E-12;
9,51249699541254E-13;
1,14266073891278E-13;
7,55751667740581E-14;
-5,21240665184512E-14;
4,45219454078671E-14;
-1,59926406962423E-13;
-8,17826813191355E-13;
-3,01746658910191E-13;
-6,5524645909123E-13;
-1,56542281400944E-12;
-1,83925030777679E-12;
-2,28692895780667E-12;
-4,67849048476056E-13;
1,73637292526906E-12;
2,28269475280878E-12;
2,67491444118268E-12;
2,07286252884908E-12;
1,48078935708789E-12;
9,85863233647181E-13;
6,13424293319358E-13;
1,01448533794421E-12;
6,61974049715562E-13;
4,36037270034799E-13;
3,55272078411725E-13;
-1,78080475544845E-13;
-3,59929170262844E-13;
-1,15151435741661E-12;
-1,19385748726718E-12;
-2,72438440448477E-13;
-1,52770508422091E-12;
-2,35699808012857E-12;
-1,00179251118772E-12;
-1,35230994133819E-13;
9,4003754939102E-13;
2,22531860782086E-12;
2,5337293171375E-12;
2,0841756055999E-12;
1,49602415284694E-12;
1,45596224590305E-12;
1,39004726133026E-12;
1,16864483336158E-12;
9,34808623119196E-13;
4,86586130578114E-13;
3,66742081188946E-13;
1,54424150673534E-13;
8,11410862996382E-15;
2,17499057657761E-13;
-8,35641968563651E-14;
-8,63170654188375E-13;
-2,25153607045963E-12;
-2,03737501903147E-12;
-9,48613920164608E-13;
-1,00364729387099E-12;
8,8207932454616E-13;
1,78526191598906E-12;
1,31522873951722E-12;
2,61826961494747E-12;
1,66163533193826E-12;
8,90095482843625E-13;
2,12127203315467E-12;
1,14188321214258E-12;
7,35688430690163E-13;
1,48925312077684E-12;
3,07419904485076E-13;
-3,70035456110585E-13;
5,24408663781974E-13;
-3,86693690134116E-13;
-1,56481008013108E-12;
-8,07945731008542E-13;
-8,72519225201205E-13;
-1,23656249065695E-12;
-8,75662360878006E-13;
-1,78373754356705E-13;
1,03078971930836E-12;
1,73990092794355E-12;
1,82591587166817E-12;
1,36172834119342E-12;
1,34696781442785E-12;
1,91932682045922E-12;
1,31708467598693E-12;
7,90233061708501E-13;
1,12158851073488E-12;
7,90722896042341E-13;
2,57445587463594E-13;
1,9948657950806E-13;
1,2459618743808E-13;
-5,78334417773517E-14;
2,53512955423685E-15;
9,9231974850589E-14;
-5,74119446722568E-13;
-9,57420118909562E-13;
-4,74066979675824E-13;
-4,71291463473412E-13;
4,18836213963771E-13;
1,41982445682306E-12;
1,02823986507052E-12;
1,48356043489765E-12;
1,59687958324401E-12;
1,01199697602963E-12;
1,34395400353117E-12;
1,2528860283329E-12;
8,86479171252659E-13;
2,10673115939288E-13;
-7,37495852884429E-14;
9,83393822307893E-13;
3,23201279801471E-13;
-3,68549976391266E-13;
3,84826691900193E-13;
-2,1429677629331E-13;
-1,00313899632587E-12;
-1,45214567265192E-12;
-8,66327344984457E-13;
3,52468216311513E-13;
1,5507081724073E-13;
7,49514938352824E-13;
1,67377048342013E-12;
1,50209439683081E-12;
1,87268397998964E-12;
1,10332391754029E-12;
2,11538202734087E-14;
6,96471961906253E-13;
4,54060186589818E-13;
6,29921259018917E-14;
2,28448255665866E-13;
-2,85476280594566E-13;
9,16737139021632E-14;
1,88182491715714E-13;
-4,03714160942074E-13;
-7,53743228662518E-14;
-3,41776841575479E-13;
-7,16657359300998E-13;
-7,71445819982544E-13;
-5,18076321165567E-13;
9,6178107153707E-13;
1,12689600694968E-12;
1,25562007984461E-12;
1,88342180310238E-12;
2,85664717583699E-13;
1,00332327106901E-13;
1,044958319141E-12;
3,75294877697846E-13;
7,15450025403437E-13;
1,24846866172481E-12;
7,1235911087403E-13;
2,81026697362455E-13;
2,59939670185336E-14;
-1,22713346039191E-13;
-4,87812766208948E-13;
-1,7707708895359E-13;
4,28963833804318E-14;
-8,29470984097882E-13;
-5,35500084667933E-13;
2,8648212588762E-13;
7,49982296429566E-13;
1,17148062336605E-12;
1,18244236260308E-12;
1,70265819621244E-12;
1,16042399172504E-12;
2,92988394111921E-13;
1,24322614981513E-12;
1,34573973807169E-12;
6,26199055131378E-14;
-2,60477691691662E-13;
3,03654227983106E-13;
-2,036688821625E-13;
-2,04477845833749E-13;
1,0935474158729E-12;
3,72587894908111E-13;
-6,70588375895042E-13;
-2,06952141557497E-13;
-2,20470188406433E-13;
-3,4555103546526E-13;
-5,33533310209675E-13;
-2,1664756481386E-13;
6,92832587711911E-13;
3,84402064079815E-13;
8,44175629993413E-13;
1,55534916778325E-12;
7,38423610654655E-13;
1,01396205770247E-12;
1,18370610562025E-12;
7,40935386906206E-13;
1,20960530262088E-12;
6,84381950248219E-13;
4,17632835432268E-13;
6,00682280904283E-13;
-2,84381137215974E-13;
3,90659342658608E-13;
7,83096892799123E-13;
2,08373649367413E-13;
2,48454310738857E-13;
-4,57432110842631E-13;
6,69829374091587E-14;
5,14160328012788E-13;
4,65013170410515E-13;
1,17719963697374E-12;
1,14381997747821E-12;
6,62641015129314E-13;
3,22802843388553E-13;
9,21002514057396E-13;
6,85711462183831E-13;
3,13291472021454E-13;
9,83467243738651E-13;
7,80910545691688E-13;
4,67837757310625E-13;
-4,08340687170912E-14;
-7,82530205148166E-14;
7,23159698713979E-13;
7,90923355880303E-13;
5,66038429664193E-13;
-4,66079947618402E-13;
-1,17462472823294E-12;
-2,67252641397505E-13;
-4,53468791185927E-14;
4,35385116391156E-13;
1,13765681477388E-12;
9,38437205892323E-13;
9,10678377573152E-13;
-7,46104577507278E-14;
2,37836963871776E-14;
1,24409973268365E-12;
8,06441648306691E-13;
7,15913048394705E-13;
4,19457826059072E-13;
1,30927925766145E-13;
5,09455603790441E-13;
3,5119084143806E-13;
5,93761122725571E-13;
-2,47484192648048E-13;
6,55449783051518E-14;
1,44612922743793E-12;
3,21288061931117E-13;
1,19110212313205E-13;
3,83968425107133E-13;
-1,60288951361725E-13;
1,52965630156737E-13;
3,08302356729765E-13;
5,26252827171385E-13;
7,70275352594562E-13;
9,87972915788582E-13;
8,73678512620787E-13;
7,24467132629997E-14;
2,22372018845652E-13;
-1,17029674654645E-13;
-3,17524870352409E-13;
5,80649485558218E-13;
7,0813836724463E-14;
2,69668765784384E-13;
1,69887432925889E-13;
-6,55288483874412E-13;
1,26175054272112E-13;
-9,03377092905472E-14;
-2,86925600003869E-13;
3,77307286405439E-13;
5,52322762938941E-13;
3,39465047512775E-13;
5,76905974095131E-13;
1,38029688318094E-12;
6,21216320935912E-13;
5,32530606385685E-15;
1,63091880279035E-13;
1,74866717199931E-15;
6,89813172818822E-13;
6,37809018424616E-13;
9,48663758711008E-14;
-2,99672158864452E-13;
-8,37228178724716E-13;
-1,05357334504103E-13;
1,17732901901881E-14;
-5,57553401706992E-14;
3,07768993543654E-13;
-1,38302219904744E-13;
1,07554703406165E-13;
4,26367024849968E-14;
3,70726007348794E-13;
1,10880526685099E-12;
6,60810539504016E-13;
6,61534274214948E-13;
3,38888174984662E-13;
-2,33760786875532E-13;
4,54455519443879E-13;
1,31181098049958E-12;
8,12028484780118E-13;
1,60300593544749E-13;
4,23421732455887E-13;
1,28506866572135E-13;
1,85121351128937E-13;
1,05730406560952E-12;
8,7902329388772E-13;
3,97102164942006E-14;
4,07365177082552E-14;
3,82547827432105E-13;
2,63547668642425E-13;
3,85787565913765E-13;
2,67697356556933E-13;
-2,89088967654287E-13;
1,82683306673102E-13;
5,49853809388399E-13;
1,47886698305467E-13;
2,48425063566495E-13;
3,33774922163278E-13;
2,49516726429509E-13;
4,93618395942743E-14;
4,45586200106113E-13;
1,05688829775177E-12;
7,69180944109531E-13;
1,10518688037877E-12;
8,48937183891802E-13;
-3,36649971300973E-13;
5,71015798292724E-14;
7,32570947463063E-13;
3,59126408530818E-13;
3,22020113875531E-13;
2,3733745705571E-13;
1,41972753877853E-13;
1,07515205462039E-12;
1,17893872079826E-12;
5,58319698039134E-13;
1,29389434823201E-13;
1,57071329965362E-13;
6,45811117736397E-13;
4,7507932567864E-13;
6,1886568168382E-13;
7,77824489044811E-13;
8,46718425757087E-13;
4,70012200357286E-13;
-1,04913759413896E-13;
2,86215399332651E-13;
5,43029448186864E-13;
1,07245355824034E-12;
7,34536902167336E-13;
1,45865355017377E-13;
4,73586409056805E-13;
1,0346442915977E-13;
7,36429672354409E-13;
9,85321121825617E-13;
-2,24235492014825E-13;
4,89917528441709E-13;
7,81690380606435E-13;
-6,60176018742507E-14;
6,71299741403624E-13;
1,05423642413087E-12;
4,78636460451294E-13;
-2,42073034712275E-13;
-6,90848202618173E-15;
1,18216110972647E-12;
8,84361492603901E-13;
1,83811891663684E-13;
3,98183198498342E-13;
8,90353270161221E-13;
8,34490188380518E-13;
3,84003118089573E-13;
8,5746681807127E-13;
7,87857021860399E-13;
3,56730487584095E-13;
3,79991868975323E-13;
-2,08137495872927E-13;
-1,45667003730521E-13;
1,81195646768138E-13;
2,73115417590712E-13;
6,1723061071636E-13;
4,0267248921831E-13;
7,25393951681123E-13;
1,33147925454831E-12;
7,13863352989972E-13;
-1,12559831091216E-13;
1,40072248429496E-13;
5,71076860842333E-13;
3,9529895738512E-13;
6,23434455618541E-13;
8,36839462994832E-13;
5,71954854400477E-13;
1,14229992732954E-13;
2,70889178644973E-13;
3,06688991149982E-13;
-6,35159104864873E-13;
-7,55458882246321E-14;
9,40349436074335E-13;
8,18682531159121E-13;
3,94534156625235E-13;
6,19103343405361E-14;
8,10664268180453E-13;
1,06597799507477E-12;
9,52934460050441E-14;
8,28443097229674E-14;
3,91117230890553E-13;
5,46569669247919E-13;
1,20508182182667E-12;
9,55167475574507E-13;
5,40554692974219E-13;
7,79634798155726E-13;
6,15524762300026E-13;
4,26061283403075E-13;
4,70020347303943E-14;
-4,77491172448695E-13;
-3,14462438851476E-13;
-2,89166408353717E-15;
1,18428362574673E-13;
3,37724437149267E-13;
3,76129351650663E-13;
-1,76458346414226E-14;
1,32136633559982E-13;
1,27530077086187E-12;
9,86456379573819E-13;
1,25588723308033E-13;
1,02218852690941E-12;
1,04273448962269E-12;
3,39489193283335E-13;
5,78826227798718E-13;
6,30818604661627E-13;
5,45336721654433E-13;
3,07204967086842E-13;
7,69741450546802E-14;
-9,32857021052995E-15;
1,98099581728323E-13;
8,32243619064126E-13;
4,03322011530445E-13;
1,7724698440552E-14;
1,72624397338682E-13;
-6,56896286219165E-13;
-5,96580020936971E-13;
6,01614391333239E-13;
8,50989631610698E-13;
2,82330405843875E-13;
3,5681643230832E-13;
1,11589336172834E-12;
7,33169418530816E-13;
1,64171772072718E-13;
6,14422547077806E-13;
4,48826175693836E-13;
8,97145539467327E-14;
5,07293008815835E-13;
8,54827629438757E-13;
2,33481523919603E-13;
-2,84316322742628E-13;
-2,76500629545174E-13;
-4,98202332373169E-13;
3,13485727505547E-13;
3,2480776200214E-13;
-2,03479748224125E-13;
1,15688963028692E-12;
9,36284172976571E-13;
-3,29331045213796E-14;
1,7470847851495E-13;
-1,01189450835394E-13;
7,74441627588414E-13;
1,34448152028824E-12;
4,41773060633938E-13;
7,57144613505935E-13;
1,21505208244548E-12;
4,20434591583002E-13;
8,99884363502345E-14;
6,24341915042598E-13;
3,82839981837483E-13;
-2,27191294077945E-13;
-4,21171500032658E-13;
3,72575446317243E-13;
1,21393433229234E-12;
2,97002997315341E-13;
5,39667334551574E-13;
1,18201362478054E-12;
-5,74600056189581E-14;
6,00994088651491E-14;
9,61783084982234E-13;
5,64688060385781E-13;
3,83727854634366E-13;
5,64901489647598E-13;
4,93017130353276E-13;
6,20856673502768E-13;
3,96138695906544E-13;
-2,60184683352979E-13;
-1,84583299103534E-13;
1,4115025276187E-13;
1,44941466896765E-13;
3,75259490558298E-13;
7,28962378186705E-15;
-2,53097460881982E-13;
3,4670391803509E-13;
7,23577593648014E-13;
1,30936132580005E-12;
6,99481003398148E-13;
-2,33898646966028E-13;
6,05034200081466E-13;
9,70578421668283E-13;
8,64930708739242E-13;
7,49098801499562E-13;
2,1187960533042E-13;
-3,11223098472423E-13;
-4,52543380542227E-13;
-3,82761574619636E-14;
7,413217900599E-13;
1,22147569936218E-12;
2,17897741028689E-13;
-7,22873241922341E-14;
3,4964159920858E-13;
-1,01900660034106E-13;
2,07752902550129E-13;
1,1502618282203E-13;
-1,92768949892484E-13;
4,90090287120882E-13;
7,28975805425449E-13;
6,20871299440521E-13;
9,24195926059077E-13;
7,78312658259077E-13;
2,74870925260908E-13;
-2,50949596567934E-14;
-4,24026376353662E-13;
4,96061428293009E-13;
1,03591992994795E-12;
6,63715767533196E-14;
1,95756200493022E-13;
1,04526857107926E-12;
1,10444219845334E-12;
6,5831863084825E-13;
8,35099335582975E-13;
2,25469205954293E-13;
2,20072157087318E-13;
1,0057174976169E-12;
-1,51646988302149E-13;
2,14644649793006E-14;
5,73039934264179E-13;
-2,03664230579282E-13;
-2,61981294917345E-15;
5,66298586628375E-13;
7,71149162922713E-13;
3,6079388331102E-13;
4,17998270548856E-13;
9,00816920249461E-13;
5,71907909469182E-13;
3,1234739938477E-13;
1,05585847254204E-13;
-4,25305208736758E-13;
-4,06084536329976E-14;
6,76766856719743E-13;
4,44169243648136E-13;
5,86422185844011E-13;
4,22129637478505E-13;
-1,28248124434729E-13;
7,56998321979796E-13;
8,16597206320607E-13;
4,18517098303416E-13;
9,45748259332938E-13;
1,2301317160656E-13;
-4,66151665088208E-13;
4,39270438497634E-13;
4,33817467610958E-13;
1,63766880688078E-13;
7,12094024215446E-13;
4,34124942325982E-13;
1,01238758233775E-13;
2,14875119797934E-13;
6,31951798380395E-14;
4,13774100803065E-13;
3,47160746044166E-13;
-1,76439123991366E-14;
5,80110041211443E-14;
1,17897965961429E-13;
6,18110494964377E-13;
1,0569609227887E-12;
2,31425897277518E-13;
1,49322120489019E-13;
1,42924208305927E-12;
1,16987599443482E-12;
6,52767704618599E-13;
9,19222465147451E-13;
1,02865525235931E-12;
6,71537891187654E-13;
-8,03450724675595E-14;
6,36977534372909E-13;
1,10140385470373E-12;
4,67516212456366E-13;
3,1295765174229E-13;
4,27635534760705E-13;
5,13957158094436E-13;
-5,72040328172382E-13;
-7,39414401090089E-13;
1,54944405978842E-13;
4,50926079436272E-13;
1,25698177071575E-12;
6,45981027312393E-13;
-5,24992532924937E-13;
-4,61372326715148E-13;
-5,42496848284643E-14;
1,71363418258604E-13;
-1,41909926041616E-14;
2,90076185818613E-13;
1,90056202918626E-13;
-2,53703230249336E-13;
4,58699719749008E-13;
1,19423068923587E-12;
2,96543939021103E-13;
-2,04918075470956E-13;
5,56302047481193E-13;
2,95568559487321E-13;
-1,26011303395775E-13;
-3,64458033508658E-13;
7,67512110696926E-14;
8,39577585254093E-13;
5,51279207168409E-13;
9,73111646231381E-13;
7,538961700642E-13;
2,46266789029194E-13;
4,63414979836985E-13;
2,78858767983663E-14;
4,26496567545777E-13;
5,85054816619447E-13;
3,72839398794259E-13;
1,08738492132826E-12;
9,43384225307788E-13;
5,37995880692622E-13;
7,82458247049135E-13;
6,94097669932902E-13;
6,07558106933677E-13;
-8,11675213597784E-14;
-5,69717950441927E-13;
1,08326070910577E-13;
4,11005328042821E-14;
5,18785083918632E-13;
8,1965159118045E-13;
-3,95866221979641E-13;
-1,15562851443246E-13;
9,64328030507125E-13;
1,31619521950583E-12;
1,06792600688335E-12;
4,45637594791382E-13;
4,38302183822933E-13;
3,15991585713551E-13;
4,51825750881184E-13;
8,6140435460563E-13;
7,58552027635054E-13;
8,14050097344791E-13;
2,43476181657742E-13;
-1,7979915096305E-13;
1,31144579209004E-13;
7,81572443408602E-13;
9,53220737512679E-13;
-4,1608756267574E-13;
-4,00566433928358E-13;
6,10648781202115E-13;
4,10836699198721E-13;
4,38607295212976E-13;
4,06540983860564E-13;
6,02538538983864E-13;
9,23417226387255E-13;
-1,96502168250149E-13;
-2,47979053807489E-14;
1,07473725190065E-12;
7,64053690529134E-15;
-1,85299510369415E-13;
-6,28372315528256E-14;
-8,19743757928522E-13;
1,03852191038932E-12;
1,51544901248474E-12;
-8,29848977968538E-13;
-3,05711066627856E-13;
4,26499932896153E-13;
-3,3667689143256E-13;
3,79827575533058E-13;
6,57000917611467E-13;
6,22874120789954E-13;
4,32307006021848E-13;
-6,28762681096402E-13;
2,46712754968973E-13;
1,01230536462942E-12;
-5,15603626939048E-13;
-8,07745846702547E-13;
2,51966220560614E-13;
8,35036164517437E-13;
6,73761160843129E-13;
-1,68825434190987E-13;
1,2594698128008E-13;
4,90818284043676E-13;
7,2634695391229E-14;
5,8362332461168E-13;
3,80228978287318E-13;
-2,90384582457638E-13;
-2,32390690078728E-13;
-3,01292914155341E-13;
8,81577320259589E-14;
1,13567215083673E-13;
-2,55917777001204E-13;
1,00267987611531E-13;
1,66168430154478E-13;
1,14332804573495E-14;
1,18495601217603E-13;
3,39357842196052E-13;
7,41171321202464E-13;
1,61917074061429E-13;
-1,65441609001663E-13;
9,76952624849853E-13;
7,90864520611177E-13;
1,5280025913014E-13;
5,71151211516503E-13;
1,96566217590443E-13;
-2,68435536933171E-13;
7,43629769127862E-13;
1,46704425381202E-12;
4,28661421282864E-13;
-2,01735182208563E-13;
-2,77365621227639E-13;
-5,26599937929821E-13;
1,2528274353322E-13;
7,62477883168662E-13;
3,39553710289963E-13;
2,63238729569999E-13;
4,23467806303222E-13;
3,05488456392016E-13;
8,88411069962315E-13;
4,87823162210167E-13;
6,34609925587603E-13;
1,78711523390291E-12;
9,82052781588684E-13;
5,22346453376975E-13;
7,40248069000232E-13;
3,38919953397632E-13;
5,9632977403043E-13;
4,003656379695E-13;
-4,38226459394845E-13;
2,55243135150893E-13;
6,12888381773757E-13;
-2,48415159699988E-14;
3,54063564461945E-13;
2,79365872446531E-13;
1,25397117878435E-13;
7,54599263412536E-13;
8,87707325493622E-13;
4,30066216089832E-13;
