-0,0106966898059091;
-0,0246313133993461;
-0,0186353265630216;
-0,0115622870259054;
-0,0139595353600625;
-0,00851803825014018;
-0,00700380875471487;
-0,0059629793879045;
-0,00222635476730452;
-0,00232059794326175;
7,54146733404449E-5;
0,00101162394054792;
0,00183977577207798;
0,00351060438979111;
0,00380342845371074;
0,00486251385983674;
0,00513196536226562;
0,00548166257721041;
0,00614616980950386;
0,0066318096019639;
0,00747986768585573;
0,0079203076045875;
0,00807259213478456;
0,00788405821335857;
0,00738260855934523;
0,00696524743586162;
0,00656729989838128;
0,00627433671008149;
0,00594587000641205;
0,00548396041937513;
0,00497018207871849;
0,00444437128266844;
0,00401871630928751;
0,00365375369946786;
0,00325013193963763;
0,00274662493077841;
0,00215935613395194;
0,00164403539434633;
0,00134457039929745;
0,00129856308809413;
0,00138328841311361;
0,00137521376432724;
0,00110975152153513;
0,000571854590766443;
-9,76956025536959E-5;
-0,000714512540259214;
-0,00117852169705212;
-0,00151759380630188;
-0,00183638003588028;
-0,00220728695051504;
-0,00260940968656243;
-0,0029571151764896;
-0,00318672047447818;
-0,00332330314286563;
-0,00346066819667067;
-0,0036729329451217;
-0,00393228892672125;
-0,00410953396632013;
-0,00406711511115742;
-0,00377385133900401;
-0,0033502366538902;
-0,00300226262586885;
-0,00288963854390812;
-0,00302591833486723;
-0,00328294003648289;
-0,00349200030588441;
-0,00356074196334038;
-0,00351822961181556;
-0,00346232607180669;
-0,00346203913807536;
-0,00349936938328603;
-0,00349577844241563;
-0,00339380614097803;
-0,00321739791394336;
-0,00305445339851025;
-0,00297426583640232;
-0,00295159222768367;
-0,00286758978348976;
-0,00259551395199781;
-0,00210711421385927;
-0,00151406568262077;
-0,00100674308750671;
-0,000732565962365694;
-0,000703831185229927;
-0,000802147775784237;
-0,000871796205107718;
-0,000827508992696155;
-0,000695882009851859;
-0,000566735679507062;
-0,000503208698780799;
-0,000488286815355649;
-0,000449280654563454;
-0,000332921494570263;
-0,000160748055368779;
-1,29815765003192E-5;
4,73559426734164E-5;
4,40769773006181E-5;
8,68347987055203E-5;
0,000292417204697019;
0,000687216648544438;
0,0011694098029567;
0,00156521628655629;
0,00174037225082469;
0,00168440960742331;
0,00150641230691111;
0,00134947440784764;
0,00129213597657876;
0,00131064148785364;
0,0013235079390993;
0,00127368274845465;
0,00117730047198133;
0,0011012448830504;
0,00109459960328278;
0,00113819098201844;
0,00115937957965256;
0,00110124682169387;
0,000985965159129224;
0,000913775898874061;
0,000991276538027644;
0,00124272571485982;
0,00157578674228167;
0,00183281492177027;
0,00189219815631863;
0,00174482100516739;
0,00149005144830643;
0,00125798477732584;
0,00112002203585786;
0,00105474415344782;
0,000988426799324695;
0,000869525877768506;
0,000712786699989958;
0,000578842898689071;
0,000512140549218209;
0,000495337258576418;
0,000462763010660852;
0,000363003185481961;
0,000216111944776158;
0,000112585736929488;
0,000148544653724417;
0,000345714649415471;
0,000620646501561389;
0,000831097384467027;
0,00086742469316009;
0,000721406897047043;
0,000482486932733131;
0,000267661547397316;
0,000141005896344021;
8,30652155299997E-5;
2,73884311196383E-5;
-7,24861283676845E-5;
-0,000203447798766699;
-0,000311212341887745;
-0,000356080722772155;
-0,000353816975003414;
-0,000363497789719379;
-0,000431362702478133;
-0,00053958004662144;
-0,000607259756131536;
-0,000548562902221986;
-0,00034430073818879;
-6,9365366160626E-5;
0,000148871226477569;
0,000212302426712057;
0,000113517008566032;
-6,76848896399547E-5;
-0,000226986866237333;
-0,000307380292727391;
-0,000326388636389758;
-0,000343397788237683;
-0,000399918091287536;
-0,000484361940277375;
-0,000548499360401927;
-0,000557122778700457;
-0,000524382018309424;
-0,000502908747944229;
-0,000533864722275308;
-0,000601453046687114;
-0,000633903422937674;
-0,00055512499698727;
-0,000348224773996007;
-7,97405242897636E-5;
0,000137353810987575;
0,000216133837564576;
0,000150081262767032;
9,88092871886723E-6;
-0,000112158866304442;
-0,000165650722997753;
-0,0001661285422017;
-0,000166087081151327;
-0,000202175694867285;
-0,000264134825845137;
-0,00030938612283146;
-0,000306877869221131;
-0,000269093033691605;
-0,00024239966514661;
-0,000263010349327935;
-0,000316959794820975;
-0,000341051395938859;
-0,000268357856360008;
-8,40580568661361E-5;
0,000153354942609257;
0,000344675601958878;
0,000413672082510973;
0,00035473719826108;
0,000229969264549129;
0,000120353743046829;
7,00683053419228E-5;
6,55267037390028E-5;
6,08140500097149E-5;
2,39266568595134E-5;
-3,60942411481872E-5;
-8,19790531247147E-5;
-8,65696075441799E-5;
-6,07428803350142E-5;
-4,4927959193075E-5;
-7,06506849125695E-5;
-0,000125664903618425;
-0,000154851683161182;
-9,99113250387673E-5;
5,20368008363071E-5;
0,000250083651179921;
0,00040798235102344;
0,000459547433533798;
0,000400004860702;
0,000283354482576245;
0,000179918679214198;
0,000128023504127193;
0,000115893053844052;
0,000103765219099639;
6,39660761982086E-5;
4,36231671260172E-6;
-4,27844965285702E-5;
-5,39941926958385E-5;
-3,86692301980088E-5;
-3,1711302738082E-5;
-6,02973941642855E-5;
-0,000113828683364359;
-0,000144776193758755;
-0,00010293596578112;
2,27316742652325E-5;
0,000188371452200605;
0,000319798986471944;
0,00036016198935639;
0,000305418736619482;
0,000201975596553854;
0,000110180118380162;
6,28753880402585E-5;
4,99417856911599E-5;
3,73135910799857E-5;
1,31270571956967E-6;
-5,13192747267407E-5;
-9,3006506585303E-5;
-0,000103712851288288;
-9,14950046529062E-5;
-8,61466924423699E-5;
-0,000110834437326473;
-0,000156513556834666;
-0,000182716260962578;
-0,000146760067015824;
-3,93230027913168E-5;
0,000102262544769969;
0,000214966982580445;
0,000250557942047696;
0,000205651030317638;
0,000119612368347435;
4,35560346245945E-5;
5,25125214766834E-6;
-3,89652971177686E-6;
-1,26986940338009E-5;
-4,1151886686397E-5;
-8,35586935138383E-5;
-0,000116668174737358;
-0,000123619453934532;
-0,000111227642075468;
-0,000104580338697455;
-0,000123151746366145;
-0,000159327996265485;
-0,000179135552999326;
-0,000146802553004699;
-5,4576023315595E-5;
6,62161581824758E-5;
0,000162798317788552;
0,000194856434808938;
0,000159610848448351;
8,99710566858818E-5;
2,85892623042775E-5;
-1,40702554033258E-6;
-7,20380731168913E-6;
-1,27894676910532E-5;
-3,47815723887008E-5;
-6,84308680262592E-5;
-9,44345768239891E-5;
-9,8825074347803E-5;
-8,72708558644357E-5;
-8,05483807275406E-5;
-9,47504991088558E-5;
-0,000123562363042317;
-0,000138929443825117;
-0,000111373648739651;
-3,45592630955379E-5;
0,00939910755638878;
0,0227756339284193;
0,0165457755925489;
0,00957794730808822;
0,0122577709327972;
0,0070647490227835;
0,00564919030369244;
0,00459256733579507;
0,000845936482405192;
0,00101996059746049;
-0,00123029383078397;
-0,00205305978328954;
-0,00287197830469508;
-0,00460936029223864;
-0,00493780744200074;
-0,00591817760689966;
-0,00602713941637293;
-0,00628120906728165;
-0,00707046342714506;
-0,00793606386981242;
-0,00928390010587238;
-0,0101136899235685;
-0,0103677962310558;
-0,00998074809634112;
-0,00912551882488676;
-0,00838846604878763;
-0,00780848985446375;
-0,00743971629656778;
-0,00703442846158636;
-0,00641989588226927;
-0,0056991096947433;
-0,00499967364110429;
-0,00449789973606464;
-0,00412899948345625;
-0,00369859683654634;
-0,00307127214861341;
-0,00229218444375584;
-0,00164745863765431;
-0,00141913966863952;
-0,00167558269966739;
-0,00217358828204271;
-0,00248507446556779;
-0,00228827289720436;
-0,00155682525289297;
-0,000560161684132823;
0,000349592766856408;
0,000980787498785549;
0,00138935331203428;
0,00177503531862062;
0,00227654391217571;
0,00285415658170501;
0,00334481976843223;
0,00362840743812379;
0,00375259238181373;
0,00389525644776647;
0,00419612281478501;
0,0046019019799957;
0,00486860228885933;
0,00473721525817162;
0,00414979160889211;
0,00333317222688663;
0,00267352413822677;
0,0024688741177635;
0,00274274162788636;
0,00325397665851346;
0,00368669122826347;
0,00386833728482525;
0,003852802647503;
0,00382150162717558;
0,00390166321976229;
0,00405888833362308;
0,00414695701043069;
0,00405915786704061;
0,00383935621735067;
0,00364907755266829;
0,00361500627929613;
0,00368967778715838;
0,00365410660803259;
0,00327571095665004;
0,00250308579361183;
0,0015407767278041;
0,00073621255556006;
0,000357227723973756;
0,000424700916928547;
0,000721879712850421;
0,000965072219395866;
0,00099938455442858;
0,000873040213055707;
0,000748414664332702;
0,000739135788199132;
0,000813928103406809;
0,000841429501046902;
0,000725730952914993;
0,00050564377156715;
0,000325085610832872;
0,000296650951287209;
0,000377246535712762;
0,000370678455462592;
6,88209841994648E-5;
-0,000574615352846199;
-0,0107110921634647;
-0,0246609191682525;
-0,0186700784181067;
-0,0115915198638756;
-0,0139776817686633;
-0,00852631198418712;
-0,00700718940640939;
-0,00596535176128999;
-0,00222772802500991;
-0,00231823706189983;
8,35002853551956E-5;
0,00102423095614869;
0,00185333200026568;
0,00352243789408796;
0,00381436083674347;
0,00487613813481915;
0,0051508458451295;
0,00550353671063738;
0,00616358259643097;
0,0066360532823907;
0,00746663945057401;
0,00789294519822108;
0,00804041386829518;
0,00785695088905754;
0,00736573868500098;
0,00695750111126025;
0,00656407520396009;
0,00627204328862245;
0,00594450214823667;
0,00548605014128145;
0,00497757325871242;
0,00445595585528804;
0,00403119699324001;
0,00366466356649872;
0,0032602285015293;
0,00275922332854271;
0,00217682309918345;
0,0016642865617652;
0,00136073340954292;
0,00130260802789966;
0,00137123942894609;
0,00135012869320553;
0,00108019473638204;
0,00054691841705803;
-0,000113254525027665;
-0,00072170784926308;
-0,0011815721850419;
-0,00151979120479015;
-0,0018377269462511;
-0,00220545772138086;
-0,00260270964776258;
-0,00294655636170729;
-0,00317532221319664;
-0,00331332506546077;
-0,00345141740246329;
-0,00366137474011513;
-0,00391625599256256;
-0,00409093120997198;
-0,00405222792642329;
-0,00377002664371617;
-0,00336111995601625;
-0,00302507544051751;
-0,00291657194671085;
-0,00304867653917411;
-0,00329717791514434;
-0,00349863243295029;
-0,00356360504952213;
-0,00352031761537475;
-0,00346363884308228;
-0,00346045724730995;
-0,00349334733852085;
-0,00348623303283245;
-0,00338348023472427;
-0,00320834492418981;
-0,00304604453652456;
-0,0029637449679748;
-0,00293699012778411;
-0,00285063345715403;
-0,00258190666574698;
-0,00210352536653886;
-0,00152381223402197;
-0,00102732126481019;
-0,000756912556031352;
-0,000724437157971891;
-0,000815075012005903;
-0,000877862734592266;
-0,000830175900540981;
-0,000697850537417375;
-0,000568003280586861;
-0,000501859090272446;
-0,00048292154481337;
-0,000440723336332702;
-0,000323643803209009;
-0,000152601071277923;
-5,39927394038342E-6;
5,68567278100557E-5;
5,72713185393508E-5;
0,000102169695812472;
0,000304759075606532;
0,000690559320282708;
0,00116075873161032;
0,00154680851107202;
0,00171854426828521;
0,00166590326999368;
0,00149476831412638;
0,00134396769384509;
0,001289670183643;
0,00130879960249012;
0,00132229455469258;
0,00127481648260957;
0,00118203662502732;
0,00110884990044035;
0,00110286465156985;
0,00114546113927647;
0,00116616014983484;
0,00110975661234827;
0,000997791169242032;
0,000927533337934918;
0,00100238287435663;
0,00124581652061553;
0,00156818021398311;
0,00181649200941105;
0,0018727951194199;
0,00172833997620402;
0,00147964943508879;
0,00125302527287529;
0,00111775896635466;
0,00105303348396973;
0,000987274828139237;
0,000870460991522231;
0,000716926336969576;
0,000585539622534754;
0,00051943756608111;
0,000501767789630703;
0,000468774222185774;
0,000370560558784236;
0,000226622188078433;
0,000124824965238665;
0,000158457839749145;
0,00034855191886107;
0,000614026266419809;
0,000816757220614632;
0,000850332968685836;
0,000706859708027706;
0,000473274588032093;
0,00026323106897364;
0,000138944290332801;
8,148804337979E-5;
2,63033726894978E-5;
-7,17319686258848E-5;
-0,000199868451780427;
-0,000305373700225753;
-0,000349700243589896;
-0,000348182714923804;
-0,000358217713189019;
-0,000424711776023119;
-0,000530322751533121;
-0,000596467522823829;
-0,000539790580981222;
-0,000341715242509785;
-7,50627909811833E-5;
0,00013639933053074;
0,000197393315143641;
0,000100799155313923;
-7,57683955505613E-5;
-0,000230910949867774;
-0,000309244120550831;
-0,00032783203211526;
-0,000344411989804923;
-0,000399327179422188;
-0,000481304192759113;
-0,000543464151428729;
-0,000551602336273854;
-0,0005194961566458;
-0,00049831724314135;
-0,000528068737052926;
-0,00059337817897153;
-0,000624477945735996;
-0,000547433671160854;
-0,000345886368291954;
-8,45820299665082E-5;
0,000126627038911722;
0,000203267910293536;
0,000139078827948198;
2,8591527497865E-6;
-0,000115602609295306;
-0,000167322468455562;
-0,00016743959351893;
-0,000167027874046247;
-0,00020173058308713;
-0,000261558506698065;
-0,000305096792132953;
-0,000302157606646438;
-0,000264904609398779;
-0,00023845114314322;
-0,000258013896405385;
-0,000309991375791448;
-0,000332905993277447;
-0,000261682116890784;
-8,19596316637264E-5;
0,000149300635030112;
0,000335565383875902;
0,000402702957681448;
0,000345330031835381;
0,000223937807299664;
0,000117361763828451;
6,85813103352446E-5;
6,43451191184967E-5;
5,99479840631118E-5;
2,42429218055041E-5;
-3,39585490565863E-5;
-7,83764706055592E-5;
-8,25877305401797E-5;
-5,71990861392345E-5;
-4,15749506214835E-5;
-6,63958706895857E-5;
-0,000119723463472686;
-0,00014789549788342;
-9,41820197596761E-5;
5,3904340333022E-5;
0,000246747325523961;
0,000400357459906747;
0,000450325043527663;
0,000392069331721933;
0,000278239347157233;
0,000177348167848447;
0,000126712637901688;
0,000114836853914788;
0,000102974108984117;
6,41697489580674E-5;
6,09808836611505E-6;
-3,98090850064508E-5;
-5,06881965152699E-5;
-3,57164891183152E-5;
-2,89054535619036E-5;
-5,67250744033682E-5;
-0,000108832951016175;
-0,000138916154645127;
-9,80817726151424E-5;
2,43789982102658E-5;
0,000185684526475952;
0,000313527905528371;
0,000352535357791163;
0,000298830073319146;
0,00019770166962306;
0,000107999747316993;
6,17310375449839E-5;
4,90059043365489E-5;
3,65967180085566E-5;
1,41919420126768E-6;
-4,99434074527852E-5;
-9,05991989712882E-5;
-0,000101020552727828;
-8,9079868605455E-5;
-8,383960199717E-5;
-0,000107885271360589;
-0,000152381916292935;
-0,000177858759994709;
-0,000142708833579314;
-3,78840088909444E-5;
0,000100157997270797;
0,000209919876585066;
0,000244377529361972;
0,000200285313026291;
0,000116104675956014;
4,1734040698795E-5;
4,26309122180407E-6;
-4,71792857154981E-6;
-1,33428602055052E-5;
-4,11281363072259E-5;
-8,2503900714355E-5;
-0,000114771209727773;
-0,00012147985176463;
-0,000109297554611038;
-0,000102724266951561;
-0,000120767071340238;
-0,00015597970297503;
-0,00017518785524759;
-0,000143482439487111;
-5,33325953066311E-5;
6,46292796798792E-5;
0,000158848664045093;
0,00018997608083598;
0,000155346657075627;
8,71558033164023E-5;
2,70939596058956E-5;
-2,2497993517551E-6;
-7,9171567885281E-6;
-1,33631390079915E-5;
-3,48271524815914E-5;
-6,76598944241917E-5;
-9,29921295230295E-5;
-9,71790448526059E-5;
-8,57747716329769E-5;
-7,90968354462238E-5;
-9,28730652971636E-5;
-0,000120918552811342;
-0,000135800864654019;
-0,000108714082945708;
-3,34980465772668E-5;
6,45424951377907E-5;
0,000142930006561821;
0,000169316806824592;
0,000141570887446871;
8,61845858356758E-5;
3,73818971681075E-5;
1,36647243700893E-5;
9,24512661249879E-6;
4,93043560540329E-6;
-1,25343646495083E-5;
-3,93318009066024E-5;
-6,00658234130572E-5;
-6,36322338728039E-5;
-5,45678532064842E-5;
-4,93906401271695E-5;
-6,08514579380365E-5;
-8,39066538277304E-5;
-9,63236017914318E-5;
-7,48192227413934E-5;
-1,44676276683987E-5;
6,42542915680302E-5;
0,000127084011387228;
0,000148005479710246;
0,000125366090272257;
8,05029607792322E-5;
4,08961359784464E-5;
2,13590446601465E-5;
1,72371031924537E-5;
1,31833469097544E-5;
-1,36719937572604E-6;
-2,33486901565659E-5;
-4,04956724378277E-5;
-4,39922720901802E-5;
-3,74592713403083E-5;
-3,3996206763677E-5;
-4,36784884181133E-5;
-6,24919190100648E-5;
-7,28799396705973E-5;
-5,65218623490766E-5;
-9,59915054627277E-6;
5,17461914246463E-5;
0,000100622048201974;
0,000116687696343965;
9,87148776395513E-5;
6,34154033185398E-5;
3,2224439286135E-5;
1,66508184975425E-5;
1,30531230300899E-5;
9,52300200790648E-6;
-2,10209923073557E-6;
-1,94320247700787E-5;
-3,3001774679394E-5;
-3,6041255163107E-5;
-3,13547654800094E-5;
-2,89931277347697E-5;
-3,66482895685908E-5;
-5,12277294698473E-5;
-5,9345516248089E-5;
-4,71030348943347E-5;
-1,16673219098041E-5;
3,46789442537477E-5;
7,16006513268586E-5;
8,38015559074005E-5;
7,04263775947557E-5;
4,40730106456346E-5;
2,08052013454867E-5;
9,19711905233764E-6;
6,50613856178976E-6;
3,87309722357714E-6;
-4,73641063245926E-6;
-1,75332157800139E-5;
-2,75345091562056E-5;
-2,97819752504411E-5;
-2,63571277953869E-5;
-2,46140771955877E-5;
-3,01385161023208E-5;
-4,06543203249782E-5;
-4,64611144430029E-5;
-3,75645620525604E-5;
-1,19995878255384E-5;
2,1358119714094E-5;
4,79564774436196E-5;
5,69446131256308E-5;
4,77938147240145E-5;
2,9477530751966E-5;
1,33312319787508E-5;
5,34810544139841E-6;
3,577068255944E-6;
1,83955067909505E-6;
-4,02952636151459E-6;
-1,27692556474181E-5;
-1,95753162901843E-5;
-2,10777805593948E-5;
-1,87230226517326E-5;
-1,7500880243989E-5;
-2,11520780924219E-5;
-2,81157886353205E-5;
-3,19168185138381E-5;
-2,59743438868729E-5;
-9,07936368623603E-6;
1,28722342601349E-5;
3,03806715352681E-5;
3,64755157930121E-5;
3,09119042216598E-5;
1,95017367297074E-5;
9,45953285112757E-6;
4,53128069082429E-6;
3,45654052833275E-6;
2,39033113632479E-6;
-1,20652306946163E-6;
-6,53261493309393E-6;
-1,06762086846851E-5;
-1,16457355246461E-5;
-1,03349754505018E-5;
-9,68196841005391E-6;
-1,18278878455029E-5;
-1,58322838887339E-5;
-1,80132655459695E-5;
-1,47435918139926E-5;
-5,46613504704979E-6;
6,50200468366519E-6;
1,60283328724354E-5;
1,94936324996785E-5;
1,68968412166001E-5;
1,13212655146823E-5;
6,42811276078969E-6;
4,02766009934862E-6;
3,4551868034679E-6;
2,87461709673308E-6;
1,14497326323864E-6;
-1,3280718675982E-6;
-3,25913429793091E-6;
-3,83974017327337E-6;
-3,48866472941797E-6;
-3,3838731961504E-6;
-4,29601229582722E-6;
-5,8170301432619E-6;
-6,65688935529941E-6;
-5,7147247504439E-6;
-2,98914938880228E-6;
4,08045042038106E-7;
3,07462775505439E-6;
4,25075577230116E-6;
4,14178350685874E-6;
3,50397925650653E-6;
2,97142795938318E-6;
2,70704572189124E-6;
2,5533762180012E-6;
2,38204982346896E-6;
2,23912923925433E-6;
2,1933599330722E-6;
2,14987365428011E-6;
1,91432703642026E-6;
1,47086353145218E-6;
1,13169684734746E-6;
1,28496568235694E-6;
1,88748477511911E-6;
2,2078910727196E-6;
1,21464933815216E-6;
-1,55826228033078E-6;
-5,36201736893582E-6;
-8,45588570675113E-6;
-9,1934766293385E-6;
-7,19733621177429E-6;
-3,66847306455532E-6;
-5,15709990560068E-7;
1,041678034476E-6;
1,27208649511451E-6;
1,47800635670082E-6;
2,69862978184879E-6;
4,71990183174655E-6;
6,2927025160376E-6;
6,38533072104409E-6;
5,31872890048872E-6;
4,64786855039695E-6;
5,72573831839633E-6;
8,1324641027497E-6;
9,4547245528332E-6;
6,88930645674879E-6;
-4,1642017926919E-7;
-1,01683366754215E-5;
-1,80197322644992E-5;
-2,03319982599354E-5;
-1,6586686038574E-5;
-9,60412601033862E-6;
-3,39380247558811E-6;
-3,15096014483432E-7;
2,52066310962835E-7;
7,88732203665083E-7;
3,15065377048422E-6;
6,8904964206986E-6;
9,81090070985944E-6;
1,01935537412951E-5;
8,63610664594058E-6;
7,7113216825052E-6;
9,56085010623322E-6;
1,34560901565754E-5;
1,56103431995312E-5;
1,17764441922452E-5;
7,88526810781671E-7;
-1,3800202413154E-5;
-2,55241534152807E-5;
-2,9127819105972E-5;
-2,3979780359649E-5;
-1,42133132997384E-5;
-5,53791347249935E-6;
-1,2338313677759E-6;
-3,9640815842782E-7;
4,05773690064103E-7;
3,68546583779725E-6;
8,8069338883471E-6;
1,28107957385931E-5;
1,34283043436774E-5;
1,14795678620833E-5;
1,03521286640506E-5;
1,28174281106956E-5;
1,78995073973096E-5;
2,07164988047079E-5;
1,58725601644945E-5;
1,95460061122846E-6;
-1,64828257734033E-5;
-3,12936487142928E-5;
-3,59430789414106E-5;
-2,97118981122764E-5;
-1,77709265086533E-5;
-7,16971135048049E-6;
-1,91252659170722E-6;
-8,70396870428878E-7;
1,33699393790041E-7;
4,12642007477262E-6;
1,032388549989E-5;
1,51715719699259E-5;
1,59722474747718E-5;
1,37198374574742E-5;
1,2434920844264E-5;
1,5376566854135E-5;
2,13763601391288E-5;
2,47059817775468E-5;
1,90847122340314E-5;
2,91110853609723E-6;
-1,84891501738088E-5;
-3,56808506830687E-5;
-4,1151144280808E-5;
-3,41154754766825E-5;
-2,05367647959912E-5;
-8,48396235731494E-6;
-2,51012274933636E-6;
-1,31564363801048E-6;
-1,60109432257498E-7;
4,36977715195E-6;
1,13777876655729E-5;
1,6862535658517E-5;
1,78065789268299E-5;
1,5334424981869E-5;
1,39383629189757E-5;
1,72389954553998E-5;
2,3924139994352E-5;
2,76394493204924E-5;
2,14530053754096E-5;
3,62708391617254E-6;
-1,99453484598256E-5;
-3,88862005572042E-5;
-4,49709629545185E-5;
-3,73696142530511E-5;
-2,26203575803377E-5;
-9,52841286357328E-6;
-3,04096152447426E-6;
-1,73516162996776E-6;
-4,67871187162003E-7;
4,44870142103499E-6;
1,20375438030907E-5;
1,79809908940687E-5;
1,90366824903577E-5;
1,64216542875533E-5;
1,49580342733472E-5;
1,85171424897201E-5;
2,56858478018121E-5;
2,96773662114453E-5;
2,31136777366485E-5;
4,16643694766786E-6;
-2,08828693012652E-5;
-4,10167731905373E-5;
-4,75324901469537E-5;
-3,95719440226205E-5;
-2,40588769691063E-5;
-1,02871414674515E-5;
-3,46284113711919E-6;
-2,08128353853665E-6;
-7,36900974956125E-7;
4,43474254364115E-6;
1,24034321567529E-5;
1,86491229166931E-5;
1,97876002740859E-5;
1,70952717851361E-5;
1,56005888809159E-5;
1,93291810671825E-5;
2,68042488237439E-5;
3,09749107609549E-5;
2,41952728724785E-5;
4,58601410246599E-6;
-2,13380418736439E-5;
-4,21833644133036E-5;
-4,89712678186321E-5;
-4,083072450084E-5;
-2,49066934388005E-5;
-1,07673041648942E-5;
-3,76061665293783E-6;
-2,33586607147755E-6;
-9,46264641732452E-7;
4,36479476813118E-6;
1,25377365558694E-5;
1,89484232252095E-5;
2,01424063307884E-5;
1,74268902883029E-5;
1,59302793905893E-5;
1,97495508395707E-5;
2,73763456704467E-5;
3,16404415576677E-5;
2,4781225572171E-5;
4,9024459276124E-6;
-2,13809444161601E-5;
-4,25252254118517E-5;
-4,94493027523396E-5;
-4,1282160674866E-5;
-2,52493234189538E-5;
-1,10098172614429E-5;
-3,9536488654364E-6;
-2,51454265985239E-6;
-1,10797966220437E-6;
4,24275821996843E-6;
1,24691034247418E-5;
1,89266085004152E-5;
2,01515946759571E-5;
1,74577325822452E-5;
1,59828893939904E-5;
1,98248803262733E-5;
2,74710893783845E-5;
3,17548775694318E-5;
2,49308594290167E-5;
5,1147011114578E-6;
-2,10913884869215E-5;
-4,2184766039313E-5;
-4,9128756025648E-5;
-4,10633486239485E-5;
-2,51758284654521E-5;
-1,10613194286066E-5;
-4,06741822965798E-6;
-2,63809765809567E-6;
-1,23825969137143E-6;
4,06829184459916E-6;
1,22211548686027E-5;
1,86260033588934E-5;
1,98611547315786E-5;
1,72263222667811E-5;
1,57929500721264E-5;
1,96006190123443E-5;
2,71553433657403E-5;
3,13969278027516E-5;
2,4703859288651E-5;
5,2278144470054E-6;
-2,05359799321943E-5;
-4,12854876003598E-5;
-4,81508196908793E-5;
-4,02921575211713E-5;
-2,47597560465047E-5;
-1,09562083876067E-5;
-4,11665683832487E-6;
-2,71668914072294E-6;
-1,34285014223546E-6;
3,85035532565069E-6;
1,1824905794594E-5;
1,8094833783063E-5;
1,93227683641636E-5;
1,67775951964239E-5;
1,54017735132776E-5;
1,91280162797728E-5;
2,64998242184737E-5;
3,06480323467241E-5;
2,41642347894482E-5;
5,25587845573862E-6;
-1,97660503584787E-5;
-3,99307836848887E-5;
-4,66353476541855E-5;
-3,9067649892922E-5;
-2,40602972502799E-5;
-1,07184876916004E-5;
-4,10786448159186E-6;
-2,75300298879506E-6;
-1,42077106169745E-6;
3,60291635910044E-6;
1,13139756274438E-5;
1,73819904092224E-5;
1,85881331639823E-5;
1,61568186889289E-5;
1,48510260568651E-5;
1,84574000681681E-5;
2,55721437059415E-5;
2,95851851893354E-5;
2,33729235475542E-5;
5,21442501162357E-6;
-1,88254997436292E-5;
-3,82119494377752E-5;
-4,46889210359895E-5;
-3,74780916599983E-5;
-2,31301860784005E-5;
-1,03695402453641E-5;
-4,04696211042533E-6;
-2,74980482821321E-6;
-1,47174239404689E-6;
3,33770730008976E-6;
1,07175641313844E-5;
1,65302195607044E-5;
1,77023632380278E-5;
1,54032011908402E-5;
1,4176554009004E-5;
1,76322697184442E-5;
2,4431203399146E-5;
2,82756242263692E-5;
2,23827159623813E-5;
5,11549699854289E-6;
-1,77556094138813E-5;
-3,62128320178161E-5;
-4,24092372411029E-5;
-3,56049723034517E-5;
-2,20192752375246E-5;
-9,93128901673445E-6;
-3,94210302332491E-6;
-2,71242916602214E-6;
-1,4983686875426E-6;
3,06236436952526E-6;
1,00589279173783E-5;
1,5574922866928E-5;
1,67030606677506E-5;
1,4549179833951E-5;
1,34079046720564E-5;
1,6689088753309E-5;
2,31272792358239E-5;
2,67771625989108E-5;
2,12387145379886E-5;
4,96811977703175E-6;
-1,65946176574715E-5;
-3,40094197947253E-5;
-3,98845828946904E-5;
-3,35222246519424E-5;
-2,07734560246609E-5;
-9,42483488788821E-6;
-3,80211396373002E-6;
-2,64711657368692E-6;
-1,50436834372592E-6;
2,7823411013843E-6;
9,3574475132999E-6;
1,45463439892856E-5;
1,56225598669803E-5;
1,36226779457224E-5;
1,25705847909566E-5;
1,56595950218853E-5;
2,1704422202334E-5;
2,51406312912905E-5;
1,99806942973346E-5;
4,78042458224442E-6;
-1,53759126105149E-5;
-3,16682894091987E-5;
-3,71923724908528E-5;
-3,12946874992175E-5;
-1,94329692261082E-5;
-8,86866032772937E-6;
-3,63467366527772E-6;
-2,55922266758582E-6;
-1,49283370398063E-6;
2,50263164838051E-6;
8,63037554547955E-6;
1,34713174326922E-5;
1,44896004837324E-5;
1,26486556084146E-5;
1,16875176811366E-5;
1,45722133131709E-5;
2,02018655881387E-5;
2,34112516590437E-5;
1,86442996693809E-5;
4,56051513482536E-6;
-1,41275684882875E-5;
-2,92464660042205E-5;
-3,43991558434324E-5;
-2,89780901778701E-5;
-1,80322464162418E-5;
-8,27834258680503E-6;
-3,44601061392546E-6;
-2,45297494440289E-6;
-1,46603542431894E-6;
2,22797511202559E-6;
7,89307678104907E-6;
1,23735220454945E-5;
1,33295369109538E-5;
1,16492221926245E-5;
1,07790710129987E-5;
1,34520870057714E-5;
1,86541077604718E-5;
2,16287132956257E-5;
1,72609835371168E-5;
4,3160997256024E-6;
-1,28730836568658E-5;
-2,67924701262802E-5;
-3,15617805388957E-5;
-2,66200938814868E-5;
-1,66007536545562E-5;
-7,66722550077584E-6;
-3,24147892476094E-6;
-2,33203642412814E-6;
-1,42597777514715E-6;
1,96235786041341E-6;
7,15863678260555E-6;
1,12731728443673E-5;
1,21640405034459E-5;
1,06433003874148E-5;
9,86269728315844E-6;
1,23207641904626E-5;
1,709070673228E-5;
1,98270351201E-5;
1,58577778393778E-5;
4,05400127411783E-6;
-1,16322308144632E-5;
-2,43474289179114E-5;
-2,87285519246206E-5;
-2,42613167438122E-5;
-1,51637491618711E-5;
-7,04694836508582E-6;
-3,02597756476469E-6;
-2,19988554385747E-6;
-1,3747379345166E-6;
1,7087821373015E-6;
6,43776721382651E-6;
1,0187032759603E-5;
1,101114198007E-5;
9,64664298971308E-6;
8,95295034237894E-6;
1,11962851361376E-5;
1,55364881902532E-5;
1,80348470827795E-5;
1,44574902991836E-5;
3,7800864010795E-6;
-1,0421468390343E-5;
-2,19457673041558E-5;
-2,59400033093697E-5;
-2,19359495618211E-5;
-1,37426521919502E-5;
-6,42758941705627E-6;
-2,80396647483384E-6;
-2,05978976218428E-6;
-1,31440226627624E-6;
1,4694032848017E-6;
5,73906563324162E-6;
9,12877655987932E-6;
9,88562232683954E-6;
8,67219055999662E-6;
8,06182464933572E-6;
1,00935796443236E-5;
1,40120479391748E-5;
1,62759505832219E-5;
1,30791637883555E-5;
3,49943865355929E-6;
-9,25413841254231E-6;
-1,96156851661106E-5;
-2,32294454318294E-5;
-1,96721777051469E-5;
-1,23552234146152E-5;
-5,81763798995873E-6;
-2,57934110673025E-6;
-1,91466286720758E-6;
-1,2469074896787E-6;
1,2457721388824E-6;
5,06937604269931E-6;
8,10942365299135E-6;
8,79944526781247E-6;
7,73046071891815E-6;
7,19911208667504E-6;
9,02486903741492E-6;
1,25342569368368E-5;
1,45698678738171E-5;
1,17385205400045E-5;
3,21652104845556E-6;
-8,14067606883493E-6;
-1,7379670732247E-5;
-2,06235821601553E-5;
-1,74926731728834E-5;
-1,10158312269686E-5;
-5,22406231694969E-6;
-2,3553947365004E-6;
-1,76701770726961E-6;
-1,17398360537578E-6;
1,03896004218186E-6;
4,43401218410488E-6;
7,13765587639644E-6;
7,76209439628981E-6;
6,82983005551762E-6;
6,3726547127311E-6;
7,99995891525306E-6;
1,11166442596466E-5;
1,29322725038543E-5;
1,04482840223422E-5;
2,93521449402949E-6;
-7,0889391684564E-6;
-1,52551070651164E-5;
-1,81431951614987E-5;
-1,54151696259986E-5;
-9,73579953725868E-6;
-4,65246144142057E-6;
-2,13489469032046E-6;
-1,61901226787982E-6;
-1,09716760710649E-6;
8,49603765634247E-7;
3,83691296619532E-6;
6,22004727439001E-6;
6,7808014915249E-6;
5,97672282346064E-6;
5,58850865607579E-6;
7,02644911852582E-6;
9,76969847495216E-6;
1,13753522378446E-5;
9,21844881325551E-6;
2,65881491285444E-6;
-6,10454422738534E-6;
-1,32548868959683E-5;
-1,58038504260288E-5;
-1,34530450577298E-5;
-8,52377872401708E-6;
-4,10724454748241E-6;
-1,92014575251405E-6;
-1,47250407623805E-6;
-1,01785819204872E-6;
6,77936062289948E-7;
3,28077899391575E-6;
5,36127877010575E-6;
5,86078627252627E-6;
5,17582049194714E-6;
4,85112956702493E-6;
6,10996956739527E-6;
8,50120751336966E-6;
9,90817443545484E-6;
8,05654747873942E-6;
2,39006230384376E-6;
-5,19117599737133E-6;
-1,1387980171252E-5;
-1,36165361554733E-5;
-1,16158477737958E-5;
-7,38606295411353E-6;
-3,59177176535992E-6;
-1,71305042107698E-6;
-1,32908068391206E-6;
-9,37316042925477E-7;
5,23839849864882E-7;
2,76723211538794E-6;
4,56438154004577E-6;
5,00549912579348E-6;
4,4302624500043E-6;
4,16355906764853E-6;
5,25440389130518E-6;
7,3165637711286E-6;
8,53706587288615E-6;
6,96795476926863E-6;
2,13119431590348E-6;
-4,35084693486029E-6;
-9,65994080915047E-6;
-1,15882426430572E-5;
-9,90977960699872E-6;
-6,3268774727901E-6;
-3,10845938556487E-6;
-1,51513281642854E-6;
-1,19007564769525E-6;
-8,56656691397805E-7;
3,86926260558343E-7;
2,29697691088303E-6;
3,83097225234522E-6;
4,21687808825875E-6;
3,74187008281712E-6;
3,52762706232706E-6;
4,46213884185451E-6;
6,21909602946225E-6;
7,2659677586061E-6;
5,95615589140799E-6;
1,88399026530382E-6;
-3,58413585237321E-6;
-8,07336985849486E-6;
-9,72251193041347E-6;
-8,33814144121975E-6;
-5,34864080126063E-6;
-2,65889816306412E-6;
-1,32756760856105E-6;
-1,05656797803303E-6;
-7,76851238374032E-7;
2,66583472379545E-7;
1,8699485164066E-6;
3,16146164404488E-6;
3,49556891033416E-6;
3,11133914743834E-6;
2,94412169624356E-6;
3,73427038368276E-6;
5,21035871848307E-6;
6,09677805651251E-6;
5,02301031587233E-6;
1,64983402641987E-6;
-2,89040978341795E-6;
-6,6283679663609E-6;
-8,0199354146962E-6;
-6,90175449240751E-6;
-4,45222599879102E-6;
-2,24395125258511E-6;
-1,15121886227797E-6;
-9,29418941706996E-7;
-6,98730622716587E-7;
1,62035001196596E-7;
1,48544410709502E-6;
2,55525289754694E-6;
2,8411262787307E-6;
2,53841029495578E-6;
2,41294852328058E-6;
3,07079583541542E-6;
4,29038930056623E-6;
5,02964479263077E-6;
4,16898549729939E-6;
1,42973658259394E-6;
-2,26804190818638E-6;
-5,32293398372199E-6;
-6,47863984133449E-6;
-5,5993521462055E-6;
-3,63719378778584E-6;
-1,86387009628773E-6;
-9,86672210279403E-7;
-8,09280618115925E-7;
-6,22997129039782E-7;
7,23711604800567E-8;
1,14223390066728E-6;
2,01091135780769E-6;
2,25220135982872E-6;
2,022030367175E-6;
1,93327472582089E-6;
2,47079292217837E-6;
3,45795496860266E-6;
4,06324145298096E-6;
3,393361854275E-6;
1,2243909316778E-6;
-1,71459623785575E-6;
-4,15335394609261E-6;
-5,094711649413E-6;
-4,42794216468318E-6;
-2,90201987386072E-6;
-1,51838006337016E-6;
-8,34276277708635E-7;
-6,96629946916011E-7;
-5,50230359423716E-7;
-3,41428506079058E-9;
8,38665215052524E-7;
1,52632184496059E-6;
1,72669988494871E-6;
1,56049091494749E-6;
1,50365696866466E-6;
1,93257678415615E-6;
2,71077622520394E-6;
3,19503176270696E-6;
2,69443894079082E-6;
1,03419741292191E-6;
-1,22700593400789E-6;
-3,11452754123625E-6;
-3,86258933478538E-6;
-3,38313206562631E-6;
-2,24428667667435E-6;
-1,20677339836065E-6;
-6,94171455725894E-7;
-5,91784031366631E-7;
-4,80903790243283E-7;
-6,63880503432563E-8;
5,72760843733471E-7;
1,09883023539939E-6;
1,26194171755662E-6;
1,15156552428166E-6;
1,12216570750685E-6;
1,45385190096871E-6;
2,04572312477073E-6;
2,42149421592172E-6;
2,06972027963359E-6;
8,59310614765102E-7;
-8,0171698194331E-7;
-2,2002697433755E-6;
-2,77540971700598E-6;
-2,45940863848545E-6;
-1,66085813769864E-6;
-9,27986717758259E-7;
-5,66319120412165E-7;
-4,94917382623277E-7;
-4,15382215702259E-7;
-1,17648999992679E-7;
3,42298436980484E-7;
7,25378055929091E-7;
8,54799464650021E-7;
7,92621099331386E-7;
7,86486333204639E-7;
1,03184068240406E-6;
1,45900289321738E-6;
1,7383367086031E-6;
1,51606508230082E-6;
6,99663568789305E-7;
-4,34824140623341E-7;
-1,40358391975622E-6;
-1,8253289570782E-6;
-1,65041899279236E-6;
-1,14805306745275E-6;
-6,80668825592974E-7;
-4,50524593026662E-7;
-4,06076022126086E-7;
-3,53937169942997E-7;
-1,58308101514283E-7;
1,44894465636644E-7;
4,02606192086055E-7;
5,01805173163036E-7;
4,80732369082484E-7;
4,94021510137947E-7;
6,63404347836091E-7;
9,46322047944431E-7;
1,14067259918205E-6;
1,02984546824008E-6;
5,55016727608922E-7;
-1,22189560975295E-7;
-7,1689367403635E-7;
-1,00378300669114E-6;
-9,49178622173253E-7;
-7,01772731740849E-7;
-4,6324903611143E-7;
-3,46470685476791E-7;
-3,2520629653844E-7;
-2,96755346199477E-7;
-1,89463721167647E-7;
-2,19452554317811E-8;
1,26961846919899E-7;
1,99272783311283E-7;
2,12761447089345E-7;
2,41972475813255E-7;
3,45146863892479E-7;
5,03021493948864E-7;
6,23193793333866E-7;
6,07070271249928E-7;
4,24970464928307E-7;
1,40456554620322E-7;
-1,32249827779561E-7;
-3,01740782146291E-7;
-3,48288270012755E-7;
-3,17631010824197E-7;
-2,73990602489766E-7;
-2,53732038272583E-7;
-2,52155318282678E-7;
-2,43947739808613E-7;
-2,12191184764279E-7;
-1,60761952041927E-7;
-1,05224163382429E-7;
-5,66255448283406E-8;
-1,45555490847993E-8;
2,74111135807181E-8;
7,35001835551688E-8;
1,24207961449115E-7;
1,80312341979771E-7;
2,43500186246622E-7;
3,09002561339044E-7;
3,57432532267458E-7;
3,58490819284291E-7;
2,90092980311574E-7;
1,5989841661643E-7;
8,93302730950381E-9;
-1,1104334251439E-7;
-1,71804094176938E-7;
-1,86702431370389E-7;
-1,95553518866154E-7;
-2,27518441221302E-7;
-2,7409905755291E-7;
-2,97660356585752E-7;
-2,69772302997375E-7;
-2,04541142180588E-7;
-1,52656053021869E-7;
-1,55190959401704E-7;
-1,95138865948956E-7;
-1,93716631605407E-7;
-6,52532323747869E-8;
2,06490314400393E-7;
5,33029980407376E-7;
7,63516382439175E-7;
7,81099758856869E-7;
5,83120651579419E-7;
2,82566048029143E-7;
2,75149744334137E-8;
-1,00115685099976E-7;
-1,28558174923945E-7;
-1,51555382003349E-7;
-2,36431560982571E-7;
-3,64466205090188E-7;
-4,54032146179813E-7;
-4,44042184193826E-7;
-3,6052169456576E-7;
-3,01234643581581E-7;
-3,44607604907971E-7;
-4,60077483860462E-7;
-5,04689498675089E-7;
-3,23646783542618E-7;
1,16730421779977E-7;
6,71453264547089E-7;
1,09092950286743E-6;
1,18059582076396E-6;
9,29086853229231E-7;
5,07917265425382E-7;
1,43637808553226E-7;
-3,80495150464043E-8;
-7,73853507508489E-8;
-1,1188317509654E-7;
-2,39852801729391E-7;
-4,34302654806316E-7;
-5,77955524093465E-7;
-5,83244280421083E-7;
-4,85774097724367E-7;
-4,21297835963124E-7;
-4,98395697466771E-7;
-6,75624648953654E-7;
-7,58362784741382E-7;
-5,36123950938823E-7;
3,89655634215951E-8;
7,7677229670793E-7;
1,34864618961008E-6;
1,49770718729727E-6;
1,20536721735484E-6;
6,89577154929324E-7;
2,3927977101926E-7;
1,50432716338998E-8;
-3,2808810460987E-8;
-7,64270661395654E-8;
-2,38644123365709E-7;
-4,8595341705675E-7;
-6,72928827972225E-7;
-6,91079143832369E-7;
-5,83488762963126E-7;
-5,15744189537941E-7;
-6,20120819593214E-7;
-8,46688383614908E-7;
-9,60375193270309E-7;
-7,07061097723305E-7;
-2,76026780579541E-8;
8,52880469182985E-7;
1,54430587219264E-6;
1,74126801668866E-6;
1,41930252891487E-6;
8,32012575614285E-7;
3,1637002288139E-7;
5,98300375284523E-8;
5,57653301755677E-9;
-4,5034493682622E-8;
-2,33599364735369E-7;
-5,2165186146365E-7;
-7,42307334926492E-7;
-7,71103258157688E-7;
-6,56735334457322E-7;
-5,87372879464961E-7;
-7,13232199364873E-7;
-9,78019378621355E-7;
-1,1161903256542E-6;
-8,40716757348369E-7;
-8,37994156971689E-8;
9,03467133384951E-7;
1,68520665131268E-6;
1,91974056816453E-6;
1,57794758889639E-6;
9,39532900669235E-7;
3,76786808707289E-7;
9,69877346311766E-8;
3,8192316297065E-8;
-1,7529025306113E-8;
-2,25442264468377E-7;
-5,43503726000094E-7;
-7,8927091826724E-7;
-8,26694454734226E-7;
-7,08442282944341E-7;
-6,38859450871996E-7;
-7,81031037175068E-7;
-1,07416749870215E-6;
-1,23104490318078E-6;
-9,41187664977678E-7;
-1,30453460961957E-7;
9,3199993947312E-7;
1,77825703348787E-6;
2,04115271796579E-6;
1,68800125814357E-6;
1,01624786235313E-6;
4,22343722903224E-7;
1,27187726962973E-7;
6,54741941689808E-8;
6,29291632713384E-9;
-2,1482754181965E-7;
-5,53470931428461E-7;
-8,16810554296607E-7;
-8,61041700899643E-7;
-7,41371448054863E-7;
-6,72732233677964E-7;
-8,26641436179405E-7;
-1,13944517159211E-6;
-1,30991544848828E-6;
-1,01238054714962E-6;
-1,68394884647781E-7;
9,41699046882117E-7;
1,82993126041605E-6;
2,11305111250782E-6;
1,75577672977502E-6;
1,06604046428425E-6;
4,54769939878517E-7;
1,51091955862597E-7;
8,78612806146179E-8;
2,66519913264028E-8;
-2,02342737462586E-7;
-5,53375747311761E-7;
-8,27712949893767E-7;
-8,77115491175794E-7;
-7,58106253514914E-7;
-6,91367461632047E-7;
-8,53008137728691E-7;
-1,17791470748092E-6;
-1,35748088266674E-6;
-1,0579846534362E-6;
-1,9844351788144E-7;
9,35539236533431E-7;
1,84625506847201E-6;
2,14247363773849E-6;
1,78717048718625E-6;
1,09255184929423E-6;
4,75703417361551E-7;
1,69343721575911E-7;
1,05788963421296E-7;
4,37796850963939E-8;
-1,88509081039169E-7;
-5,44886896748478E-7;
-8,24549585613997E-7;
-8,77676840749647E-7;
-7,6104942354846E-7;
-6,96970103692047E-7;
-8,62866345054881E-7;
-1,19335895953873E-6;
-1,37811735823805E-6;
-1,08146013753886E-6;
-2,21395928212659E-7;
9,16240574379386E-7;
1,83278130013369E-6;
2,13592304794427E-6;
1,78764821396482E-6;
1,09916730880651E-6;
4,8668020362627E-7;
1,82563812943849E-7;
1,19686571672899E-7;
5,79189201658005E-8;
-1,73780182843191E-7;
-5,29525564001235E-7;
-8,09681300175184E-7;
-8,65254898319981E-7;
-7,52406274248467E-7;
-6,91578798309479E-7;
-8,58750129615732E-7;
-1,18927824908614E-6;
-1,37587003888721E-6;
-1,08601955256555E-6;
-2,38019968258491E-7;
8,86272611111165E-7;
1,79459321333832E-6;
2,09936595720379E-6;
1,76222918123828E-6;
1,08901097035261E-6;
4,89133514965269E-7;
1,9134550761981E-7;
1,29972322391333E-7;
6,93119755814016E-8;
-1,58551114494528E-7;
-5,08663698149166E-7;
-7,85253923425595E-7;
-8,4215967175124E-7;
-7,34196114908464E-7;
-6,77060365154421E-7;
-8,42982315202814E-7;
-1,16888692291612E-6;
-1,3544615757082E-6;
-1,0746280287826E-6;
-2,49049343535233E-7;
8,47856262194018E-7;
1,73630226765489E-6;
2,03823338017954E-6;
1,71549249811143E-6;
1,0649357165008E-6;
4,84381653401025E-7;
1,9624980803526E-7;
1,37049271490733E-7;
7,82037995321713E-8;
-1,43159009430035E-7;
-4,8353082410315E-7;
-7,53201560265572E-7;
-8,10478389176803E-7;
-7,08245882367887E-7;
-6,55105673130225E-7;
-8,1767476554839E-7;
-1,13511259958646E-6;
-1,31728348248336E-6;
-1,04999874265662E-6;
-2,55185658990427E-7;
0,00933423701590282;
0,0226313918839511;
0,0163746946982985;
0,00943474775520032;
0,0121704213238611;
0,00702664097230737;
0,00563501493031728;
0,00458285135177846;
0,000840584929569408;
0,00103226448354622;
-0,0011908947117891;
-0,00199266790801212;
-0,00280790901786778;
-0,0045543575181863;
-0,00488795224171955;
-0,00585668544618822;
-0,00594230787339412;
-0,00618375572866888;
-0,0069945912658647;
-0,00792096062847332;
-0,00934813462799265;
-0,0102413131433348;
-0,0105166380713589;
-0,0101069489389266;
-0,00920667951381294;
-0,00842983879163029;
-0,00783023767739884;
-0,00745732840713524;
-0,00704796382613882;
-0,00641879004349105;
-0,00567587830902791;
-0,00495916020724962;
-0,00445381004792678;
-0,00409140692622724;
-0,00366442070372802;
-0,00302731331406764;
-0,00222927026349458;
-0,00157403665922737;
-0,00136204710353308;
-0,00166550092420929;
-0,00222502484740371;
-0,00258558166415955;
-0,00240500849298376;
-0,00165569803826318;
-0,000623800147081167;
0,00031710818311503;
0,000963856296925794;
0,00137601162994029;
0,00176522402162981;
0,00227836332460974;
0,00287331909234561;
0,00337758145352255;
0,00366426067585269;
0,00378382610434443;
0,00392418854713207;
0,00423274545212422;
0,00465312456896232;
0,00492798921352589;
0,00478447599261474;
0,00416180534747425;
0,00329904003852777;
0,002602583487931;
0,00238568511928848;
0,00267272638291754;
0,00321004816037413;
0,00366581151746242;
0,00385895533258426;
0,0038460852786392;
0,00381739854463421;
0,00390610393910051;
0,00407602917143365;
0,00417403954615217;
0,00408851590744415;
0,00386538126506072;
0,00367342970882354;
0,00364486308438245;
0,00372996872862761;
0,00370018863011618;
0,00331308414461433;
0,00251531160600633;
0,00152015491858792;
0,000689362170494023;
0,000301439408471504;
0,000377788788183165;
0,000692852771224321;
0,000951823603839958;
0,00099393501638998;
0,000869320485631091;
0,000746398053848583;
0,00074286376447972;
0,000826208460348111;
0,000860382506565465;
0,000746193748379886;
0,000523862978437268;
0,00034216013091573;
0,000317310780639914;
0,000404703801863067;
0,000401868859155068;
9,43134630936872E-5;
-0,000565414795382982;
-0,0107230810882246;
-0,0246898370284521;
-0,0187049594691244;
-0,0116211687932755;
-0,0139964827655429;
-0,00853555792849474;
-0,00701175011463772;
-0,00596889073568098;
-0,00223024777793833;
-0,00231733189298144;
8,94709169035323E-5;
0,00103415175470028;
0,00186421202502502;
0,00353213270749608;
0,00382348490949736;
0,00488730440174454;
0,00516578156556631;
0,00552054254304813;
0,00617760710421243;
0,00664154982056287;
0,00746113002800499;
0,00787865643388323;
0,00802285814999687;
0,00784161805870186;
0,00735531785337232;
0,00695139374109954;
0,00656007951379867;
0,00626855801180248;
0,00594154060649143;
0,00548460905446197;
0,00497828692379387;
0,00445835956733095;
0,00403415622957041;
0,00366740732310176;
0,00326295240098761;
0,00276272527621592;
0,00218155679592018;
0,00166971460359477;
0,00136553989553643;
0,00130555006277584;
0,00137190010973512;
0,00134899947102125;
0,001078141091572;
0,000544570132243566;
-0,000115703526239259;
-0,000724272898446142;
-0,00118419566758572;
-0,00152232971824078;
-0,0018401583744073;
-0,00220798360731428;
-0,0026055518092384;
-0,00294963254157046;
-0,00317820010538412;
-0,00331561761418242;
-0,00345328500855535;
-0,00366355337019884;
-0,00391936793188274;
-0,00409453622918243;
-0,00405449695071853;
-0,00376858072734784;
-0,00335464185690394;
-0,00301453062950984;
-0,00290499643477907;
-0,00303951944049563;
-0,00329233997761009;
-0,0034976439972163;
-0,00356452055838271;
-0,00352153675647462;
-0,00346513340479373;
-0,00346342999883635;
-0,00349873487445451;
-0,0034934975354459;
-0,00339088443462957;
-0,00321453759038991;
-0,00305148125549616;
-0,00297043501661586;
-0,0029464478866863;
-0,00286160663293811;
-0,00258995830367048;
-0,00210327524372458;
-0,00151250519921808;
-0,00100712329944315;
-0,000734078435969342;
-0,00070577979181339;
-0,000804222154597787;
-0,000873946999003562;
-0,000829700213658768;
-0,000698017926368649;
-0,000568780215276151;
-0,000505268708390965;
-0,000490485240202784;
-0,00045152964268864;
-0,000334887510797432;
-0,000162142087713369;
-1,39323714815969E-5;
4,62861967474004E-5;
4,24243047663382E-5;
8,49606836172343E-5;
0,000291745918462832;
0,000689560830713771;
0,00117569927149381;
0,00157455357164614;
0,0017502382904422;
0,00169201670072203;
0,00151027896895737;
0,0013500616451208;
0,00129109163873649;
0,00130930660793427;
0,00132192473533207;
0,00127088906138451;
0,00117256207892038;
0,00109503873134301;
0,00108837545777163;
0,00113306395062927;
0,00115497056197313;
0,00109590596719535;
0,000978465565342796;
0,000905173572175296;
0,000985228463441992;
0,00124361759733198;
0,00158578748396317;
0,00185000961422158;
0,00191132068764921;
0,00176020743864046;
0,00149873991783626;
0,00126077195474727;
0,00111987952774894;
0,00105403510904515;
0,000987197335403265;
0,000866110889149269;
0,000705949647742776;
0,000569378361294725;
0,000502411032964811;
0,000487133085279907;
0,000455500828895676;
0,000354145874942569;
0,000203810592107866;
9,84616280632664E-5;
0,000138071335991238;
0,000345370484506018;
0,000633609584001247;
0,000854631907580953;
0,000894042656943763;
0,000743117964718687;
0,000495130679349114;
0,00027230156715117;
0,000141676978531467;
8,29507722788072E-5;
2,65363310046239E-5;
-7,63064073976937E-5;
-0,000211876772359102;
-0,000323202325634607;
-0,000368540101576298;
-0,000364416355023921;
-0,000372983271863746;
-0,000442978104009986;
-0,000555669307066001;
-0,000625752627168455;
-0,000562543882279587;
-0,000345631222301402;
-5,40650985554081E-5;
0,000177421956585137;
0,000244865560620267;
0,000140269897007044;
-5,18477559611425E-5;
-0,000220796131764337;
-0,000305971239882967;
-0,000325938192971421;
-0,000343857934442933;
-0,000403961214354764;
-0,000493944104893382;
-0,000562377187714219;
-0,000571639555626478;
-0,000536790804413624;
-0,000514081058116043;
-0,000547589434720085;
-0,000620455396597504;
-0,00065576779890536;
-0,000571828161680724;
-0,000350353713491217;
-6,26976415118699E-5;
0,000169700852166498;
0,000253217375265972;
0,000180686671921768;
2,81837668551343E-5;
-0,000104737343173945;
-0,000163622865900129;
-0,000165191827007336;
-0,000166194458612232;
-0,00020633139186336;
-0,000274531657366057;
-0,000324635694041154;
-0,000322903666952163;
-0,000282838196658473;
-0,000254827919730994;
-0,000278312308247554;
-0,000338141112814009;
-0,000365442684588857;
-0,000287123883293191;
-8,68528361746784E-5;
0,000171582629679764;
0,00037970919402437;
0,000453985487439492;
0,000388112630942748;
0,000250063192250547;
0,000128692174525234;
7,25796445693606E-5;
6,68519492046899E-5;
6,09983831785327E-5;
1,97309532738173E-5;
-4,70301067364354E-5;
-9,81661603459861E-5;
-0,000103639332070731;
-7,54230425110794E-5;
-5,82454084989835E-5;
-8,70719845777352E-5;
-0,000148387630107358;
-0,000181033026649228;
-0,000120163445582177;
4,86933686068022E-5;
0,000269009900677609;
0,000444733567194372;
0,000501963518085781;
0,000435204811653801;
0,00030465050752797;
0,000188900615174884;
0,000130901652493522;
0,0001175239534871;
0,000104191425356464;
5,97980840233247E-5;
0,00932656727358597;
0,0225702058758662;
0,0163010428405446;
0,00937917104080298;
0,0121238041328451;
0,00694873986336314;
0,00549729199262029;
0,00441061744511927;
0,00071634296428921;
0,00105135103084431;
-0,000982847297227647;
-0,00163450790183768;
-0,00240341766223034;
-0,00421204387533962;
-0,00466334993062694;
-0,00573632179295121;
-0,00587518857413789;
-0,00613067265108727;
-0,00695562929310837;
-0,00792346411178843;
-0,00941150902458962;
-0,0103528461864965;
-0,0106401775738326;
-0,0102155306744958;
-0,00930795218603571;
-0,00855860650690954;
-0,00801111915905342;
-0,00766806524764813;
-0,00721654763198554;
-0,00646208809333443;
-0,0148874443005875;
-0,0273354044223802;
-0,0205313772241139;
-0,0132816588072477;
-0,0156913252129758;
-0,00999955472535576;
-0,00785444708311761;
-0,00615737168437783;
-0,00221346297405195;
-0,00274271144342408;
-0,00113003148278753;
-0,000728649791780917;
0,000258835868515094;
0,00276977183203336;
0,00414385658829509;
0,00603190832323129;
0,00672133142514322;
0,0073512722797704;
0,00859004801589581;
0,0101402871716126;
0,0123076774117643;
0,0138213565883446;
0,0144218195170818;
0,0140888691119314;
0,0132445834093169;
0,0127020166891279;
0,0124866089901417;
0,0123816007762273;
0,0118216201794476;
0,0105422232721927;
0,00889449660253904;
0,00744870162240327;
0,00672068614575983;
0,00665957342554286;
0,00677848811895857;
0,00657992415649306;
0,0059395208377955;
0,00525223105978748;
0,00504535201769656;
0,00553244387742411;
0,0157195326610755;
0,0295739041854127;
0,0230842714514799;
0,0151366511782482;
0,0165782715020759;
0,0104031958231623;
0,00841995199844686;
0,00692025015757894;
0,0023958307968842;
0,00125354777390326;
-0,00259497493336606;
-0,00475922769209994;
-0,00625410599449269;
-0,00803212564110091;
-0,00818411716689134;
-0,00921704920152072;
-0,00971081062158988;
-0,0103680962272258;
-0,0111307394611674;
-0,0113596712502517;
-0,0117381851008199;
-0,011818658701721;
-0,01196388578542;
-0,0120932502117533;
-0,0119708664184553;
-0,0117265515851008;
-0,01125815757779;
-0,0108804557222987;
-0,0107554485600139;
-0,0108945289027001;
-0,0111757341998656;
-0,0112509539647001;
-0,0109370956594577;
-0,0101984693344467;
-0,00921349229510987;
-0,00824280002112991;
-0,00742266584468582;
-0,0067610240570024;
-0,00614342161103307;
-0,00548049661880611;
-0,00477713348813552;
-0,00409673696139821;
-0,00349118041541706;
-0,00292138444099099;
-0,00229524834571678;
-0,00156078942597519;
-0,000784114820602786;
-0,000138504186633174;
0,000214735028116934;
0,000251670074059199;
0,000129881789384344;
0,000104005828036581;
0,000369094767273577;
0,000946637371579132;
0,00168708405447349;
0,0023834483331234;
0,0029043560830924;
0,00325186685272486;
0,00351586730926202;
0,00377653663882406;
0,0040421579841225;
0,00426703557544609;
0,00442139781253445;
0,00454040504607706;
0,00470070913760747;
0,00494182101046065;
0,00520290728080787;
0,00533917722283117;
0,00521775834409349;
0,00482431416828696;
0,00429641341344987;
0,00385151723501247;
0,00365706005959306;
0,00373401849410808;
0,00395960631208634;
0,00416045659847629;
0,00422333040123355;
0,00414504921057573;
0,00399719906513078;
0,00384822606468058;
0,00371205634068008;
0,00356041546719248;
0,00337640163578896;
0,00319135943137859;
0,00306499684965638;
0,003022934913497;
0,00300859939466249;
0,00289972865984688;
0,00258782971462472;
0,00206434907802518;
0,00144595042132797;
0,00091413085065837;
0,000608445563804274;
0,000547520956115679;
0,000630764956089267;
0,000713693828408383;
0,000698258658540054;
0,000575189771793855;
0,000398242690130407;
0,000223497372817909;
-0,00926543677278723;
-0,0227125884517171;
-0,0166089764172228;
-0,00979868480171466;
-0,0125967545923713;
-0,00743511948717652;
-0,00599830927576063;
-0,00497620730012656;
-0,00142676752869326;
-0,00197850735253653;
-0,000185760675211448;
0,000263628387664569;
0,000918349513188857;
0,00271205700780128;
0,00321957087422951;
0,00437021761241475;
0,00456166115425997;
0,00481870847567203;
0,0055931583850186;
0,00647608589803512;
0,00787191007886098;
0,00874249459705804;
0,00900481748274643;
0,00861399385474533;
0,00779430092601571;
0,00716187051554115;
0,0067214849576365;
0,00643832653753308;
0,00598106478077013;
0,00516584947208837;
0,00417801339241437;
0,00327624040933899;
0,00273666203285298;
0,00250474954457503;
0,00230995238626104;
0,00191199854695291;
0,00128931326677312;
0,000727884323655971;
0,000553055588079365;
0,000872386278554092;
0,00144784133681949;
0,00183140054161115;
0,00168922168450383;
0,0010125870507682;
0,000105829558680973;
-0,000664013925986768;
-0,00113837992511246;
-0,00144412093605478;
-0,00184346436416307;
-0,00248002114616438;
-0,00324790652987189;
-0,00388198677120398;
-0,00418450988953291;
-0,00419359209155171;
-0,00414376286604045;
-0,0042554246539418;
-0,00453047798318741;
-0,00473183599020302;
-0,00457297731499255;
-0,00396603985492012;
-0,0031269963385207;
-0,00244645455147124;
-0,00222299848110835;
-0,00246504484562963;
-0,00291061370828966;
-0,00324142471656979;
-0,00331655988285444;
-0,00324461792764294;
-0,00325081740706484;
-0,00346193895859219;
-0,00379186656159114;
-0,0040180163854654;
-0,00397573522962476;
-0,00370005719678552;
-0,00339199939150045;
-0,00323754126322074;
-0,00323397528023027;
-0,00317482879118468;
-0,00281367793334119;
-0,00207748650700642;
-0,0011553931283374;
-0,000386311118354235;
-2,90660603492231E-5;
-9,18644956987979E-5;
-0,000349303272386084;
-0,000525921914323345;
-0,000496897384042569;
-0,00035092417791812;
-0,000278034165229101;
-0,00038705674998417;
-0,000607964008470239;
-0,000755792461058306;
-0,000694144001970341;
-0,000453872851414954;
-0,000203591980781783;
-9,65636183284384E-5;
-0,000125198776218698;
-0,000110458780779195;
0,000157848137382547;
0,000740264309024491;
0,00147367256483915;
0,00206807370325034;
0,00230237647879447;
0,00216924107862152;
0,00186074711399223;
0,00161298816709054;
0,00153591342518392;
0,00155912740665221;
0,00152507627492789;
0,00134176261299545;
0,00106489503255145;
0,000845377066004604;
0,000794036513858634;
0,00088396293966166;
0,000976064341783061;
0,00094659296834563;
0,000806987589787006;
0,000710570059645948;
0,000833964195583234;
0,00122614797926307;
0,0017478816792381;
0,00215401174513453;
0,0022579092346035;
0,00205271891925429;
0,00169948082457613;
0,00139753727300724;
0,00124240162261968;
0,00117960983136329;
0,0010806606290712;
0,000868555602967503;
0,000585780957357275;
0,000352108622660876;
0,00025491551296911;
0,000270536662237871;
0,000286161003251212;
0,000204100213850471;
3,84212816811169E-5;
-8,17197759502084E-5;
-1,07663585992558E-5;
0,000289465488531957;
0,000701341226019704;
0,00102040700288985;
0,00109120678398054;
0,000907027899393487;
0,000600249099901725;
0,000336230953442657;
0,000196703702234674;
0,000141028288726787;
6,66018889326798E-5;
-9,0167170349781E-5;
-0,000298723444969061;
-0,000467322663179688;
-0,000529704702346836;
-0,000506682458473179;
-0,00048762397063553;
-0,00054715800465508;
-0,000669368426779654;
-0,00074732616192606;
-0,000663700619704196;
-0,000389995936294229;
-2,41447792637987E-5;
0,000266356562732619;
0,000354341959727283;
0,000233276181941089;
9,60450886386714E-6;
-0,000182164880805807;
-0,00027302323214986;
-0,000291435752224316;
-0,000316813600305354;
-0,00040056537054848;
-0,000522516074914054;
-0,000615657014819135;
-0,000632306055856527;
-0,000590524100039018;
-0,000558689288468888;
-0,000590963413420823;
-0,00067001851547641;
-0,000708978151957839;
-0,00061573386987841;
-0,000370206993709701;
-5,2312938795335E-5;
0,000203925342639661;
0,000296981054100831;
0,000220683083851617;
5,83487338525301E-5;
-8,31670541709657E-5;
-0,000146384299659251;
-0,000149044905521131;
-0,000149873480792097;
-0,000189211259580503;
-0,000255742593872688;
-0,000304019421115945;
-0,000302493883538432;
-0,000266559463689388;
-0,000245932422841727;
-0,000276754256705778;
-0,00034066166640879;
-0,000368720524134355;
-0,000291174634111061;
-9,51950910573462E-5;
0,00015562359456115;
0,000357299268360828;
0,000431317287707505;
0,000371978066093496;
0,000242103833713807;
0,000123917689475052;
6,44736531715174E-5;
5,53167335805447E-5;
5,59419225392377E-5;
3,5907421560785E-5;
-1,00598789517419E-6;
-2,80213025978772E-5;
-2,75285582522791E-5;
-1,24476459523611E-5;
-1,61371598692898E-5;
-5,91132001350345E-5;
-0,000122394085835743;
-0,000153049582768301;
-0,000101038319487194;
4,0212823424798E-5;
0,000221687198897548;
0,000366050569051725;
0,000415185615578669;
0,000363866488865245;
0,000256841318234269;
0,000154508632130774;
9,44938643733188E-5;
7,62179273451418E-5;
7,4995386336894E-5;
6,9094684388596E-5;
5,59140860810824E-5;
4,6185910208508E-5;
4,55627836178921E-5;
4,33439901231608E-5;
2,03102889831183E-5;
-3,07091095931209E-5;
-9,05181405603953E-5;
-0,000120379413513711;
-8,75136636700869E-5;
9,28195280716171E-6;
0,000133865363104352;
0,000232295363820469;
0,000264342774016733;
0,000225228662793127;
0,000143896145414657;
6,15683887341332E-5;
7,39960785113363E-6;
-1,26195825823557E-5;
-9,60105154512177E-6;
2,30724957629789E-6;
1,51755253769906E-5;
2,61219788334033E-5;
3,06750469536967E-5;
2,01127027560597E-5;
-1,26994755003701E-5;
-6,36795881837063E-5;
-0,000113747645425903;
-0,000136625532417493;
-0,000114479728969029;
-5,06438423709236E-5;
3,00191279713528E-5;
9,39163146318141E-5;
0,000116367441911998;
9,30327064375069E-5;
3,92000369709753E-5;
-2,05656657906232E-5;
-6,46351291394638E-5;
-8,16137910295935E-5;
-7,10932720576455E-5;
-4,0667149936022E-5;
-2,60967469963794E-6;
2,88387324289154E-5;
4,07872282880884E-5;
2,62864732741145E-5;
-1,15839657398824E-5;
-5,93804269672835E-5;
-9,8390861691117E-5;
-0,000113142681791539;
-9,85712765320746E-5;
-6,17620586693947E-5;
-1,77770622129646E-5;
1,73164911201431E-5;
3,22241391286246E-5;
2,30516848021066E-5;
-6,55255983504838E-6;
-4,63166062219399E-5;
-8,12189218159279E-5;
-9,54998216382104E-5;
-7,91018512846887E-5;
-3,4007119596586E-5;
2,40645155525538E-5;
7,15782066893907E-5;
8,87838093151672E-5;
7,03167482996308E-5;
2,77660733984342E-5;
-1,77727712581432E-5;
-4,8153951905506E-5;
-5,71635844022701E-5;
-5,04938805272176E-5;
-3,82666478964412E-5;
-2,71183777607088E-5;
-1,82039279243721E-5;
-1,14337844304686E-5;
-1,02557161715066E-5;
-2,08043624343261E-5;
-4,49136382307206E-5;
-7,33069962733032E-5;
-8,6793740528932E-5;
-6,73753143275243E-5;
-1,22954326645506E-5;
6,00797095359716E-5;
0,000118779893145333;
0,0001385971400712;
0,000115567524338022;
6,82353440618473E-5;
2,38009307346748E-5;
-3,19138328211876E-7;
-5,74661208838361E-6;
-7,09658736443172E-6;
-1,68905827408818E-5;
-3,46189748594714E-5;
-4,89337481729509E-5;
-5,02080625282765E-5;
-4,14553279639457E-5;
-3,69037525394213E-5;
-4,84937152615933E-5;
-7,18948474353504E-5;
-8,53236443766951E-5;
-6,4391774607903E-5;
-2,41061969159312E-6;
8,03081511388461E-5;
0,000147016571648333;
0,000168295181181442;
0,000141400792806556;
9,04258788938832E-5;
4,728702496886E-5;
2,85401702475643E-5;
2,60272068651554E-5;
1,78693418813128E-5;
-1,02917406114026E-5;
-5,19791264882277E-5;
-8,55439787360069E-5;
-9,35099231569814E-5;
-7,84761496478811E-5;
-6,12366465648513E-5;
-6,20214885294667E-5;
-8,0709194759068E-5;
-9,36654458956639E-5;
-7,15059301482203E-5;
-4,34392682870923E-6;
8,61760203766952E-5;
0,000158997649902171;
0,000181593032819409;
0,000152270588786003;
9,9412106501512E-5;
5,84190056218953E-5;
4,48882976413676E-5;
4,530708917245E-5;
3,20265574229091E-5;
-1,06506059709559E-5;
-7,1353076771656E-5;
-0,000120123230056312;
-0,00013316120240691;
-0,000112674339111534;
-8,46478041673527E-5;
-7,59596764180796E-5;
-9,0018179444671E-5;
-0,00010198497725864;
-7,87178114702958E-5;
-7,79177555846423E-6;
8,83489591567501E-5;
0,000165633753382331;
0,000189396416321564;
0,000158842265466812;
0,000105528544830765;
6,72620398978891E-5;
5,86140106575578E-5;
6,17849153566943E-5;
4,46914914878627E-5;
-9,26454931257566E-6;
-8,4784456802719E-5;
-0,000145387777878974;
-0,000162318522637883;
-0,000137415104322858;
-0,000100626506258916;
-8,40066387983792E-5;
-9,38720525485518E-5;
-0,000104737641593788;
-8,07925898623709E-5;
-7,66180708318363E-6;
9,18700436024587E-5;
0,00017184614936084;
0,000196306862481991;
0,000165213694934416;
0,000112322571395165;
7,69084086642346E-5;
7,24765389452919E-5;
7,78978127218106E-5;
5,78377034883068E-5;
-4,82224116551974E-6;
0,00924171295122461;
0,0224682855992423;
0,0161912418673724;
0,00927972781074058;
0,0120595010062603;
0,00693918269895724;
0,00554150513386923;
0,00447949362186236;
0,000761331062929868;
0,00102702729039795;
-0,00109498008254543;
-0,00181551931051883;
-0,00260610695038525;
-0,00438384248649644;
-0,00476935967459208;
-0,00577055405199843;
-0,00585681356152986;
-0,00609096158430122;
-0,00692440934910262;
-0,00792069036312043;
-0,00944416919016911;
-0,010414657293801;
-0,0107127844924149;
-0,0102725289648428;
-0,00932335242348219;
-0,00851826745198426;
-0,00792179145887104;
-0,00755789225093315;
-0,00712478845705958;
-0,00642220062365194;
-0,00557860252708798;
-0,00478105751410229;
-0,0042513466735882;
-0,00391990022416974;
-0,00354327435342698;
-0,00293586487460662;
-0,00213557627283821;
-0,00147176079261709;
-0,0012840000926522;
-0,00166179526919848;
-0,00232326409731611;
-0,00276569734005312;
-0,00260970840655732;
-0,00182853866632463;
-0,000744457547199707;
0,000228259235645117;
0,000874354294563813;
0,00127831393571599;
0,00169060609583015;
0,00227559229392621;
0,00296940041025148;
0,0035530038441995;
0,00386347792823188;
0,00395284496912559;
0,0040449166115484;
0,00432655197124094;
0,00475159322339208;
0,00503602728589902;
0,00486731964879159;
0,00416770497154844;
0,00319976673592023;
0,00241880307023679;
0,00217618698496135;
0,00249571338301446;
0,00308721680972156;
0,00357732954807842;
0,00377192059627956;
0,00375167859455512;
0,00374521212385205;
0,00390344567450249;
0,00416929905551939;
0,00434430785593376;
0,00428181393519828;
0,00402960434319227;
0,00379184152392422;
0,00373911296925041;
0,00383088187231951;
0,00381140474056903;
0,00339870356190818;
0,00252295367055726;
0,00142146257128895;
0,000505189997338176;
9,09726350427347E-5;
0,000199860688999701;
0,000569998982227675;
0,000864957204283191;
0,000910263002869463;
0,000779082945884179;
0,000677351231110874;
0,00074041376851317;
0,000915873012956549;
0,00102399844651425;
0,000931896016225364;
0,00068187989220046;
0,000457128993704906;
0,000410799418747878;
0,000506455730455944;
0,000514409353352779;
0,000181307575979687;
-0,00055612698118935;
-0,0108195658754619;
-0,024871394872497;
-0,0189129364267598;
-0,0117970551594917;
-0,0141173625940333;
-0,00861961381775203;
-0,00709120704373559;
-0,00605415421849278;
-0,00229549849919621;
-0,00231940843713472;
0,000174984871856884;
0,00119000332058005;
0,00204105014631192;
0,00368285780577014;
0,00393410385285617;
0,00497900314713177;
0,00526696803522643;
0,0056327728158994;
0,00626470482175167;
0,00665228722508268;
0,00736807993457767;
0,00770207961039228;
0,00782011026192104;
0,00767009219187143;
0,00723792120196664;
0,00687096852023689;
0,00648534535716871;
0,00618872097570372;
0,00588042720534317;
0,00548288170470201;
0,00505909304679935;
0,00460546370839364;
0,00420102884252517;
0,00380986693306045;
0,00336835323296402;
0,00285162642442001;
0,00228083804873963;
0,00178009904573005;
0,00145150539500521;
0,00131738423766482;
0,00128309869683216;
0,00117915463322196;
0,000882687827652499;
0,00037913751178042;
-0,000228542681383415;
-0,000800565624342348;
-0,00125397608671572;
-0,0015965591675749;
-0,00189702110102557;
-0,00220949327649286;
-0,00252995238305901;
-0,0028120676562791;
-0,00302216148737937;
-0,00318220482050303;
-0,00335383423268632;
-0,00357832816936873;
-0,00382315570115648;
-0,00398732086132162;
-0,00397074075751487;
-0,00375601388651227;
-0,00343862067651277;
-0,00317631353405599;
-0,00309156200743279;
-0,00319751927891486;
-0,0033998039466051;
-0,00356945312121793;
-0,00362922867961324;
-0,00359008546867644;
-0,00351770410114542;
-0,00346482267860702;
-0,00342866824125037;
-0,00336597784785623;
-0,00324622906238518;
-0,00309067182578792;
-0,00295848227526349;
-0,00288954107413017;
-0,00285420605863029;
-0,00275859233518747;
-0,00250924986188268;
-0,00209025815050331;
-0,00159121538713224;
-0,00115980921805763;
-0,000910509744935509;
-0,000855288544334401;
-0,000905657401104002;
-0,000940994967257041;
-0,000889260393411965;
-0,000760856102204546;
-0,000617035027768486;
-0,000506579120741468;
-0,000426093980679934;
-0,000334284685835659;
-0,000201863968088267;
-4,80597083424967E-5;
7,23302487699976E-5;
0,000122402988342286;
0,000130036435765496;
0,000183006308051174;
0,000368782154772726;
0,000702816884347596;
0,00110258559925141;
0,00143173003426924;
0,00158486888708541;
0,00155179292721656;
0,00141536280252066;
0,00128796804922687;
0,00123669701838154;
0,00125214896871187;
0,001277969709474;
0,00126965531146567;
0,00123126303445956;
0,00120198488506675;
0,00120974362350352;
0,00123731980083293;
0,0012343663884468;
0,00116694912092295;
0,00106096812835108;
0,000997682305160133;
0,00105812301450996;
0,00125693068548807;
0,00151846138628249;
0,00171754400400568;
0,00175762761167684;
0,00162979722826977;
0,0014106574755276;
0,00120372110860343;
0,00107058848440936;
0,00100244837675007;
0,000947463636397128;
0,000864944449681636;
0,000759025306453497;
0,000666148020990201;
0,000612264278021974;
0,000581658190147964;
0,000528008206436136;
0,000419927432604708;
0,000280861339526543;
0,00018502219335628;
0,000206474386587801;
0,000358570338888066;
0,000572130512071125;
0,000732773603369613;
0,000752357308987985;
0,00062280938753894;
0,000414035338951656;
0,000220284336476026;
9,7354464833759E-5;
3,67540294591631E-5;
-9,11069370846444E-6;
-7,74219127658772E-5;
-0,00016429833888407;
-0,000236367879046732;
-0,000269926752883083;
-0,000279410937584692;
-0,000307293281335958;
-0,00038255026136282;
-0,000484289334511865;
-0,000545410238876911;
-0,000498872224506022;
-0,000332697292762095;
-0,000109742809751059;
6,62170273183242E-5;
0,000115284376870016;
3,01526108530181E-5;
-0,000125932424114267;
-0,000267862674440118;
-0,000345511534205447;
-0,000366974773501695;
-0,000375589695141295;
-0,000405039305598132;
-0,000451675214815659;
-0,000485131715138627;
-0,000483873387662488;
-0,000460991420375727;
-0,000455051585699422;
-0,000492516634944944;
-0,000554849572098683;
-0,000581782273929146;
-0,000513023240664988;
-0,000337812586148022;
-0,000112698338195055;
6,90328620910899E-5;
0,000135646696386568;
8,06905458040254E-5;
-3,89684344945672E-5;
-0,000146989841084079;
-0,000198600975218484;
-0,000201329557908235;
-0,000194204900689439;
-0,000207377592594679;
-0,000237332323250764;
-0,000256545247610943;
-0,000245494509546643;
-0,000215845472625302;
-0,000202228428432259;
-0,000228516022839097;
-0,000278311008740326;
-0,000297837515041087;
-0,000233228596999513;
-7,48052891405066E-5;
0,00012707281941456;
0,000289329215589673;
0,000348175305154244;
0,000298035807284646;
0,000189681818612846;
9,10743762266142E-5;
4,1918602505449E-5;
3,53288201569515E-5;
3,64986184047632E-5;
1,87170229042995E-5;
-1,46210896028242E-5;
-3,87308233025942E-5;
-3,60237836654165E-5;
-1,67729671973986E-5;
-1,17884406208882E-5;
-4,24094772319707E-5;
-9,42511559988842E-5;
-0,000119736560503218;
-7,11443809488421E-5;
6,01680796108476E-5;
0,000229753916642537;
0,000364283291635099;
0,000407534307449105;
0,000354735662110643;
0,000250808269671735;
0,000155702371328673;
0,000104292382707302;
9,03133224481858E-5;
8,29779677997457E-5;
5,8818944477813E-5;
2,10572563615088E-5;
-8,19843797313289E-6;
-1,32584271378319E-5;
-3,10863660958898E-6;
-4,94446852467527E-6;
-3,77063889105637E-5;
-8,89332948518775E-5;
-0,000116956399607925;
-7,99191486600984E-5;
2,97988552876201E-5;
0,000173312223086783;
0,000286477945909405;
0,000320187003582198;
0,000270375361907976;
0,000176383388791221;
9,05566610049353E-5;
4,3191341137775E-5;
2,86033869424642E-5;
1,97861955523325E-5;
-3,70195413141503E-6;
-3,88604188252137E-5;
-6,61674245759659E-5;
-7,17749341353304E-5;
-6,34858117535605E-5;
-6,51000378897917E-5;
-9,32992758913728E-5;
-0,000137435099867441;
-0,000161407237557187;
-0,000128891942733598;
-3,32512253685955E-5;
9,18317301091848E-5;
0,000190816158049815;
0,000221241796142533;
0,000179680595091259;
0,000100219404584641;
2,80700474644301E-5;
-1,0750762963977E-5;
-2,13660781566285E-5;
-2,72339287733466E-5;
-4,5973694930272E-5;
-7,48176199653849E-5;
-9,66953565745717E-5;
-9,95030015735921E-5;
-8,99413833367647E-5;
-8,86244985423014E-5;
-0,000110101940184186;
-0,000145395916810776;
-0,000163587676062022;
-0,000133506992271717;
-4,94299149073445E-5;
5,98069814337939E-5;
0,000146671692036381;
0,000174888145049919;
0,000141614975837385;
7,60538877554618E-5;
1,67977949807879E-5;
-1,40877020776561E-5;
-2,11740770967444E-5;
-2,46016733986129E-5;
-3,93645781982158E-5;
-6,29218996979293E-5;
-8,0493711335384E-5;
-8,16022179171217E-5;
-7,19196998974767E-5;
-6,90860701250252E-5;
-8,5647025083834E-5;
-0,000114144501902916;
-0,00012843565633021;
-0,000102106152343843;
-3,02710143349457E-5;
6,2716005209592E-5;
0,000136722645779943;
0,000161181913927432;
0,000133792005138154;
7,92502444114815E-5;
3,00580393950422E-5;
4,66164028902546E-6;
-9,75651244333319E-7;
-3,91919298037772E-6;
-1,67425335854965E-5;
-3,71256675014949E-5;
-5,24141054989689E-5;
-5,36373081179095E-5;
-4,55192999116995E-5;
-4,2950455716249E-5;
-5,66132605861284E-5;
-8,04258421105089E-5;
-9,26178895263689E-5;
-7,11350809228593E-5;
-1,18625166134856E-5;
6,49534081891033E-5;
0,000125957410036496;
0,000145805583501002;
0,000122682751233467;
7,71598382148175E-5;
3,61701103365299E-5;
1,48640381587124E-5;
9,71134877883747E-6;
6,46762230466519E-6;
-5,23280666762538E-6;
-2,32887462607407E-5;
-3,7008398976725E-5;
-3,88132561180704E-5;
-3,25659254706437E-5;
-3,06406644249171E-5;
-4,20068696903193E-5;
-6,18240476328653E-5;
-7,22987550932055E-5;
-5,53474667874627E-5;
-7,56166040758721E-6;
5,45411540410016E-5;
0,000103759101315667;
0,000119485271401344;
0,000100336382957773;
6,31297906494315E-5;
2,97459902756723E-5;
1,2354983718901E-5;
7,89884703664037E-6;
4,69793350843246E-6;
-5,61783042197405E-6;
-2,11632535056631E-5;
-3,30465083223565E-5;
-3,49662685641501E-5;
-3,0010390197855E-5;
-2,8269981477467E-5;
-3,71526916021278E-5;
-5,29293029330539E-5;
-6,13951353301584E-5;
-4,80548237295548E-5;
-1,01431662133027E-5;
3,91802674581588E-5;
7,82562414236318E-5;
9,07400385403696E-5;
7,56290650480665E-5;
4,6354397832967E-5;
2,02491042862911E-5;
6,81056585324407E-6;
3,41873651410268E-6;
7,082757090418E-7;
-7,90063501381562E-6;
-2,07319679433705E-5;
-3,05302390609737E-5;
-3,21552955960786E-5;
-2,80025252236011E-5;
-2,61063500382353E-5;
-3,2460246532375E-5;
-4,43195652823158E-5;
-5,06899603656621E-5;
-4,02904990604266E-5;
-1,09357347095312E-5;
2,72151901755374E-5;
5,74560062512295E-5;
6,72470344687786E-5;
5,59200003433388E-5;
3,38780310006526E-5;
1,43972678102392E-5;
4,60038768753354E-6;
2,27151090232799E-6;
1,1796276596044E-7;
-6,84606565908E-6;
-1,71434745424286E-5;
-2,49930854952754E-5;
-2,63007184617866E-5;
-2,28469491160857E-5;
-2,08275878125701E-5;
-2,49646973356997E-5;
-3,33767251139578E-5;
-3,79154288883958E-5;
-3,01541347157317E-5;
-8,4248286554535E-6;
1,97718327110199E-5;
4,21181114582996E-5;
4,94425418447756E-5;
4,13683988434259E-5;
2,56153676883266E-5;
1,1872499119225E-5;
5,17188483697236E-6;
3,66806524157446E-6;
1,9090758078181E-6;
-3,68393761748074E-6;
-1,18211070749341E-5;
-1,80384392969116E-5;
-1,91761108425492E-5;
-1,64737740401477E-5;
-1,4497771697722E-5;
-1,68366399513414E-5;
-2,23578074379317E-5;
-2,54132377996029E-5;
-2,00880052066882E-5;
-5,17222297768552E-6;
1,41669122804915E-5;
2,94639795939288E-5;
3,45011762805835E-5;
2,91531480685758E-5;
1,8783100665345E-5;
9,9378266966072E-6;
5,82646758207823E-6;
4,93989542485053E-6;
3,44560295213479E-6;
-1,00565441494294E-6;
-7,29917898536406E-6;
-1,21380625778106E-5;
-1,31903837081503E-5;
-1,12250586833324E-5;
-9,37808494014382E-6;
-1,02367328884933E-5;
-1,3311492685348E-5;
-1,51292986215767E-5;
-1,19644714921947E-5;
-3,00953870529374E-6;
8,59542757805779E-6;
1,77323205584875E-5;
2,07469298734454E-5;
1,7727714171408E-5;
1,1988871520337E-5;
7,35238293486277E-6;
5,45443546509093E-6;
5,08844149496209E-6;
3,8323662311231E-6;
4,00019821694399E-7;
-4,25672830905774E-6;
-7,86581608388328E-6;
-8,82244209595183E-6;
-7,49062917236037E-6;
-5,76363914097125E-6;
-5,35287720581195E-6;
-6,3141083878648E-6;
-7,04571361816053E-6;
-5,70983723722868E-6;
-1,84917390946012E-6;
3,13740357246353E-6;
7,00785671757263E-6;
8,30792952469947E-6;
7,30536151152136E-6;
5,55235531454557E-6;
4,5349004031932E-6;
4,54820277493936E-6;
4,65550761019581E-6;
3,64990373897246E-6;
1,15348043889789E-6;
-2,03200188279714E-6;
-4,5253985291784E-6;
-5,35412472424991E-6;
-4,53826019484193E-6;
-2,9032979602033E-6;
-1,40233327704476E-6;
-5,46566178947466E-7;
-3,24589505289898E-7;
-5,06675319080636E-7;
-9,36818360996447E-7;
-1,53713606257963E-6;
-2,10955694890909E-6;
-2,24445392924095E-6;
-1,52614910117932E-6;
1,01456121082274E-7;
2,14776135634825E-6;
3,78068201161643E-6;
4,30213081165593E-6;
3,53935081733739E-6;
1,88015250688692E-6;
-1,08522372508848E-8;
-1,51832633397676E-6;
-2,21320375097011E-6;
-1,8275017352214E-6;
-2,80746002747753E-7;
2,12302198621363E-6;
4,49908313126332E-6;
5,52716905025692E-6;
4,08637560236739E-6;
7,67753923008605E-8;
-5,18962342762539E-6;
-9,47477722440233E-6;
-1,08133545583131E-5;
-8,67001772051167E-6;
-4,24046922801774E-6;
3,37613515047158E-7;
3,3001117751374E-6;
4,15814371961639E-6;
3,6067326264067E-6;
2,66906473909826E-6;
1,88549480578476E-6;
1,22141601509793E-6;
6,44517506119916E-7;
6,59918968967432E-7;
2,10554289553047E-6;
5,22558183153643E-6;
8,83579414512785E-6;
1,05199462516859E-5;
8,04162318462146E-6;
1,08666696449346E-6;
-8,01972545298854E-6;
-1,53639910710402E-5;
-1,77055855482286E-5;
-1,44149353134052E-5;
-7,71696019082705E-6;
-1,09677062559053E-6;
2,92640796520296E-6;
4,04520300208375E-6;
3,67058669235978E-6;
3,34281650020022E-6;
3,4905640368109E-6;
3,5356311336027E-6;
3,05973898096821E-6;
2,75905596024278E-6;
4,09362142335332E-6;
7,76349262750253E-6;
1,2351150214492E-5;
1,45575398720701E-5;
1,12436809143946E-5;
1,91919354748589E-6;
-1,02771498009499E-5;
-2,0085622112178E-5;
-2,32437737575727E-5;
-1,90505226439901E-5;
-1,05588586804959E-5;
-2,33104939317194E-6;
2,51756888899747E-6;
3,83531188413917E-6;
3,61164343503935E-6;
3,7973508594361E-6;
4,72152468293935E-6;
5,359246523269E-6;
4,97494363835587E-6;
4,41444898818649E-6;
5,63760169499667E-6;
9,71636463663231E-6;
1,50587324815451E-5;
1,76740128439897E-5;
1,37119876402903E-5;
2,54044925764335E-6;
-1,20671048702721E-5;
-2,37999863669117E-5;
-2,76007261115563E-5;
-2,27168627743278E-5;
-1,28491651710542E-5;
-3,39526446714368E-6;
2,07511767651635E-6;
3,5421408395239E-6;
3,45032627661169E-6;
4,06587074590024E-6;
5,62986117675282E-6;
6,75819127253062E-6;
6,46006986532302E-6;
5,69418800042824E-6;
6,81054346755433E-6;
1,11773259253391E-5;
1,70797703869235E-5;
2,00056058439896E-5;
1,55638771274082E-5;
3,01145217353602E-6;
-1,34023008952877E-5;
-2,65780455537198E-5;
-3,08647713004473E-5;
-2,54763032022953E-5;
-1,4600947696913E-5;
-4,2572223062057E-6;
1,65600547806251E-6;
3,22890462339514E-6;
3,25118627958202E-6;
4,22028374797942E-6;
6,3002360166133E-6;
7,82624561131806E-6;
7,60796843680083E-6;
6,68451320591894E-6;
7,69862208057453E-6;
1,22470524997991E-5;
1,85373512361105E-5;
2,16856062886681E-5;
1,69107325783652E-5;
3,38622869738447E-6;
-1,43024693479307E-5;
-2,84983717287328E-5;
-3,31342183101341E-5;
-2,74054729106569E-5;
-1,58468484708167E-5;
-4,90923840430336E-6;
1,28896430842182E-6;
2,92812210529615E-6;
3,04620416066857E-6;
4,29808669757117E-6;
6,78106098352033E-6;
8,61939714036792E-6;
8,47270447495838E-6;
7,43220985847304E-6;
8,34759593373805E-6;
1,29842368041239E-5;
1,95108372416233E-5;
2,28027466916038E-5;
1,78205383625549E-5;
3,67869281278742E-6;
-1,48231263572662E-5;
-2,96717091518683E-5;
-3,45380473658344E-5;
-2,86124518148513E-5;
-1,66529595544699E-5;
-5,37880406034428E-6;
9,67067368799239E-7;
2,63735182123173E-6;
2,8335721491078E-6;
4,30400440181149E-6;
7,08876760291637E-6;
9,16265947104268E-6;
9,07886176593835E-6;
7,95627500921483E-6;
8,776697530684E-6;
1,34214641754719E-5;
2,00534995111871E-5;
2,34204997917019E-5;
1,83388122965937E-5;
3,88521622627126E-6;
-1,50314349249031E-5;
-3,02154981759283E-5;
-3,52094089064746E-5;
-2,92095567643939E-5;
-1,70911196498667E-5;
-5,70049886010648E-6;
6,76124661994843E-7;
2,34782896366095E-6;
2,6064437010353E-6;
4,23868445315677E-6;
7,23633732391602E-6;
9,47833385018449E-6;
9,4494855749136E-6;
8,27551075893076E-6;
9,00576901713742E-6;
1,35917667711555E-5;
2,02183873905617E-5;
2,36022041801917E-5;
1,85130113265901E-5;
4,00836532560608E-6;
-1,49831462774048E-5;
-3,02315789193933E-5;
-3,52642441886849E-5;
-2,92930323111453E-5;
-1,72197538028391E-5;
-5,89798997151191E-6;
4,11568351142018E-7;
2,06025446274052E-6;
2,36760291008988E-6;
4,11221011210865E-6;
7,24562061563908E-6;
9,59715644604088E-6;
9,6161247664607E-6;
8,41751287974444E-6;
9,06320618071257E-6;
1,35355151928454E-5;
2,00641658460152E-5;
2,34158834944469E-5;
1,83964169469171E-5;
4,05992157091148E-6;
-1,47203926928885E-5;
-2,98047843678517E-5;
-3,48006948197249E-5;
-2,89432736940938E-5;
-1,70849004362673E-5;
-5,98580989873687E-6;
1,75985357894509E-7;
1,78167316149125E-6;
2,12572776434845E-6;
3,93976538404027E-6;
7,14243418489908E-6;
9,55289962155524E-6;
9,6129968662791E-6;
8,41245590532921E-6;
8,97942905727569E-6;
1,32936025003439E-5;
1,96480408311022E-5;
2,29269488966344E-5;
1,80406402706008E-5;
4,0532568214449E-6;
-1,42793935115788E-5;
-2,90107021042455E-5;
-3,39068887729809E-5;
-2,82326290304472E-5;
-1,67279855407648E-5;
-5,97706735471914E-6;
-2,85038496751713E-8;
1,51797834133868E-6;
1,88800178929929E-6;
3,73436438519735E-6;
6,94943994680581E-6;
9,37540228609571E-6;
9,47020852394337E-6;
8,28654715598649E-6;
8,78059341579608E-6;
1,29014435142157E-5;
1,90200388174219E-5;
2,2192752473619E-5;
1,74904547408706E-5;
3,99840916599207E-6;
-1,36951375548008E-5;
-2,79200943195792E-5;
-3,26650757913475E-5;
-2,72291947085191E-5;
-1,61892596509871E-5;
-5,88652759456573E-6;
-2,02995427356685E-7;
1,27145144395827E-6;
1,65794961240716E-6;
3,50495965933758E-6;
6,6845001004101E-6;
9,08919017420794E-6;
9,21263578997281E-6;
8,06117016848051E-6;
8,48800728181903E-6;
1,23886534128115E-5;
1,82229679571781E-5;
2,12627922724731E-5;
1,67841612680122E-5;
3,90256785004777E-6;
-1,30008263934971E-5;
-2,65982519137454E-5;
-3,11508289719438E-5;
-2,59958242877028E-5;
-1,55065797600076E-5;
-5,72917805796953E-6;
-3,50186261445004E-7;
1,04250190048196E-6;
1,43724785178615E-6;
3,25832910960866E-6;
6,36264063472819E-6;
8,71549247847178E-6;
8,86198567961243E-6;
7,75497525148356E-6;
8,12026478510321E-6;
1,17812684308513E-5;
1,72946948145712E-5;
2,01810102196833E-5;
1,5955846453623E-5;
3,77218519353522E-6;
-1,22259290662571E-5;
-2,51031977360423E-5;
-2,94313234560396E-5;
-2,458837665736E-5;
-1,47135841208035E-5;
-5,51834468836273E-6;
-4,72491400664627E-7;
8,31515309343715E-7;
1,22751284323048E-6;
3,00078379391322E-6;
5,99770029030362E-6;
8,27382294515797E-6;
8,43828625201975E-6;
7,38529142545638E-6;
7,69459376657868E-6;
1,11030524458507E-5;
1,62694447423967E-5;
1,89870389597685E-5;
1,5036482812876E-5;
3,61385138252954E-6;
-1,13955901990563E-5;
-2,34853287811468E-5;
-2,75650946576069E-5;
-2,30554784797287E-5;
-1,38393909123298E-5;
-5,26532940761852E-6;
-5,71677327037916E-7;
6,39153440325339E-7;
1,03053415683381E-6;
2,73835077442378E-6;
5,60245071795997E-6;
7,78205210256248E-6;
7,95989820075048E-6;
6,96806276831845E-6;
7,2267592883174E-6;
1,03754121774035E-5;
1,51777504534382E-5;
1,77161491362416E-5;
1,40537678552061E-5;
3,43391775204422E-6;
-1,05312632737096E-5;
-2,17882495292966E-5;
-2,56029471283878E-5;
-2,14393745357827E-5;
-1,29093111619747E-5;
-4,97999935137003E-6;
-6,49374263079641E-7;
4,65864050835714E-7;
8,47758839804683E-7;
2,47626157807066E-6;
5,18812639893107E-6;
7,25595065249059E-6;
7,44305060649979E-6;
6,51737694359826E-6;
6,73060520707127E-6;
9,61700801985162E-6;
1,40461470113271E-5;
1,6398982533508E-5;
1,30318038715031E-5;
3,23800578229282E-6;
-9,65142221393164E-6;
-2,00496591080194E-5;
-2,35888861529836E-5;
-1,97767526579269E-5;
-1,19454852054919E-5;
-4,67123921952618E-6;
-7,07426550255188E-7;
3,11570894978334E-7;
6,80015382696905E-7;
2,21870812725483E-6;
4,764219808612E-6;
6,70902815331375E-6;
6,90170149856802E-6;
6,04532822357184E-6;
6,2179520384569E-6;
8,84373468251564E-6;
1,28972616781407E-5;
1,50617152578634E-5;
1,19912019793633E-5;
3,03091943286796E-6;
-8,77189575295522E-6;
-1,83018662491891E-5;
-2,15606584026741E-5;
-1,80991692218579E-5;
-1,09671176122692E-5;
-4,34701225458549E-6;
-7,47849221413447E-7;
1,75755545287098E-7;
5,27611349935396E-7;
1,96897416342954E-6;
4,33866676768818E-6;
6,15275772363318E-6;
6,34776224506793E-6;
5,56223866998316E-6;
5,69883657538487E-6;
8,06903006220548E-6;
1,17502230136901E-5;
1,37265046585034E-5;
1,09494581958286E-5;
2,81682825748851E-6;
-7,90593855139708E-6;
-1,65720695578102E-5;
-1,95501086517888E-5;
-1,64333117994215E-5;
-9,9905558125902E-6;
-4,01426461454537E-6;
-7,72630253214847E-7;
5,76727884443758E-8;
3,90540655304414E-7;
1,72966265800581E-6;
3,91811348732041E-6;
5,59687071006826E-6;
5,79138935563622E-6;
5,07691786847005E-6;
5,18177092273808E-6;
7,30419459365219E-6;
1,06210641960568E-5;
1,24119312588075E-5;
9,92130962089437E-6;
2,59940865419821E-6;
-7,06437188181717E-6;
-1,48827111441829E-5;
-1,7583581794624E-5;
-1,48013123722041E-5;
-9,02943284068862E-6;
-3,67892118314606E-6;
-7,83654072118442E-7;
-4,35439124040082E-8;
2,68596441816552E-7;
1,50282566249715E-6;
3,50807563190102E-6;
5,04953584568985E-6;
5,24115730375731E-6;
4,59681641622282E-6;
4,67390138779615E-6;
6,55860326079606E-6;
9,5230147477317E-6;
1,11333301525497E-5;
8,91898915489223E-6;
2,38187730886862E-6;
-6,25581721543636E-6;
-1,32519211684358E-5;
-1,5682449765938E-5;
-1,32211822702138E-5;
-8,0949269291935E-6;
-3,34597426408542E-6;
-7,82691800333222E-7;
-1,28864401149143E-7;
1,61383914628273E-7;
1,28999866109392E-6;
3,11302455651141E-6;
4,51747655493599E-6;
4,70416076238865E-6;
4,12810819336566E-6;
4,18109597879286E-6;
5,83984670221823E-6;
8,46672827631048E-6;
9,90306040207352E-6;
7,95241222742304E-6;
2,16698144467028E-6;
-5,48696522692424E-6;
-1,16940005304741E-5;
-1,38636482546123E-5;
-1,17072588033563E-5;
-7,19603417689692E-6;
-3,01959905094528E-6;
-7,71436944557663E-7;
-1,99367348577823E-7;
6,83284854857447E-8;
1,09223266929606E-6;
2,73644917127809E-6;
4,00607147531745E-6;
4,18613064750962E-6;
3,67578092167197E-6;
3,70803760419749E-6;
5,1538911949972E-6;
7,46053368015714E-6;
8,73079296898416E-6;
7,02939461604633E-6;
1,95702082707741E-6;
-4,76281130796379E-6;
-1,02198478778367E-5;
-1,21401641552311E-5;
-1,0270606459582E-5;
-6,33980328260864E-6;
-2,70323832741812E-6;
-7,51496854424343E-7;
-2,56207986205391E-7;
-1,13001923110314E-8;
9,10149219924586E-7;
2,38097616196786E-6;
3,51949932799434E-6;
3,69156668590112E-6;
3,24375835207574E-6;
3,25835119271362E-6;
4,50525352649484E-6;
6,51068151202722E-6;
7,62379866293329E-6;
6,15587878493591E-6;
1,75388237070621E-6;
-4,08686366679551E-6;
-8,83735968723181E-6;
-1,05214894162964E-5;
-8,9193840722824E-6;
-5,53154509744703E-6;
-2,39966038634805E-6;
-7,24375936337275E-7;
-3,00586628992914E-7;
-7,833766364827E-8;
7,44015633019026E-7;
2,04846988572412E-6;
3,06087404348316E-6;
3,22388008787359E-6;
2,83502149328154E-6;
2,83473227771181E-6;
3,89718303291372E-6;
5,62160835671675E-6;
6,58725209078248E-6;
5,33616246712093E-6;
1,559090115804E-6;
-3,46132070089773E-6;
-7,55179218929962E-6;
-9,01404387732118E-6;
-7,65919229034016E-6;
-4,77502730670675E-6;
-2,11101971816273E-6;
-6,91465804465806E-7;
-3,33716104790895E-7;
-1,33689449451456E-7;
5,93804425962299E-7;
1,74014561148307E-6;
2,63239307594936E-6;
2,7855380057148E-6;
2,45173163614953E-6;
2,43906362832404E-6;
3,33181966901994E-6;
4,79616734663969E-6;
5,62449860634858E-6;
4,57310516524516E-6;
1,37384178648483E-6;
-2,88725414493675E-6;
-6,36611718189611E-6;
-7,62158192494007E-6;
-6,49340422233665E-6;
-4,07266920338405E-6;
-1,83892331626742E-6;
-6,54032822358417E-7;
-3,56790627264924E-7;
-1,78300267793305E-7;
4,59240454545926E-7;
1,45665166025782E-6;
2,23544529374308E-6;
2,3781673098383E-6;
2,0953228944293E-6;
2,07252080650421E-6;
2,81035245170172E-6;
4,03584705842232E-6;
4,73729262924471E-6;
3,86831327934449E-6;
1,19904051167969E-6;
-2,36478564655754E-6;
-5,28135464528243E-6;
-6,3455726138336E-6;
-5,4234835375573E-6;
-3,42572829685096E-6;
-1,58449815986301E-6;
-6,13223825386137E-7;
-3,70979782108786E-7;
-2,13142612340985E-7;
3,39850379976286E-7;
1,19815725956907E-6;
1,87072171946409E-6;
2,00267512356149E-6;
1,76660587161888E-6;
1,73566560513827E-6;
2,33314315216517E-6;
3,34096446905458E-6;
3,92603841464448E-6;
3,22232300157091E-6;
1,03532558675688E-6;
-1,89323743839095E-6;
-4,29687428510182E-6;
-5,18555256649612E-6;
-4,44927590296837E-6;
-2,83447124714265E-6;
-1,34845388671078E-6;
-5,70075550287655E-7;
-3,77413247926436E-7;
-2,3918783755013E-7;
2,34997858692842E-7;
9,64423319996783E-7;
1,53832561882051E-6;
1,65935537581824E-6;
1,46585517500346E-6;
1,42854085321295E-6;
1,89986056401592E-6;
2,71084713515719E-6;
3,18999403789917E-6;
2,63475846902398E-6;
8,83099833368831E-7;
-1,47128038762223E-6;
-3,41068810420376E-6;
-4,13945660126602E-6;
-3,56926928757184E-6;
-2,29832562245763E-6;
-1,13113193257362E-6;
-5,25502923242563E-7;
-3,77170583256975E-7;
-2,57402648680898E-7;
1,43918695308203E-7;
7,54875734855639E-7;
1,23786035296074E-6;
1,34797261561292E-6;
1,19288501239705E-6;
1,15074817403769E-6;
1,50959634580663E-6;
2,14400941955647E-6;
2,52746803754784E-6;
2,10448640048212E-6;
7,42568042303043E-7;
-1,09705638418892E-6;
-2,61968221990927E-6;
-3,20389276540994E-6;
-2,78084326587082E-6;
-1,81603081880865E-6;
-9,32569201593994E-7;
-4,80315715236557E-7;
-3,71267260963003E-7;
-2,68719942575016E-7;
6,57631218657386E-8;
5,6867239169638E-7;
9,68523196707482E-7;
1,0678657232443E-6;
9,47139535381449E-7;
9,01531081495359E-7;
1,16097483051087E-6;
1,63830516440272E-6;
1,93599979061876E-6;
1,62974984942347E-6;
6,13750511981295E-7;
-7,68300032074249E-7;
-1,91986608057069E-6;
-2,37442504395347E-6;
-2,08048224923403E-6;
-1,38576251110339E-6;
-7,52533969937325E-7;
-4,35209718636943E-7;
-3,60649981173475E-7;
-2,74039674824274E-7;
-3,87527159083158E-10;
4,0475647251826E-7;
7,29182504556095E-7;
8,1802166712657E-7;
7,27757398331607E-7;
6,79846799374665E-7;
8,52242242551996E-7;
1,19105617437738E-6;
1,41251954057505E-6;
1,20830152074719E-6;
4,96524442928268E-7;
-4,82433147327762E-7;
-1,30656151789139E-6;
-1,64579373425015E-6;
-1,46397029430604E-6;
-1,00524801930062E-6;
-5,90579123464264E-7;
-3,90786149122545E-7;
-3,46197270641345E-7;
-2,74213007701819E-7;
-5,54819418078549E-8;
2,61910842039339E-7;
5,18447494170272E-7;
5,97150176992945E-7;
5,33632076748443E-7;
4,84418956247518E-7;
5,81361429836179E-7;
7,9919438822621E-7;
9,53484726448148E-7;
8,37501992456722E-7;
3,90639279096016E-7;
-2,36659957549707E-7;
-7,74588073153344E-7;
-1,01213389611638E-6;
-9,26567655314258E-7;
-6,7187327416544E-7;
-4,46080829219472E-7;
-3,47546043341424E-7;
-3,28709909416621E-7;
-2,70041243824784E-7;
-1,00487199734238E-7;
1,38803183796903E-7;
3,34733244518831E-7;
4,03744262832019E-7;
3,63468397128043E-7;
3,13802501164867E-7;
3,46077916947911E-7;
4,5934562635646E-7;
5,55010746455868E-7;
5,144275507494E-7;
2,95733074160357E-7;
-2,80467845634131E-8;
-3,18424728568097E-7;
-4,67158977105943E-7;
-4,63166912919625E-7;
-3,82775908719982E-7;
-3,1827053663787E-7;
-3,05904811769759E-7;
-3,08912370780273E-7;
-2,6226995249761E-7;
-1,36376167975085E-7;
3,40209576015667E-8;
1,7631482861726E-7;
2,36141238740546E-7;
2,15831997431353E-7;
1,66426645113405E-7;
1,43997410536218E-7;
1,67948624655677E-7;
2,12982263684255E-7;
2,35956257637441E-7;
2,11368055183694E-7;
1,46421182340036E-7;
6,7661597036459E-8;
-4,31881875382902E-9;
-6,84216551594772E-8;
-1,34924707919094E-7;
-2,06274338690922E-7;
-2,66194393497677E-7;
-2,87455888134177E-7;
-2,51580806601783E-7;
-1,64095030343639E-7;
-5,38903576233731E-8;
4,13770223348647E-8;
9,25728231486587E-8;
8,91957938118542E-8;
4,0642234444014E-8;
-2,73667157805397E-8;
-7,86804573755726E-8;
-7,68575208217305E-8;
-1,16173397332437E-9;
1,37032686838398E-7;
2,89765467548097E-7;
3,89488178088768E-7;
3,8306235771408E-7;
2,63133369346847E-7;
7,48104631945995E-8;
-1,09136459522053E-7;
-2,28674944460835E-7;
-2,64916855638591E-7;
-2,38597961371839E-7;
-1,84564508083828E-7;
-1,26396295644643E-7;
-7,19469952053013E-8;
-2,8792311954831E-8;
-1,80232799019113E-8;
-6,52463524093886E-8;
-1,70535829615625E-7;
-2,8426294236707E-7;
-3,18813227894143E-7;
-2,00229644506E-7;
7,21680073202663E-8;
4,04981405010854E-7;
6,52861898614855E-7;
7,01665420012624E-7;
5,36991764502267E-7;
2,49595893935885E-7;
-2,58522981486842E-8;
-1,93537221124529E-7;
-2,41800776270944E-7;
-2,23882739519474E-7;
-1,98670002031609E-7;
-1,84957071720657E-7;
-1,65533107487232E-7;
-1,298135784579E-7;
-1,07434765660193E-7;
-1,52943289612543E-7;
-2,88029447505615E-7;
-4,52507083000605E-7;
-5,17180240371446E-7;
-3,64560600155013E-7;
1,61784424020875E-8;
4,94991363297959E-7;
8,63497577709901E-7;
9,58081970099456E-7;
7,58578544211407E-7;
3,92584380699229E-7;
4,46218877447004E-8;
-1,60910828409986E-7;
-2,18543479236961E-7;
-2,07935262985955E-7;
-2,07245662226851E-7;
-2,30995905291759E-7;
-2,41242962985511E-7;
-2,12341251392436E-7;
-1,80644785744793E-7;
-2,24142114361815E-7;
-3,82323606151249E-7;
-5,87053481590334E-7;
-6,76177441362769E-7;
-4,97419142944106E-7;
-3,1557191035391E-8;
5,62610323420941E-7;
1,02694654638784E-6;
1,15873325940106E-6;
9,33196653518952E-7;
5,06874769386084E-7;
1,03336095851927E-7;
-1,30874253693476E-7;
-1,95516611106668E-7;
-1,91197374557218E-7;
-2,1107774600795E-7;
-2,65895745954352E-7;
-3,00898813516957E-7;
-2,7819674077864E-7;
-2,39233290805154E-7;
-2,80498338874976E-7;
-4,558287174408E-7;
-6,91431283950795E-7;
-7,99899250745816E-7;
-6,01989580384247E-7;
-7,16683455347382E-8;
6,10529711807027E-7;
1,14854270690632E-6;
1,3098001545465E-6;
1,06596054493388E-6;
5,95472009626298E-7;
1,51337982769804E-7;
-1,03458485017577E-7;
-1,73033329530667E-7;
-1,74055207376515E-7;
-2,10893072949634E-7;
-2,90972653393611E-7;
-3,46258857357247E-7;
-3,29146176585202E-7;
-2,84735461425946E-7;
-3,23613025981994E-7;
-5,10863410946929E-7;
-7,69037712403584E-7;
-8,92284675023918E-7;
-6,81340264069428E-7;
-1,04789250929578E-7;
6,41288504464199E-7;
1,23335814981526E-6;
1,41717766170157E-6;
1,16176102797692E-6;
6,61264206955488E-7;
1,89658503984895E-7;
-7,86543386795391E-8;
-1,51348818460429E-7;
-1,56839177068245E-7;
-2,07365573407852E-7;
-3,0747620315272E-7;
-3,79003978910162E-7;
-3,66886943884562E-7;
-3,18625465040582E-7;
-3,55015699629162E-7;
-5,49630940359062E-7;
-8,23092277563984E-7;
-9,57077786501499E-7;
-7,38401979626524E-7;
-1,31546503707242E-7;
6,57264019868409E-7;
1,28617524493478E-6;
1,48643310136091E-6;
1,22522308487152E-6;
7,0699538472376E-7;
2,19297202428974E-7;
-5,64175611398128E-8;
-1,30668699488871E-7;
-1,39828597574819E-7;
-2,01106411272729E-7;
-3,16579458476071E-7;
-4,0072467802395E-7;
-3,93030507950893E-7;
-3,42309930524399E-7;
-3,7615924026223E-7;
-5,74212225860322E-7;
-8,56636776341323E-7;
-9,97814095153185E-7;
-7,75950784019641E-7;
-1,52558663258747E-7;
6,60663045555389E-7;
1,31146214120427E-6;
1,52278095843963E-6;
1,26068863717239E-6;
7,35254446412588E-7;
2,41217077445679E-7;
-3,667764934215E-8;
-1,11151206732061E-7;
-1,23258393037326E-7;
-1,92670346820656E-7;
-3,19368865804364E-7;
-4,12914969060207E-7;
-4,09095502884651E-7;
-3,5710885422773E-7;
-3,88407579315385E-7;
-5,86558682248292E-7;
-8,72512265028241E-7;
-1,01779642447377E-6;
-7,96586334950227E-7;
-1,68418257645474E-7;
6,53519046764118E-7;
1,31335915864541E-6;
1,53105985002107E-6;
1,2721959451841E-6;
7,48459289684195E-7;
2,56335145667659E-7;
-1,93339302668042E-8;
-9,29142363099329E-8;
-1,07319646109796E-7;
-1,82553264093615E-7;
-3,16852909687507E-7;
-4,16963624069846E-7;
-4,16497731673172E-7;
-3,64261062574304E-7;
-3,93032169332806E-7;
-5,88474307315278E-7;
-8,73349682053407E-7;
-1,02009214142459E-6;
-8,02732805506801E-7;
-1,79699752305627E-7;
6,37685020461365E-7;
1,29567036388566E-6;
1,51572974839965E-6;
1,26347636132729E-6;
7,48856446406209E-7;
2,65517985108458E-7;
-4,27423506968533E-9;
-7,60354991060103E-8;
-9,21603903269667E-8;
-1,71196305270767E-7;
-3,09947001416586E-7;
-4,14149485792333E-7;
-4,16550757622022E-7;
-3,64913575326071E-7;
-3,91207879999867E-7;
-5,81626166675155E-7;
-8,61572686609813E-7;
-1,00752214308953E-6;
-7,96625857044342E-7;
-1,86946060770954E-7;
6,14838836346139E-7;
1,26186368102595E-6;
1,48086619823111E-6;
1,2379399105317E-6;
7,38504572451197E-7;
2,69574981964552E-7;
8,63065309002788E-9;
-6,05622436166969E-8;
-7,78968545577919E-8;
-1,58985735822899E-7;
-2,99482934867164E-7;
-4,05646033547929E-7;
-4,10460916942739E-7;
-3,60118406045896E-7;
-3,84007865376477E-7;
-5,67531885471784E-7;
-8,39389498660979E-7;
-9,82665117742611E-7;
-7,80319063149705E-7;
-1,90674555392656E-7;
5,86485803324781E-7;
1,21507490994318E-6;
1,43016205115682E-6;
1,19869094743957E-6;
7,1929028113653E-7;
2,69262167715839E-7;
1,9522980927189E-8;
-4,65133110070588E-8;
-6,4612283250788E-8;
-1,46257683511828E-7;
-2,86209812785181E-7;
-3,9251654886469E-7;
-3,99324198624657E-7;
-3,50836481444122E-7;
-3,72414379889556E-7;
-5,47570415396788E-7;
-8,0880237810594E-7;
-9,47857333851473E-7;
-7,55672974150223E-7;
-1,91366513457909E-7;
5,53966551963448E-7;
1,15811993581677E-6;
1,36693912337556E-6;
1,14852404207951E-6;
6,92917346106277E-7;
2,65272077948601E-7;
2,85479044465817E-8;
-3,38834913853525E-8;
-5,23602535898698E-8;
-1,33301679964679E-7;
-2,70796379850367E-7;
-3,75716428548334E-7;
-3,84131802332201E-7;
-3,37937777881858E-7;
-3,57310353718461E-7;
-5,2298041894355E-7;
-7,71607870303084E-7;
-9,05199786263137E-7;
-7,2437336768135E-7;
-1,89472201862123E-7;
5,18462045150565E-7;
1,09349852886677E-6;
1,29415815738078E-6;
1,08993857324437E-6;
6,60920363859854E-7;
2,58243730679099E-7;
3,58580116127318E-8;
-2,26453980415095E-8;
-4,11724148542674E-8;
-1,20361213909856E-7;
-2,53827160382322E-7;
-3,56101442787377E-7;
-3,65775415647386E-7;
-3,22203519221072E-7;
-3,39487380502079E-7;
-4,94865518544028E-7;
-7,2940746577272E-7;
-8,56565374205559E-7;
-6,87924302050692E-7;
-1,85405375218383E-7;
4,81001589174717E-7;
1,02341552367088E-6;
1,21443860582762E-6;
1,02514855279691E-6;
6,24662138522376E-7;
2,48751623071037E-7;
4,16059214902935E-8;
-1,27562559248298E-8;
-3,10565110995283E-8;
-1,07638810795019E-7;
-2,35820622121632E-7;
-3,34424804418071E-7;
-3,45043270249029E-7;
-3,04327582945984E-7;
-3,19641843340321E-7;
-4,64198557786979E-7;
-6,83612147567033E-7;
-8,03608811526181E-7;
-6,47664334132939E-7;
-1,79547891259914E-7;
4,42475626400468E-7;
9,4979407433944E-7;
1,13006820055821E-6;
9,56095755510928E-7;
5,85348421797465E-7;
2,37317548286719E-7;
4,59416805282042E-8;
-4,15992577565618E-9;
-2,20036485228902E-8;
-9,53024697606689E-8;
-2,17219286211122E-7;
-3,11347811125847E-7;
-3,22630207378608E-7;
-2,84920927792337E-7;
-2,9839573003429E-7;
-4,31838911712905E-7;
-6,35461182406832E-7;
-7,47781648776117E-7;
-6,04769345444758E-7;
-1,72245840556778E-7;
4,03640898315458E-7;
8,74293842059865E-7;
1,04303558611348E-6;
8,84471470688937E-7;
5,44033239747973E-7;
2,24406418661534E-7;
4,90153408457166E-8;
3,21125689045932E-9;
-1,39908835733151E-8;
-8,34839291881413E-8;
-1,98404695131228E-7;
-2,87444107347696E-7;
-2,99142007510241E-7;
-2,64519964659305E-7;
-2,76282944686865E-7;
-3,9852087703491E-7;
-5,86020881717306E-7;
-6,90339310725093E-7;
-5,60262073250012E-7;
-1,63810570899263E-7;
3,65136350800268E-7;
7,98332282359836E-7;
9,55038046712204E-7;
8,11724312258802E-7;
5,01630072773793E-7;
2,10432295467794E-7;
5,09712995940281E-8;
9,43295341949419E-9;
-6,97956661561789E-9;
-7,22849285408217E-8;
-1,79698667829804E-7;
-2,63206553825588E-7;
-2,75101096558144E-7;
-2,43581520991378E-7;
-2,53764427166136E-7;
-3,64883475233716E-7;
-5,36207150073505E-7;
-6,32357684234236E-7;
-5,1502860372254E-7;
-1,5452475531522E-7;
3,27487381862227E-7;
7,23095904230359E-7;
8,67512544725028E-7;
7,3908998217077E-7;
4,58918467673314E-7;
1,95753156699221E-7;
5,19475635934485E-8;
1,45877270847714E-8;
-9,25762894430059E-10;
-6,17825812239454E-8;
-1,61364812122071E-7;
-2,39047966130907E-7;
-2,50952582243493E-7;
-2,22504248109657E-7;
-2,31232870033903E-7;
-3,3145747521229E-7;
-4,86792940798768E-7;
-5,74749437680772E-7;
-4,69818020478191E-7;
-1,44635936948662E-7;
2,91123144170254E-7;
6,49574089313862E-7;
7,81653567227301E-7;
6,67595577125711E-7;
4,1655822411771E-7;
1,80686179128727E-7;
5,20764414914652E-8;
1,87589825570247E-8;
4,22685603800486E-9;
-5,20266132408299E-8;
-1,43619992099764E-7;
-2,15314653762279E-7;
-2,27069489855093E-7;
-2,01616198451789E-7;
-2,09017237033394E-7;
-2,9869202040103E-7;
-4,3841980296468E-7;
-5,1827310876773E-7;
-4,252620565078E-7;
-1,34363694727732E-7;
2,56377887408214E-7;
5,78562303600525E-7;
6,98439468841357E-7;
5,98089356389697E-7;
3,75096955749362E-7;
1,65499301799318E-7;
5,14781608253514E-8;
2,20339835990482E-8;
8,53524605583093E-9;
-4,30522745539601E-8;
-1,26635454283736E-7;
-1,92288388286608E-7;
-2,03759083083884E-7;
-1,81193666022332E-7;
-1,87387719601862E-7;
-2,66948033778605E-7;
-3,91609846823593E-7;
-4,63547456597313E-7;
-3,81881167728845E-7;
-1,23901509794149E-7;
2,23509085052285E-7;
5,10693791443073E-7;
6,18645781235226E-7;
5,31248045536853E-7;
3,34980387652606E-7;
1,50422899819068E-7;
5,02718314402739E-8;
2,45000389460085E-8;
1,20656477697779E-8;
-3,486918232792E-8;
-1,10543788856697E-7;
-1,70196810228601E-7;
-1,81272881181211E-7;
-1,61460405481335E-7;
-1,66563036300363E-7;
-2,36516896389814E-7;
-3,46778895834198E-7;
-4,11067382085832E-7;
-3,40095309895897E-7;
-1,134122571019E-7;
1,92702008397109E-7;
4,46446976928094E-7;
5,42878341040512E-7;
4,67607624242588E-7;
2,96562984155882E-7;
1,35647624023124E-7;
4,85631221971634E-8;
2,62414751774438E-8;
1,48805810451742E-8;
-2,74780527297381E-8;
-9,54394649703839E-8;
-1,49213545894432E-7;
-1,59805025736125E-7;
-1,4259039706104E-7;
-1,46713617587829E-7;
-2,07622074084296E-7;
-3,04246947483852E-7;
-3,6121659333366E-7;
-3,0023400347039E-7;
-1,03035131869752E-7;
1,64082033854086E-7;
3,86173489404826E-7;
4,71578048625149E-7;
4,07561719859856E-7;
2,60120550131597E-7;
1,21331091310479E-7;
4,64493071838192E-8;
2,73444162558565E-8;
1,7047665973537E-8;
-2,08671431497209E-8;
-8,13897486344343E-8;
-1,29467879979111E-7;
-1,3950400237128E-7;
-1,24718464578523E-7;
-1,27968832642416E-7;
-1,80431866514728E-7;
-2,64250678657586E-7;
-3,14278226876591E-7;
-2,62550974653093E-7;
-9,28921024395833E-8;
1,37719085092732E-7;
3,30106517773701E-7;
4,05053587270189E-7;
3,51395586098772E-7;
2,25852950570007E-7;
1,07598533974923E-7;
4,40190459347779E-8;
2,78856137063085E-8;
1,86345916121451E-8;
-1,50107503483071E-8;
-6,84334525868937E-8;
-1,11049343029549E-7;
-1,20479857748389E-7;
-1,0794541603481E-7;
-1,10420673859345E-7;
-1,55059267720443E-7;
-2,26951295648765E-7;
-2,70450160822803E-7;
-2,2722427880324E-7;
-8,30766837143356E-8;
1,13637862693825E-7;
2,78378405410047E-7;
3,43493920308999E-7;
2,99288435387359E-7;
1,93896957251229E-7;
9,45476548919621E-8;
4,13529394619188E-8;
2,79447902353583E-8;
1,97033304035539E-8;
-9,88023639880502E-9;
-5,65829687960984E-8;
-9,4011202867272E-8;
-1,02801003346942E-7;
-9,23344079450451E-8;
-9,41275294759826E-8;
-1,31573341239481E-7;
-1,92444598065668E-7;
-2,29852626111219E-7;
-1,94372652363666E-7;
-7,36689037538096E-8;
9,18238238919865E-8;
2,31040146859247E-7;
2,86984389207701E-7;
2,51330901977995E-7;
1,64335637096777E-7;
8,22512625587536E-8;
3,85214784892942E-8;
2,75921673182503E-8;
2,03191436970944E-8;
-5,43464019874086E-9;
-4,58375740052032E-8;
-7,8382224250442E-8;
-8,65091980660473E-8;
-7,79254476464864E-8;
-7,91230008996949E-8;
-1,10006086286195E-7;
-1,6077129033443E-7;
-1,92542538594177E-7;
-1,64060961604884E-7;
-6,47289362873888E-8;
7,22326140895471E-8;
1,88066098550659E-7;
2,35521327166181E-7;
2,07543194359428E-7;
1,37205009211001E-7;
7,07610393683676E-8;
3,55898045671687E-8;
2,68939930319678E-8;
2,05390328934265E-8;
-1,63185571573943E-9;
-3,61760855445277E-8;
-6,41618118874754E-8;
-7,16154909830106E-8;
-6,47330246886833E-8;
-6,54136531531562E-8;
-9,03560795253068E-8;
-1,31927618508568E-7;
-1,58517673220304E-7;
-1,36305161646939E-7;
-5,63025921514976E-8;
5,47902944079408E-8;
1,49370973028193E-7;
1,89029626011783E-7;
1,67876868667603E-7;
1,12498930275296E-7;
6,01085524766637E-8;
3,26117727827012E-8;
2,59154764128512E-8;
2,042250875558E-8;
1,57106325765792E-9;
-2,75662971719727E-8;
-5,13279841727304E-8;
-5,81110669982628E-8;
-5,2750835797406E-8;
-5,2986768491332E-8;
-7,25948548301057E-8;
-1,0586568735006E-7;
-1,27731779715593E-7;
-1,11088047357827E-7;
-4,84215420548155E-8;
3,94078492692647E-8;
1,14822480514026E-7;
1,47374989016047E-7;
1,322364291827E-7;
9,01780231409201E-8;
5,03090273273035E-8;
2,96346375612454E-8;
2,47097397460075E-8;
2,00203409084952E-8;
4,22480041842595E-9;
-1,99635827412431E-8;
-3,98457609345433E-8;
-4,59645527516078E-8;
-4,1955045997144E-8;
-4,1815978582803E-8;
-5,66715652826495E-8;
-8,25098279149444E-8;
-1,00100088434201E-7;
-8,83542217188904E-8;
-4,11068763812278E-8;
2,59755815534193E-8;
8,42498902174262E-8;
1,10374109765897E-7;
1,00480652471889E-7;
7,01751424288614E-8;
4,13634380367613E-8;
2,66994112955418E-8;
2,33302477217357E-8;
1,93846499710488E-8;
6,37538358244181E-9;
-1,33175476460552E-8;
-2,96607366902997E-8;
-3,51356284796939E-8;
-3,23109536243895E-8;
-3,18565429536229E-8;
-4,25154680487743E-8;
-6,17522683208204E-8;
-7,55062594832552E-8;
-6,80260781239449E-8;
-3,4367682065447E-8;
1,43727264401717E-8;
5,74488174359291E-8;
7,78045576312487E-8;
7,24369592255565E-8;
5,24026912978666E-8;
3,32598595798566E-8;
2,38391471804462E-8;
2,1822571533106E-8;
1,85582932984636E-8;
8,07301169267109E-9;
-7,57040224527891E-9;
-2,07126787789127E-8;
-2,55657634378592E-8;
-2,37727413994933E-8;
-2,30579235685883E-8;
-3,00461833427238E-8;
-4,34738810791316E-8;
-5,380949310864E-8;
-5,00030310653674E-8;
-2,82049931506293E-8;
4,47302849061229E-9;
3,419608533125E-8;
4,94188648921374E-8;
4,79070587086228E-8;
3,675451010053E-8;
2,59791288300948E-8;
2,10835442541327E-8;
2,02301284401553E-8;
1,75822077587904E-8;
9,36286631879507E-9;
-2,65952353343251E-9;
-1,29291760651212E-8;
-1,71884126760541E-8;
-1,62821592947793E-8;
-1,5356540297102E-8;
-1,91665159741224E-8;
-2,75317416965121E-8;
-3,4849082903136E-8;
-3,41683371691129E-8;
-2,26126197337628E-8;
-3,85665045734576E-9;
1,42491764679209E-8;
2,4945264218882E-8;
2,66736270648376E-8;
2,31092989517808E-8;
1,94901952474995E-8;
1,84517446247726E-8;
1,85851881491757E-8;
1,64954189801681E-8;
1,02940240239886E-8;
1,47764422624138E-9;
-6,23616871368908E-9;
-9,93356236922434E-9;
-9,77886862896463E-9;
-8,68680654092698E-9;
-9,77627777162025E-9;
-1,37770096191901E-8;
-1,84555356531282E-8;
-2,03933137850686E-8;
-1,75760196022378E-8;
-1,07472354942388E-8;
-2,63657869679993E-9;
4,10148267926766E-9;
8,50677705179688E-9;
1,13377486945769E-8;
1,37587265491895E-8;
1,59648393563369E-8;
1,6921364506557E-8;
1,53306342796295E-8;
1,09105619628955E-8;
4,90642904008014E-9;
-5,53157560956654E-10;
-3,72211693663714E-9;
-4,19632810667972E-9;
-2,97837031950626E-9;
-1,77014071527035E-9;
-2,05168676542548E-9;
-4,44477149315987E-9;
-8,54105537006894E-9;
-1,30780294731939E-8;
-1,63366235114488E-8;
-1,67171079431469E-8;
-1,33998071524699E-8;
-6,83002123025565E-9;
1,30665270433379E-9;
8,74341065209737E-9;
1,36320755264399E-8;
1,52667960818663E-8;
1,41156053558399E-8;
1,12511732626877E-8;
7,69360436428262E-9;
4,20402301419841E-9;
1,52387963750135E-9;
5,33346011048916E-10;
1,84487638829137E-9;
4,96319836473297E-9;
7,80559324775051E-9;
7,36737951315401E-9;
1,52908481979914E-9;
-9,09382819221872E-9;
-2,07527916837383E-8;
-2,8246800943936E-8;
-2,78510748618802E-8;
-1,9574389570833E-8;
-7,12228543600661E-9;
4,40433884616513E-9;
1,14651228150098E-8;
1,36414469157418E-8;
1,2877856497314E-8;
1,13584653008899E-8;
9,90113671594178E-9;
8,11359636502813E-9;
5,8864320000222E-9;
4,48218190697926E-9;
5,85475607424081E-9;
1,05325769452077E-8;
1,59550734054267E-8;
1,71667969391606E-8;
9,96334491687554E-9;
-5,59945741590486E-9;
-2,41239956842639E-8;
-3,74695633010531E-8;
-3,95387521385651E-8;
-2,99643244528E-8;
-1,40872914746799E-8;
6,89693895980306E-10;
9,46625243855533E-9;
1,20654607163357E-8;
1,16382517353113E-8;
1,12695281933546E-8;
1,15926790727763E-8;
1,1258799545034E-8;
9,44708417172753E-9;
7,7198480405278E-9;
9,12785825665721E-9;
1,50476505213364E-8;
2,25578633647794E-8;
2,51411197123554E-8;
1,69033898350698E-8;
-2,56686279057393E-9;
-2,65724058864452E-8;
-4,46325838253959E-8;
-4,87448099436237E-8;
-3,82314778605663E-8;
-1,97259015412205E-8;
-2,44602101145547E-9;
7,63935147145406E-9;
1,05548074515196E-8;
1,04148979869103E-8;
1,10165391452283E-8;
1,28283708179255E-8;
1,37184068640233E-8;
1,2283791557922E-8;
1,0314387949004E-8;
1,17347996133062E-8;
1,86133176599266E-8;
2,77690371345058E-8;
3,14695548673846E-8;
2,24929123310101E-8;
3,76613626990096E-11;
-2,82138188033935E-8;
-4,9967424640249E-8;
-5,57399747791187E-8;
-4,46029094384417E-8;
-2,41703633769456E-8;
-5,05002616301826E-9;
5,981494287968E-9;
9,12100231284944E-9;
9,2247567213986E-9;
1,06282055619653E-8;
1,36625239566536E-8;
1,55691525608293E-8;
1,44725317251043E-8;
1,2331801212707E-8;
1,37471951751027E-8;
2,13333672612712E-8;
3,1739292540366E-8;
3,63297136695267E-8;
2,68706805581317E-8;
2,24215301447498E-9;
-2,91555188899928E-8;
-5,3692965734237E-8;
-6,07838261688505E-8;
-4,92955961344358E-8;
-2,75529680622868E-8;
-7,1704633522281E-9;
4,49287762873882E-9;
7,77214109643769E-9;
8,0794080796884E-9;
1,0136960378259E-8;
1,41520307379669E-8;
1,68831422533036E-8;
1,60887393988561E-8;
1,38389703299021E-8;
1,52321357378686E-8;
2,33046107018798E-8;
3,46131029464395E-8;
3,98873293251647E-8;
3,01656755474657E-8;
4,07958041895296E-9;
-2,94998125673463E-8;
-5,60192530912332E-8;
-6,41182694567323E-8;
-5,2512429144309E-8;
-2,99958737174057E-8;
-8,85638171585999E-9;
3,16720876820816E-9;
6,51729646069445E-9;
6,9896202989877E-9;
9,56521367192994E-9;
1,43445910919217E-8;
1,77294585930839E-8;
1,72034802856827E-8;
1,48972536580363E-8;
1,62541864637165E-8;
2,46210213647412E-8;
3,6526549758699E-8;
4,23041671900404E-8;
3,25098732268542E-8;
5,58230647849386E-9;
-2,93402733358407E-8;
-5,71412820241472E-8;
-6,59765729488113E-8;
-5,4447625285134E-8;
-3,16134778594927E-8;
-1,01502376457212E-8;
1,99795595647647E-9;
5,35736741304268E-9;
5,96185091548833E-9;
8,93530615052738E-9;
1,42867840572924E-8;
1,81720780411537E-8;
1,78802361858765E-8;
1,55628647914565E-8;
1,68727000973143E-8;
2,5369331379318E-8;
3,76085435921926E-8;
4,37298186709844E-8;
3,40213872350553E-8;
6,78003050407649E-9;
-2,87632980361028E-8;
-5,72406338836638E-8;
-6,65727055576099E-8;
-5,52826143533778E-8;
-3,25191123844178E-8;
-1,10977849222581E-8;
9,76973906841829E-10;
4,29581031980575E-9;
5,00218884619796E-9;
8,26581342407398E-9;
1,40221542709054E-8;
1,82710075021443E-8;
1,81813714452612E-8;
1,58921836065927E-8;
1,71463219302524E-8;
2,56312471530566E-8;
3,79764299117922E-8;
4,43023207197663E-8;
3,48113965889519E-8;
7,70468569989388E-9;
-2,78457044109789E-8;
-5,648261484113E-8;
-6,61027962971245E-8;
-5,51830607917175E-8;
-3,28134102079086E-8;
-1,17412310492033E-8;
9,72621804908841E-11;
3,33407928809286E-9;
4,11522122636252E-9;
7,57496142970019E-9;
1,35866537028498E-8;
1,80823328774759E-8;
1,81663810525736E-8;
1,59337465270019E-8;
1,71262408122945E-8;
2,548254094847E-8;
3,77415809433359E-8;
4,41526068847398E-8;
3,49858539143217E-8;
8,38625294639005E-9;
-2,66588835554671E-8;
-5,50207365256735E-8;
-6,47477071871751E-8;
-5,43032207833465E-8;
-3,25923952242143E-8;
-1,21183804332559E-8;
-6,50376942420256E-10;
2,46962555310953E-9;
3,30260300776767E-9;
6,87756590202899E-9;
1,30167182636423E-8;
1,76555863458935E-8;
1,78857805106169E-8;
1,57340772468928E-8;
1,68603203960385E-8;
2,49915615540298E-8;
3,70050751437817E-8;
4,33989677994433E-8;
3,4638627904144E-8;
8,85029022470369E-9;
-2,52627931364351E-8;
-5,29877567285982E-8;
-6,26716949398638E-8;
-5,2781836336028E-8;
-3,1940435258719E-8;
-1,22663255376417E-8;
-1,27579797708705E-9;
1,70110529469792E-9;
2,56523137995866E-9;
6,18411834082345E-9;
1,23429733527263E-8;
1,70355751381707E-8;
1,73861647060703E-8;
1,53377682626902E-8;
1,63930716409905E-8;
2,42199371424215E-8;
3,58586165133102E-8;
4,21495630653378E-8;
3,38610191847492E-8;
9,1260164259444E-9;
-2,37161644435534E-8;
-5,05107363317273E-8;
-6,00229210689056E-8;
-5,07449304408759E-8;
-3,09382593841366E-8;
-1,22214356995703E-8;
-1,78956719455868E-9;
1,02393140943636E-9;
1,90070671986599E-9;
5,50537672249702E-9;
1,15924908025708E-8;
1,62628200383395E-8;
1,67123920871012E-8;
1,47818477037332E-8;
1,57635911239076E-8;
2,32250411200078E-8;
3,43851525333634E-8;
4,050275941872E-8;
3,27317208352087E-8;
9,23930059995686E-9;
-2,20645117534819E-8;
-4,76967916762631E-8;
-5,69326332163393E-8;
-4,83066078567426E-8;
-2,96545269895623E-8;
-1,20121123024196E-8;
-2,20167878765982E-9;
4,34593667700991E-10;
1,31029186734924E-9;
4,8508994175388E-9;
1,07901421445466E-8;
1,53760851260607E-8;
1,59020496736534E-8;
1,40987774727148E-8;
1,5007594586226E-8;
2,20570729956256E-8;
3,26569799586821E-8;
3,85452644972082E-8;
3,1324745984111E-8;
9,21208110812565E-9;
-2,03531336188379E-8;
-4,46431881579979E-8;
-5,35183791842427E-8;
-4,55678490915726E-8;
-2,81551844991598E-8;
-1,16682669557079E-8;
-2,52080266485466E-9;
-7,20293716586978E-11;
7,89407449866181E-10;
4,22566270380933E-9;
9,95650512929301E-9;
1,44064000619074E-8;
1,49898890981366E-8;
1,33201575973255E-8;
1,4156797623924E-8;
2,07617189777025E-8;
3,07423840387939E-8;
3,63560364524468E-8;
2,97015645818668E-8;
9,06621331390634E-9;
-1,86156863605092E-8;
-4,14350136002448E-8;
-4,98832294124847E-8;
-4,26143927716484E-8;
-2,64952566846286E-8;
-1,12175368593922E-8;
-2,75674480863432E-9;
-5,00406278154564E-10;
3,36208436207595E-10;
3,6352847515766E-9;
9,10985060963437E-9;
1,33820452928208E-8;
1,40056320604618E-8;
1,24741372142609E-8;
1,32394811921936E-8;
1,93781565587622E-8;
2,86975272305356E-8;
3,40019863654227E-8;
2,79201767980036E-8;
8,82175788429057E-9;
-1,68825655716295E-8;
-3,81429348225058E-8;
-4,61146862565646E-8;
-3,9525716090944E-8;
-2,47255141180507E-8;
-1,06810532607001E-8;
-2,91904916388705E-9;
-8,57704222930528E-10;
-5,32226771904429E-11;
3,08239880405396E-9;
8,26329321067823E-9;
1,2327073985067E-8;
1,29765883116898E-8;
1,15843025373381E-8;
1,2278450129224E-8;
1,79390439301037E-8;
2,65733313320802E-8;
3,15446637107253E-8;
2,6033552808587E-8;
8,49707743186361E-9;
-1,51818087263159E-8;
-3,48287208929433E-8;
-4,22906401068998E-8;
-3,63698377932125E-8;
-2,2887416606442E-8;
-1,008148928093E-8;
-3,01800421675666E-9;
-1,14864123732825E-9;
-3,83714960384682E-10;
2,57076926423892E-9;
7,43031403146181E-9;
1,12617780483829E-8;
1,19255509813561E-8;
1,06682162072589E-8;
1,12955419146994E-8;
1,64754662398814E-8;
2,44121669210167E-8;
2,90356724965589E-8;
2,40820825435567E-8;
8,10904733588601E-9;
-1,35320278224572E-8;
-3,15466018929956E-8;
-3,84747555478196E-8;
-3,32017782531961E-8;
-2,10199713206577E-8;
-9,43589838395573E-9;
-3,05915261502134E-9;
-1,37866291140235E-9;
-6,5775082073203E-10;
2,10315750565962E-9;
6,62409006027554E-9;
1,02043060582485E-8;
1,08701202623038E-8;
9,74635219091977E-9;
1,0308166053421E-8;
1,50123912123089E-8;
2,22524807827056E-8;
2,65183963174485E-8;
2,21059337027827E-8;
7,67412566247001E-9;
-1,1949085713089E-8;
-2,83393242580003E-8;
-3,47215166127541E-8;
-3,00679384619863E-8;
-1,91534380253165E-8;
-8,76050597448021E-9;
-3,0517027027611E-9;
-1,55423223126576E-9;
-8,8164099711288E-10;
1,67618630522585E-9;
5,84887923091442E-9;
9,16817050892833E-9;
9,82739433148971E-9;
8,83241534797344E-9;
9,33260922334596E-9;
1,35710312939685E-8;
2,01231871908319E-8;
2,40299428648318E-8;
2,01346964108015E-8;
7,20212314928665E-9;
-1,04463294124951E-8;
-2,52402005252158E-8;
-3,10753509583089E-8;
-2,70097233389017E-8;
-1,73153963993771E-8;
-8,07054123146392E-9;
-3,0041510891187E-9;
-1,68179476936423E-9;
-1,05902109982477E-9;
1,29164254678034E-9;
5,1129587194414E-9;
8,16620396645183E-9;
8,81035670152337E-9;
7,93847404635591E-9;
8,37994369517058E-9;
1,21681842730385E-8;
1,80514939973603E-8;
2,16019757486043E-8;
1,81979292401453E-8;
6,70712817704288E-9;
-9,03382434542066E-9;
-2,22783729134341E-8;
-2,75737497813309E-8;
-2,405799945301E-8;
-1,55257691655255E-8;
-7,37804618263058E-9;
-2,92232324310819E-9;
-1,76584819604311E-9;
-1,19298369437429E-9;
9,50555544673762E-10;
4,42115303689162E-9;
7,20763109164163E-9;
7,83058927584123E-9;
7,07483126289528E-9;
7,4607458621165E-9;
1,08167972011687E-8;
1,60559390049052E-8;
1,92582208539127E-8;
1,63142540177386E-8;
6,19776330266004E-9;
-7,71851929411489E-9;
-1,94743118944327E-8;
-2,42400468446746E-8;
-2,12390890537768E-8;
-1,38034931475944E-8;
-6,69089120720127E-9;
-2,81288380269069E-9;
-1,81241258084069E-9;
-1,29072617428971E-9;
6,48308422976857E-10;
3,77567715546931E-9;
6,29913406252461E-9;
6,89619818418217E-9;
6,24717938646142E-9;
6,58202560595144E-9;
9,530185724113E-9;
1,41539100670533E-8;
1,70186073715881E-8;
1,45039293822877E-8;
5,68488278598081E-9;
-6,50283298041862E-9;
-1,6844389407108E-8;
-2,10981309765431E-8;
-1,85703670890252E-8;
-1,2163532867418E-8;
-6,02109584339855E-9;
-2,68071568309172E-9;
-1,82595239315246E-9;
-1,35517799740193E-9;
3,84264650828692E-10;
3,18042973566918E-9;
5,44748817449556E-9;
6,01196317830265E-9;
5,46330158784989E-9;
5,75147371339688E-9;
8,31439834162661E-9;
1,23571462331849E-8;
1,48986251115333E-8;
1,27804639135113E-8;
5,17453370646416E-9;
-5,38983355573715E-9;
-1,43960782626952E-8;
-1,81621999609149E-8;
-1,60687810006468E-8;
-1,06133263899343E-8;
-5,37262537892364E-9;
-2,53246446649926E-9;
-1,81164747376098E-9;
-1,38952250079571E-9;
1,58022720312609E-10;
2,63447456963818E-9;
4,65445219757209E-9;
5,18662261604072E-9;
4,72884956398149E-9;
4,97248563158843E-9;
7,17643154032654E-9;
1,06748243186734E-8;
1,29091464024706E-8;
1,11529984846071E-8;
4,67350402073774E-9;
-4,37939113891219E-9;
-1,21381414454664E-8;
-1,54406733508346E-8;
-1,37421461129948E-8;
-9,16249504650639E-9;
-4,75188295032519E-9;
-2,37177911001067E-9;
-1,77358208536096E-9;
-1,39931432918089E-9;
-3,58351391866474E-11;
2,13837218016006E-9;
3,92208596887394E-9;
4,41765206356308E-9;
4,04420727402976E-9;
4,24863193266733E-9;
6,11914789634808E-9;
9,11131256491706E-9;
1,10567220663628E-8;
9,62959718455396E-9;
4,18756230291928E-9;
-3,46883307764864E-9;
-1,0071324164584E-8;
-1,29385869382209E-8;
-1,15942677493376E-8;
-7,81390455861735E-9;
-4,16375642089452E-9;
-2,20336481728944E-9;
-1,71595547708124E-9;
-1,3874087491577E-9;
-1,96941592896249E-10;
1,69304581641347E-9;
3,25168395824498E-9;
3,71002860565684E-9;
3,41216959344099E-9;
3,57949501216198E-9;
5,14636360259603E-9;
7,67154462348815E-9;
9,34623397049484E-9;
8,21609520923964E-9;
3,72063757197245E-9;
-2,65631614073307E-9;
-8,19645062131741E-9;
-1,06569348333998E-8;
-9,62827455589527E-9;
-6,57319348405827E-9;
-3,61039819057479E-9;
-2,02907809201074E-9;
-1,64320998435137E-9;
-1,35785330705009E-9;
-3,29081570896963E-10;
1,29541108462764E-9;
2,64361888559643E-9;
3,06441165306658E-9;
2,83364893263464E-9;
2,96781812027229E-9;
4,25595472183004E-9;
6,35300519558769E-9;
7,77913597745651E-9;
6,91349516765657E-9;
3,27485692901968E-9;
-1,93681157599323E-9;
-6,50647227039524E-9;
-8,59169632663073E-9;
-7,8415404372648E-9;
-5,4381104495058E-9;
-3,09581353608881E-9;
-1,85474083705739E-9;
-1,55858284118822E-9;
-1,31306621618204E-9;
-4,35880564395931E-10;
9,4222199568974E-10;
2,09617698345696E-9;
2,47919627039603E-9;
2,30828996726281E-9;
2,41290618345776E-9;
3,44939521786839E-9;
5,15823420466211E-9;
6,35327827427907E-9;
5,72172122240225E-9;
2,85365882456526E-9;
-1,30825757742093E-9;
-4,99859952783777E-9;
-6,73940744074244E-9;
-6,23300750058926E-9;
-4,40859141208208E-9;
-2,61863657947917E-9;
-1,67921764758989E-9;
-1,46375404655544E-9;
-1,25669594701781E-9;
-5,1733989832273E-10;
6,33699310878635E-10;
1,6066357022644E-9;
1,95338252295494E-9;
1,83374932354803E-9;
1,91274855732545E-9;
2,72512284325388E-9;
4,08344197298559E-9;
5,06765727870997E-9;
4,64069841526784E-9;
2,46007422892653E-9;
0,00933343328341771;
0,0226297261618242;
0,0163727321865769;
0,00943309138036327;
0,0121693883036864;
0,00702616515166441;
0,00563481561891112;
0,0045827086897775;
0,000840498901436914;
0,00103239179263795;
-0,0011904391289855;
-0,00199195148233719;
-0,00280713545094095;
-0,00455367990803269;
-0,00488732353192049;
-0,00585589863152956;
-0,00594121414883266;
-0,00618248440374145;
-0,00699357299997222;
-0,00792070145381238;
-0,00934888829113032;
-0,0102428912061826;
-0,0105185030300324;
-0,0101085266670574;
-0,00920766732348261;
-0,00843029858233481;
-0,00783043551297885;
-0,00745747275688895;
-0,00704805439523956;
-0,00641867769003074;
-0,00567545349482929;
-0,00495848647604117;
-0,00445308034323937;
