2,91394005286864E-5;
5,72525649300248E-5;
6,64456715730482E-5;
5,71462262287852E-5;
4,13775611239413E-5;
3,23902439043127E-5;
3,37970172818251E-5;
3,7120865612217E-5;
2,96190930195668E-5;
5,77056624392089E-6;
-2,71262560346347E-5;
-5,38652586440173E-5;
-6,27164075804313E-5;
-5,39963526179143E-5;
-3,89535561766936E-5;
-3,00863074433702E-5;
-3,09647634315817E-5;
-3,38731251727985E-5;
-2,70283993865193E-5;
-5,24119981659839E-6;
2,48575949230435E-5;
4,93250806488405E-5;
5,74133165485816E-5;
4,94731507484328E-5;
3,58960739641031E-5;
2,81459621070059E-5;
2,93677731960816E-5;
3,22672456275271E-5;
2,58596059156562E-5;
5,37315678981865E-6;
-2,29280445911502E-5;
-4,5973989261493E-5;
-5,36821385462315E-5;
-4,6321027708196E-5;
-3,35428914809924E-5;
-2,60621608256135E-5;
-2,69225578170002E-5;
-2,94874674588206E-5;
-2,36444329806032E-5;
-4,94784103120091E-6;
2,09101449253968E-5;
4,19725770583125E-5;
4,9019890334436E-5;
4,23334131997419E-5;
3,07881440778827E-5;
2,41864950742073E-5;
2,52364389446978E-5;
2,77393503438311E-5;
2,23408327626829E-5;
4,9654117817035E-6;
-1,90794696365226E-5;
-3,87009733865997E-5;
-4,53413869296859E-5;
-3,92249229844677E-5;
-2,85279201577277E-5;
-2,23165789210604E-5;
-2,31499684199639E-5;
-2,53908605503074E-5;
-2,04713875360311E-5;
-4,63271260094341E-6;
1,73012346884083E-5;
3,52088888691547E-5;
4,12833328241624E-5;
3,57434977640087E-5;
2,60664619987347E-5;
2,05220314454339E-5;
2,14132442796284E-5;
2,35483088386098E-5;
1,90729093651833E-5;
4,55328281286995E-6;
-1,55807178263459E-5;
-3,205179407837E-5;
-3,77024212019468E-5;
-3,27164362576419E-5;
-2,39164286649271E-5;
-1,88577421777622E-5;
-1,96567347046097E-5;
-2,15942849227921E-5;
-1,75193874958302E-5;
-4,30242592741577E-6;
1,40292687622311E-5;
2,90369368942485E-5;
3,42091002830158E-5;
2,97092641454025E-5;
2,17361437333778E-5;
1,71569627111394E-5;
1,79024620406954E-5;
1,96987803034475E-5;
1,60609458528002E-5;
4,14207740251194E-6;
-1,2426649142837E-5;
-2,60219303872953E-5;
-3,07619212640026E-5;
-2,67940806039924E-5;
-1,97091485347003E-5;
-1,56884517666515E-5;
-1,64471107160352E-5;
-1,81027748008253E-5;
-1,47939261377463E-5;
-3,96296761135606E-6;
1,10878321668E-5;
2,34504645293462E-5;
2,77921088589928E-5;
2,42275871021857E-5;
1,77958717862653E-5;
1,40907397978597E-5;
1,47033084907003E-5;
1,61899172612329E-5;
1,33057394054364E-5;
3,7364562219395E-6;
-9,60777415968181E-6;
-2,0598492788396E-5;
-2,45069352653503E-5;
-2,14481393545958E-5;
-1,59009051132371E-5;
-1,28069683156147E-5;
-1,35207012951685E-5;
-1,49163182166214E-5;
-1,22965395570627E-5;
-3,61969562385817E-6;
8,46658195120021E-6;
1,84356223055646E-5;
2,20185219538418E-5;
1,92878460359719E-5;
1,42389486527752E-5;
1,13186694454248E-5;
1,18107403177276E-5;
1,30162468707237E-5;
1,08044349547328E-5;
3,34043866596847E-6;
-7,11112004484225E-6;
-1,57617928793526E-5;
-1,89166392997386E-5;
-1,66621359154273E-5;
-1,24816502765804E-5;
-1,0207772627658E-5;
-1,08732101368516E-5;
-1,2030653716421E-5;
-1,0025406455223E-5;
-3,27735370528208E-6;
6,15205097220867E-6;
1,39724193721616E-5;
1,68673791199864E-5;
1,48732990363393E-5;
1,10542583344878E-5;
8,83264922990874E-6;
9,2162209781373E-6;
1,01684878150148E-5;
8,55114860382896E-6;
2,95743703639634E-6;
-4,92100301564213E-6;
-1,14867427006536E-5;
-1,39639341150839E-5;
-1,24141863134468E-5;
-9,43738958172451E-6;
-7,882238149176E-6;
-8,49712471168525E-6;
-9,43801273813687E-6;
-7,97589457519586E-6;
-2,94007148728874E-6;
4,12836934907937E-6;
1,00360243379812E-5;
1,23120753559425E-5;
1,09623368217839E-5;
8,22715571605144E-6;
6,6218334440929E-6;
6,90839751340384E-6;
7,63429268793216E-6;
6,5375260847766E-6;
2,59028754110705E-6;
-3,01970944215331E-6;
-7,74410782837137E-6;
-9,61684885701826E-6;
-8,67817448100363E-6;
-6,75102307934091E-6;
-5,8192623597786E-6;
-6,38232538171455E-6;
-7,1277790484844E-6;
-6,14107701417579E-6;
-2,61138851900471E-6;
2,37791139205415E-6;
6,59793271414902E-6;
8,32166568874721E-6;
7,52957656020607E-6;
5,74024026593728E-6;
4,67322544662526E-6;
4,87371370514244E-6;
5,39891578121286E-6;
4,75325479142858E-6;
2,24128249481583E-6;
-1,38809888250128E-6;
-4,50161394979023E-6;
-5,83981295951251E-6;
-5,42483325724386E-6;
-4,40308835956374E-6;
-4,00580541740976E-6;
-4,51665000740755E-6;
-5,0870934859135E-6;
-4,5121744888866E-6;
-2,29428316921798E-6;
8,81841314560174E-7;
3,62698400611567E-6;
4,8620299011064E-6;
4,54684928143388E-6;
3,57405672916214E-6;
2,9722145047145E-6;
3,09695231183482E-6;
3,44579082513824E-6;
3,1865047952803E-6;
1,91221413099169E-6;
-6,12844200032132E-9;
-1,72492835275521E-6;
-2,59475488235924E-6;
-2,6226706911652E-6;
-2,37242950962637E-6;
-2,42740155283644E-6;
-2,88639059994364E-6;
-3,30139075342775E-6;
-3,07897924846423E-6;
-1,99120214742703E-6;
-3,79391941032449E-7;
1,09025870935112E-6;
1,89688388913889E-6;
1,98405701285155E-6;
1,70769970170557E-6;
1,50303220248863E-6;
1,56171734930074E-6;
1,75706485680453E-6;
1,82433804080248E-6;
1,60440199893524E-6;
1,14669127312245E-6;
6,21510714889131E-7;
1,57925851946589E-7;
-2,3879685914023E-7;
-6,3676422419582E-7;
-1,06858710709869E-6;
-1,47673262297585E-6;
-1,7548746492115E-6;
-1,83021584870436E-6;
-1,70409262750492E-6;
-1,42564920614865E-6;
-1,04615711906111E-6;
-6,11336859517646E-7;
-1,90074829027879E-7;
1,19355986640953E-7;
2,49168051474975E-7;
2,50845653393366E-7;
3,14044918898778E-7;
6,53057994592593E-7;
1,31874791114044E-6;
2,09091654299276E-6;
2,57375174793468E-6;
2,45853994234957E-6;
1,76038097320864E-6;
8,26806631867578E-7;
8,67253262850043E-8;
-2,72140139409426E-7;
-4,30935603842279E-7;
-7,53860137619031E-7;
-1,43444907253056E-6;
-2,27674934482166E-6;
-2,81649909006496E-6;
-2,70071925971595E-6;
-2,00735287008205E-6;
-1,21324077561453E-6;
-8,06280218022199E-7;
-8,53222929379638E-7;
-9,02407972895632E-7;
-3,41485960825431E-7;
1,05576481118508E-6;
2,84684730864385E-6;
4,16773812021003E-6;
4,34740202564642E-6;
3,40854827320187E-6;
2,04136921840758E-6;
1,05491119125793E-6;
7,43312793092032E-7;
6,87487494563826E-7;
1,62569917637434E-7;
-1,18334115790311E-6;
-2,95217176444858E-6;
-4,25477773205567E-6;
-4,40923558260552E-6;
-3,49957577644375E-6;
-2,31241898406145E-6;
-1,6803015404484E-6;
-1,76813670755481E-6;
-1,91153068195837E-6;
-1,17362324529828E-6;
8,15625393653286E-7;
3,43426326903825E-6;
5,43878306147785E-6;
5,86423877418599E-6;
4,73899155711144E-6;
3,02984539891389E-6;
1,85236064407666E-6;
1,58565696684971E-6;
1,61760396425191E-6;
9,31777146147426E-7;
-9,51466235656975E-7;
-3,47082192033706E-6;
-5,39430533403733E-6;
-5,7742058206766E-6;
-4,69806737999427E-6;
-3,20023437854512E-6;
-2,38972291866879E-6;
-2,51137519214959E-6;
-2,73238642038764E-6;
-1,85765149804136E-6;
5,98203156645735E-7;
3,87221615573182E-6;
6,42115923495764E-6;
7,04771526026665E-6;
5,7841776786689E-6;
3,8146821529419E-6;
2,49524683052968E-6;
2,27078287251877E-6;
2,37649569747809E-6;
1,5664785820716E-6;
-7,39176692415056E-7;
-3,85084606291851E-6;
-6,26733127212125E-6;
-6,83185982606081E-6;
-5,63330174870829E-6;
-3,89820089306638E-6;
-2,95099083333331E-6;
-3,10002163189556E-6;
-3,38361582375457E-6;
-2,40763203596064E-6;
4,03109221361755E-7;
4,17885563988741E-6;
7,1477665976975E-6;
7,9350357161726E-6;
6,57541435063158E-6;
4,41761194867859E-6;
2,99932648429014E-6;
2,81424600206153E-6;
2,98091374870737E-6;
2,07922333577896E-6;
-5,46530019291744E-7;
-4,10947286435337E-6;
-6,90473104547349E-6;
-7,6169898480231E-6;
-6,33460367318442E-6;
-4,42706859898099E-6;
-3,38000425865507E-6;
-3,55059482446E-6;
-3,88325056956847E-6;
-2,83724183520706E-6;
2,29732252511894E-7;
4,37130807511054E-6;
7,64987148263923E-6;
8,56164484873554E-6;
7,14258852104206E-6;
4,85945615726279E-6;
3,37978954212629E-6;
3,2310996075367E-6;
3,44708816066799E-6;
2,48225028908697E-6;
-3,7332096307349E-7;
-4,26291367202768E-6;
-7,33578779254076E-6;
-8,16267774443583E-6;
-6,82991228906682E-6;
-4,80665472763244E-6;
-3,69197776105917E-6;
-3,87890665146881E-6;
-4,24855725037789E-6;
-3,15964836847664E-6;
7,7272278453081E-8;
4,46559080618702E-6;
7,95691363267961E-6;
8,96099719125932E-6;
7,51396678470465E-6;
5,15997014303899E-6;
3,65112978232746E-6;
3,53576134067604E-6;
3,79058372917836E-6;
2,78737232266497E-6;
-2,19118837279126E-7;
-4,32628504375372E-6;
-7,58801288128619E-6;
-8,50008893174763E-6;
-7,14559772896488E-6;
-5,0557011025397E-6;
-3,90133176182108E-6;
-4,09994879447939E-6;
-4,49591857491828E-6;
-3,38740345225796E-6;
-5,52179438714998E-8;
4,4765487017774E-6;
8,09637523505796E-6;
9,1643988880532E-6;
7,7160484445298E-6;
5,33773772246974E-6;
3,82705680375241E-6;
3,74191796565083E-6;
4,02619947606915E-6;
3,0058766567309E-6;
-8,33109372149218E-8;
-4,31355568568473E-6;
-7,68703689180959E-6;
-8,65833637373416E-6;
-7,30633720343834E-6;
-5,19178822554943E-6;
-4,02162128106767E-6;
-4,22781763421205E-6;
-4,64074268852413E-6;
-3,53237365030326E-6;
-1,68813101659775E-7;
4,41782855717826E-6;
8,09369726657745E-6;
9,20089268829119E-6;
7,77346656288036E-6;
5,41009343452014E-6;
3,92042602856148E-6;
3,86244736777663E-6;
4,16787284898352E-6;
3,14845597311823E-6;
3,48764791626585E-8;
-4,2375348402067E-6;
-7,65654514100544E-6;
-8,66439046593121E-6;
-7,33503564844333E-6;
-5,23127009418198E-6;
-4,06548225147205E-6;
-4,27566081196807E-6;
-4,69741171358566E-6;
-3,6056817830605E-6;
-2,64676011638106E-7;
4,30186690695973E-6;
7,97224036844505E-6;
9,09721454094955E-6;
7,70894097283387E-6;
5,39307585808341E-6;
3,94319600538299E-6;
3,90936799032835E-6;
4,22862631366183E-6;
3,2251540487739E-6;
1,36338390615059E-7;
-4,10986486266742E-6;
-7,51823928219337E-6;
-8,54302857079603E-6;
-7,25277754417068E-6;
-5,18923459676611E-6;
-4,04459624406162E-6;
-4,25563870521614E-6;
-4,6792349340291E-6;
-3,61767598662196E-6;
-3,44033305701325E-7;
4,13990926371766E-6;
7,75327867976279E-6;
8,87777647076487E-6;
7,54326073768499E-6;
5,30140624953036E-6;
3,90639723901268E-6;
3,89380726604935E-6;
4,22053810663621E-6;
3,24533549986497E-6;
2,22066663663999E-7;
-3,94103897014396E-6;
-7,29184762312239E-6;
-8,31684185362039E-6;
-7,07882458658678E-6;
-5,07949725972165E-6;
-3,96968549903195E-6;
-4,17892003661126E-6;
-4,59844460955964E-6;
-3,57790840775821E-6;
-4,08155541983609E-7;
3,94202737669245E-6;
7,45603230650095E-6;
8,56468973659958E-6;
7,29529043545252E-6;
5,14849298740076E-6;
3,82013580698974E-6;
3,82598939314899E-6;
4,15471652836847E-6;
3,21765936125357E-6;
2,93119581921539E-7;
-3,7404358243648E-6;
-6,9951598400169E-6;
-8,00626171097103E-6;
-6,83062763852889E-6;
-4,91460138840443E-6;
-3,85051133314119E-6;
-4,05567684847501E-6;
-4,46618693992439E-6;
-3,49513088214575E-6;
-4,58330047192692E-7;
3,71717468461626E-6;
7,0977216871987E-6;
8,17781692941858E-6;
6,98201817368373E-6;
4,9464527143309E-6;
3,6935893686125E-6;
3,71523470593379E-6;
4,04130210557492E-6;
3,15007315119426E-6;
3,50605492918394E-7;
-3,51635906315109E-6;
-6,64408041711477E-6;
-7,62960499522574E-6;
-6,52387012875717E-6;
-4,70585476792861E-6;
-3,69588919131815E-6;
-3,89510623549195E-6;
-4,29255061116413E-6;
-3,37729754680645E-6;
-4,95845272577496E-7;
3,47322400772717E-6;
6,69364028935945E-6;
7,73485492787348E-6;
6,61861254472094E-6;
4,70614014306459E-6;
3,53502932482021E-6;
3,56997673792174E-6;
3,88948254960657E-6;
3,04981766426636E-6;
3,95656786162222E-7;
-3,27609563312238E-6;
-6,25270940448754E-6;
-7,2031666147898E-6;
-6,17253476320559E-6;
-4,46335983967059E-6;
-3,51372093008768E-6;
-3,70545543595189E-6;
-4,08658347913279E-6;
-3,23158776242877E-6;
-5,21975938610686E-7;
3,21703579447713E-6;
6,25724935133235E-6;
7,25142810859691E-6;
6,21849736815358E-6;
4,43720570724504E-6;
3,35185517909116E-6;
3,39778207151288E-6;
3,70751461328684E-6;
2,92343623408067E-6;
4,29410272593703E-7;
-3,02596587378109E-6;
-5,8334213859325E-6;
-6,7412993698049E-6;
-5,78896844586666E-6;
-4,1960673479242E-6;
-3,31102376676054E-6;
-3,49405530160031E-6;
-3,85634304765554E-6;
-3,06442654341544E-6;
-5,37962273595499E-7;
2,9545189787385E-6;
5,80027652003904E-6;
6,74119777217434E-6;
5,79344101403001E-6;
4,14814292283235E-6;
3,15062189010639E-6;
3,20538261861572E-6;
3,50275604233527E-6;
2,77679925727499E-6;
4,52995650400412E-7;
-2,77139293439774E-6;
-5,39697371546461E-6;
-6,25653361583844E-6;
-5,38397692417989E-6;
-3,91183175086674E-6;
-3,09398008047642E-6;
-3,26737195529849E-6;
-3,60893625261701E-6;
-2,88151630969737E-6;
-5,45007953359014E-7;
2,69069768019874E-6;
5,33282604473519E-6;
6,21598068005022E-6;
5,35366272175423E-6;
3,8463622312118E-6;
2,93708478399405E-6;
2,99872112614285E-6;
3,28171161119153E-6;
2,61512748969534E-6;
4,67520481220191E-7;
-2,51697236232725E-6;
-4,95261470483477E-6;
-5,75968237700795E-6;
-4,9669160685475E-6;
-3,61748045917574E-6;
-2,86797632524296E-6;
-3,03104425818869E-6;
-3,35057197678539E-6;
-2,68787238879761E-6;
-5,4426134685837E-7;
2,42978464546603E-6;
4,8635024678475E-6;
5,68588940410753E-6;
4,9079264427629E-6;
3,53825432554318E-6;
2,71625263720311E-6;
2,78298464675816E-6;
3,05007321078702E-6;
2,44302405350526E-6;
4,74055554331951E-7;
-2,26653396023674E-6;
-4,50818692770507E-6;
-5,25996924531872E-6;
-4,5457945966347E-6;
-3,31887861849219E-6;
-2,63766464532275E-6;
-2,78994810755821E-6;
-3,08662056829255E-6;
-2,4878660129857E-6;
-5,36814972645847E-7;
2,17525209182504E-6;
4,39952525176549E-6;
5,15944854280335E-6;
4,4636584203624E-6;
3,22926592398451E-6;
2,49242547093354E-6;
2,56265845023469E-6;
2,81277059877196E-6;
2,26450432913354E-6;
4,73629481379219E-7;
-2,02321090498108E-6;
-4,0702499946568E-6;
-4,76515279356745E-6;
-4,12737457228657E-6;
-3,02100340701496E-6;
-2,40700252627114E-6;
-2,54823980979977E-6;
-2,82167389675484E-6;
-2,28526006581903E-6;
-5,23692387992795E-7;
1,92989810931972E-6;
3,94685093264396E-6;
4,64374234691753E-6;
4,02705520539554E-6;
2,92397530556494E-6;
2,26926182535149E-6;
2,34157870517686E-6;
2,57402973913398E-6;
2,08304246880314E-6;
4,67218800609486E-7;
-1,78951271346365E-6;
-3,64418970141147E-6;
-4,28165221332966E-6;
-3,71727840467027E-6;
-2,72801143677116E-6;
-2,17932095807605E-6;
-2,3094212757753E-6;
-2,55959867419459E-6;
-2,0832597035204E-6;
-5,05848257600141E-7;
1,69592211137706E-6;
3,51029122125411E-6;
4,14453807628353E-6;
3,6031910131749E-6;
2,62616193642814E-6;
2,04981484983056E-6;
2,12297089760673E-6;
2,33741592947313E-6;
1,90159924583725E-6;
4,55742804556594E-7;
-1,567387023188E-6;
-3,2343374799075E-6;
-3,81467360233816E-6;
-3,32009370632133E-6;
-2,44332209468824E-6;
-1,95736981273381E-6;
-2,07639070486979E-6;
-2,30360765850379E-6;
-1,88455363198357E-6;
-4,8416954320564E-7;
1,47498377008672E-6;
3,09363584989038E-6;
3,66642304848057E-6;
3,19613292522926E-6;
2,33889242697772E-6;
1,83660118290485E-6;
1,90951552215391E-6;
2,10590162759963E-6;
1,72267118428299E-6;
4,40056907286285E-7;
-1,35828402110591E-6;
-2,84407078941935E-6;
-3,36833005549172E-6;
-2,93947157298068E-6;
-2,16967628900366E-6;
-1,74337648169756E-6;
-1,85150030469964E-6;
-2,05630978730154E-6;
-1,69135780094707E-6;
-4,59466246906654E-7;
1,26827094013419E-6;
2,69975443258306E-6;
3,21292459710869E-6;
2,80904047999856E-6;
2,06458283487572E-6;
1,63164146705797E-6;
1,70338906006696E-6;
1,88190970268067E-6;
1,54832230236964E-6;
4,2095616495519E-7;
-1,16321497725911E-6;
-2,47592965122007E-6;
-2,94576551012815E-6;
-2,57823090024489E-6;
-1,90921384847066E-6;
-1,53909683043433E-6;
-1,63661135762159E-6;
-1,81977826693265E-6;
-1,50546382154621E-6;
-4,32475175151018E-7;
1,07656127248531E-6;
2,33071374424865E-6;
2,78663811613718E-6;
2,44427031811734E-6;
1,80506794220022E-6;
1,43651304128991E-6;
1,50631500538542E-6;
1,66737063337415E-6;
1,38023111792059E-6;
3,99166317022001E-7;
-9,82811748676393E-7;
-2,13170305023384E-6;
-2,54925775606562E-6;
-2,23845119644153E-6;
-1,66353900071635E-6;
-1,34586351630749E-6;
-1,43314478623923E-6;
-1,59560420462056E-6;
-1,32827662474466E-6;
-4,03858224675363E-7;
9,00275474185489E-7;
1,98787412956853E-6;
2,38933584937513E-6;
2,10347507698598E-6;
1,56167998327741E-6;
1,25240160896918E-6;
1,3196178002735E-6;
1,4637773803068E-6;
1,21972107939974E-6;
3,75348395297235E-7;
-8,17381054402979E-7;
-1,81254283929955E-6;
-2,1803363121943E-6;
-1,92156052226471E-6;
-1,43378488214853E-6;
-1,16464356788466E-6;
-1,24213435014401E-6;
-1,38495073832782E-6;
-1,16085931180715E-6;
-3,74206521755108E-7;
7,39531174154781E-7;
1,6719901842651E-6;
2,02207920101353E-6;
1,78768411514243E-6;
1,33529819834207E-6;
1,08014649603906E-6;
1,14425942311493E-6;
1,27222887957193E-6;
1,06780512475408E-6;
3,50096926143639E-7;
-6,66951159707384E-7;
-1,5190401458445E-6;
-1,83987891824757E-6;
-1,62842519434848E-6;
-1,22066999647358E-6;
-9,96073877457404E-7;
-1,06427211657392E-6;
-1,18860382225173E-6;
-1,00397385686594E-6;
-3,44043779585339E-7;
5,94191096751058E-7;
1,38329118431599E-6;
1,68531851312919E-6;
1,49740505489923E-6;
1,12641955791743E-6;
9,20283833590558E-7;
9,80891885707355E-7;
1,09348254344882E-6;
9,25215939196774E-7;
3,23940872925566E-7;
-5,313172176947E-7;
-1,25130805998838E-6;
-1,5281996570672E-6;
-1,35942193625024E-6;
-1,02455836931739E-6;
-8,405075366277E-7;
-8,99951787069097E-7;
-1,00702593148431E-6;
-8,58113437748069E-7;
-3,13825180183239E-7;
4,6390948330569E-7;
1,12157232994045E-6;
1,3789813516029E-6;
1,23268827317311E-6;
9,35205832375528E-7;
7,73085723668047E-7;
8,2989281052262E-7;
9,27992014647792E-7;
7,92441960672263E-7;
2,97348517046806E-7;
-4,10087004630637E-7;
-1,00906610458873E-6;
-1,24514816184947E-6;
-1,11452331495075E-6;
-8,45513335890667E-7;
-6,98063051277761E-7;
-7,49317242438066E-7;
-8,40395915428249E-7;
-7,23543378337136E-7;
-2,83944190274061E-7;
3,4816505366136E-7;
8,86261448061313E-7;
1,102570878388E-6;
9,93209647473814E-7;
7,61542256255546E-7;
6,38605371363552E-7;
6,91406457204674E-7;
7,75957259215028E-7;
6,69760211749004E-7;
2,70725340603342E-7;
-3,0271296501703E-7;
-7,91699919192037E-7;
-9,90175061952745E-7;
-8,93353028267222E-7;
-6,83340178267128E-7;
-5,6864633595363E-7;
-6,12295697855353E-7;
-6,88660562528126E-7;
-6,00329683572964E-7;
-2,54730374096455E-7;
2,46307735103242E-7;
6,76496198946859E-7;
8,55229625671966E-7;
7,78325808232561E-7;
6,05078616782409E-7;
5,16703946037564E-7;
5,65375870724021E-7;
6,37356237898671E-7;
5,57266487030279E-7;
2,44422349356055E-7;
-2,08529272447482E-7;
-5,98331462010886E-7;
-7,62413078154112E-7;
-6,95249324124804E-7;
-5,37633918304788E-7;
-4,51999067806397E-7;
-4,88631119542587E-7;
-5,51559133144148E-7;
-4,88374029421629E-7;
-2,26467245965209E-7;
1,57581100358995E-7;
4,91175162932704E-7;
6,35817134149458E-7;
5,87150301367767E-7;
4,65274968569572E-7;
4,07084742921615E-7;
4,51580254391617E-7;
5,11982784415546E-7;
4,54896509399387E-7;
2,18734597440411E-7;
-1,26780493953624E-7;
-4,2787580017627E-7;
-5,60743140335758E-7;
-5,19331454526155E-7;
-4,07820216043775E-7;
-3,47721856933219E-7;
-3,779263277478E-7;
-4,28671942188707E-7;
-3,87433631722194E-7;
-1,99375534349623E-7;
8,11585299853415E-8;
3,2901913725518E-7;
4,42973077151563E-7;
4,18592938606664E-7;
3,41441037919012E-7;
3,09330093031083E-7;
3,49662040566679E-7;
3,99478632370372E-7;
3,62462961801836E-7;
1,93910170425928E-7;
-5,6646444565845E-8;
-2,79082568729371E-7;
-3,83843170616462E-7;
-3,64534412214359E-7;
-2,93186418563078E-7;
-2,55300169129323E-7;
-2,79659086588067E-7;
-3,19446550019662E-7;
-2,97158431286456E-7;
-1,73639555166141E-7;
1,61610949794878E-8;
1,88618349904081E-7;
2,75170449879201E-7;
2,71412211829586E-7;
2,32766782175044E-7;
2,22917609922215E-7;
2,59152126448294E-7;
2,99361352752676E-7;
2,79665146275677E-7;
1,70147582189372E-7;
2,73158543691495E-9;
-1,50592941631214E-7;
-2,30248471477796E-7;
-2,2966259995275E-7;
-1,92921276545326E-7;
-1,741413250681E-7;
-1,93221558577317E-7;
-2,23228593221846E-7;
-2,1710160649532E-7;
-1,49391152280637E-7;
-3,83175493372107E-8;
6,84709971201777E-8;
1,3076651055292E-7;
1,4426207049663E-7;
1,38359915209845E-7;
1,47248576633558E-7;
1,79497481675518E-7;
2,1105546378482E-7;
2,06121492770634E-7;
1,47604413165094E-7;
5,22323131178633E-8;
-4,09692127433159E-8;
-9,83933302013279E-8;
-1,13427657613738E-7;
-1,06137077311113E-7;
-1,035830465013E-7;
-1,1793159919996E-7;
-1,39283648183919E-7;
-1,4674968751245E-7;
-1,26731880120773E-7;
-8,31922757566348E-8;
-3,29728093665591E-8;
8,04740232749345E-9;
3,57230351992623E-8;
5,72612101482828E-8;
8,16671817047591E-8;
1,10080540739498E-7;
1,33909763024646E-7;
1,4138160514916E-7;
1,26400132211321E-7;
9,27410733953626E-8;
5,12689975463432E-8;
1,33521066600866E-8;
-1,4477694219998E-8;
-3,18942874132481E-8;
-4,29176869959113E-8;
-5,30620741132193E-8;
-6,68265337221008E-8;
-8,55350257983405E-8;
-1,0572196338229E-7;
-1,19371051614999E-7;
-1,17287463681375E-7;
-9,47386168214479E-8;
-5,56611699535554E-8;
-1,15186564127129E-8;
2,54826026193155E-8;
5,02377467169449E-8;
6,72194803366055E-8;
8,49444462404184E-8;
1,06620549344177E-7;
1,25133077396957E-7;
1,27613470249378E-7;
1,06639934887614E-7;
6,85657967731076E-8;
3,07712453761633E-8;
8,58406054541269E-9;
2,14307896590167E-9;
-5,03245136360629E-9;
-3,28518891431011E-8;
-8,63982926663142E-8;
-1,47744812612521E-7;
-1,86037982442343E-7;
-1,79349120137527E-7;
-1,31358529126103E-7;
-6,89878970696116E-8;
-2,20206071917135E-8;
-7,20006262276332E-10;
1,02499259298608E-8;
3,62760451416424E-8;
8,83179114834651E-8;
1,50257960481236E-7;
1,89546787989668E-7;
1,83124464966318E-7;
1,37089912832888E-7;
8,28363667622683E-8;
5,16651894155112E-8;
4,84571275976438E-8;
4,69382483420514E-8;
1,19231560651877E-8;
-6,87639344552926E-8;
-1,69175930473912E-7;
-2,40767484254119E-7;
-2,47517464057564E-7;
-1,92827190659852E-7;
-1,16152683727768E-7;
-6,15636778155793E-8;
-4,35014171196241E-8;
-3,77552751077383E-8;
-5,18277298084705E-9;
7,15178879255557E-8;
1,68938891559134E-7;
2,38521564985378E-7;
2,44436052855026E-7;
1,92464440413167E-7;
1,25269342649041E-7;
8,70715752925519E-8;
8,66530128886887E-8;
8,99284294725255E-8;
4,94249604214718E-8;
-5,28064950373489E-8;
-1,84486197592771E-7;
-2,82966488833826E-7;
-3,0093576439501E-7;
-2,4149221631935E-7;
-1,54005567344721E-7;
-9,3866771628317E-8;
-7,88114972813802E-8;
-7,75558811886563E-8;
-4,0001739012224E-8;
5,62252584079261E-8;
1,8195771326191E-7;
2,75939258352731E-7;
2,92158870335359E-7;
2,36030480485783E-7;
1,59023043920962E-7;
1,15534872422909E-7;
1,1749575496215E-7;
1,24774073037555E-7;
8,02914512922701E-8;
-3,84867368008096E-8;
-1,94458390919611E-7;
-3,14071568703504E-7;
-3,41234399461083E-7;
-2,7873102477616E-7;
-1,83509872860345E-7;
-1,1963704044531E-7;
-1,07350613108775E-7;
-1,09904447928826E-7;
-6,87496385518903E-8;
4,24226871813584E-8;
1,90055675035329E-7;
3,03146925006743E-7;
3,27815851227964E-7;
2,69076726459172E-7;
1,85017609146802E-7;
1,37771467487511E-7;
1,41730665542045E-7;
1,52287227343874E-7;
1,05145530570848E-7;
-2,57562696348118E-8;
-1,99823317621379E-7;
-3,35440332698009E-7;
-3,69966317891143E-7;
-3,05866304818751E-7;
-2,05597029848806E-7;
-1,3955840612437E-7;
-1,29801088599386E-7;
-1,35540354378769E-7;
-9,19913197828348E-8;
3,00757218660532E-8;
1,93923299232907E-7;
3,21418623406586E-7;
3,52858204940145E-7;
2,92838381569515E-7;
2,04138648798408E-7;
1,54464162571485E-7;
1,60074458865948E-7;
1,732584839057E-7;
1,24598162887315E-7;
-1,45491991768386E-8;
-2,01263467515742E-7;
-3,48358276142307E-7;
-3,88602789411186E-7;
-3,24148397179141E-7;
-2,21149082654957E-7;
-1,5428854894258E-7;
-1,46823035582992E-7;
-1,55177290218423E-7;
-1,10278666420294E-7;
1,91352830551848E-8;
1,94202597548547E-7;
3,3194898981664E-7;
3,6865450414644E-7;
3,08482219191824E-7;
2,17222356462175E-7;
1,6627122972159E-7;
1,73214636107565E-7;
1,88438568890438E-7;
1,39239864677376E-7;
-4,78927807654664E-9;
-1,99406111980728E-7;
-3,54017582423287E-7;
-3,98520694225045E-7;
-3,34754304039189E-7;
-2,31001363654267E-7;
-1,64455530111478E-7;
-1,59045816123639E-7;
-1,6949669386576E-7;
-1,24142571628403E-7;
9,54045302363404E-9;
1,91481780063343E-7;
3,35854444782463E-7;
3,76485459151668E-7;
3,17104058926709E-7;
2,2506229564062E-7;
1,73811457311265E-7;
1,81800913681809E-7;
1,98542324298385E-7;
1,49628481035296E-7;
3,60772987037721E-9;
-1,9482274305336E-7;
-3,53529534672813E-7;
-4,01001296861376E-7;
-3,38778837374967E-7;
-2,35935746849489E-7;
-1,70648401112282E-7;
-1,67068268672808E-7;
-1,79150002835877E-7;
-1,34091700511052E-7;
1,22236811751764E-9;
1,8629929309371E-7;
3,3416385245068E-7;
3,77537374523177E-7;
3,19721028644353E-7;
2,28394601189478E-7;
1,77665442182471E-7;
1,86442987491549E-7;
2,04241335741089E-7;
1,56294958544986E-7;
1,07263442603733E-8;
-1,88037301834291E-7;
-3,47907337644528E-7;
-3,972209446451E-7;
-3,37236118714892E-7;
-2,36679976064055E-7;
-1,73419101314572E-7;
-1,71447311423822E-7;
-1,84746589219666E-7;
-1,40610133436762E-7;
-5,89386606409115E-9;
1,79143660004656E-7;
3,27821604646704E-7;
3,72903655215712E-7;
3,17273924310693E-7;
2,27900647590607E-7;
1,78371044662842E-7;
1,87707804660575E-7;
2,06159135563498E-7;
1,59739597330702E-7;
1,66647603451179E-8;
-1,79514672500969E-7;
-3,38076183358556E-7;
-3,88258560468671E-7;
-3,31054681974011E-7;
-2,33899596206776E-7;
-1,73277134388067E-7;
-1,72706394771609E-7;
-1,86856134901031E-7;
-1,44148456638985E-7;
-1,18903963123864E-8;
1,70445103464904E-7;
3,17681285997237E-7;
3,63579627869683E-7;
3,10622898569984E-7;
2,24210202008673E-7;
1,76425176429265E-7;
1,86119903746897E-7;
2,04875986127502E-7;
1,60423560692758E-7;
2,15147799012283E-8;
-1,69672048831804E-7;
-3,24871127239491E-7;
-3,75091293876125E-7;
-3,21079235540836E-7;
-2,28207432147702E-7;
-1,70695920190305E-7;
-1,71328236221115E-7;
-1,8600712289293E-7;
-1,45132326378856E-7;
-1,68531357195742E-8;
1,60594213851181E-7;
3,04518467226399E-7;
3,50468981160076E-7;
3,00549905214733E-7;
2,17890887929004E-7;
1,72283086277922E-7;
1,82159493382511E-7;
2,00919246193108E-7;
1,58779199447444E-7;
2,53730269571109E-8;
-1,58879147731593E-7;
-3,0903974976559E-7;
-3,58597870141015E-7;
-3,08071274010776E-7;
-2,20155641143348E-7;
-1,66102754762325E-7;
-1,67753306405091E-7;
-1,82683473984753E-7;
-1,43951303637632E-7;
-2,08643796882895E-8;
1,49931110359771E-7;
2,89022575241777E-7;
3,34382666553964E-7;
2,87756681892556E-7;
2,09462088863945E-7;
1,66356869991482E-7;
1,76262133198529E-7;
1,9477556555023E-7;
1,55193924688935E-7;
2,83329482063719E-8;
-1,47454449775844E-7;
-2,91249443066312E-7;
-3,39563099599828E-7;
-2,92714574248385E-7;
-2,10244818452007E-7;
-1,5988664960849E-7;
-1,62385600423453E-7;
-1,77328948987995E-7;
-1,40964277784752E-7;
-2,40121188269655E-8;
1,3875121790631E-7;
2,71804119540776E-7;
3,16037830958316E-7;
2,7287179205207E-7;
1,9938655656947E-7;
1,59017838903129E-7;
1,68823535162173E-7;
1,86880675042681E-7;
1,50028671303932E-7;
3,04870045778376E-8;
-1,35677888338468E-7;
-2,72079786975826E-7;
-3,18680522193403E-7;
-2,75612965327777E-7;
-1,98914531654968E-7;
-1,52398509709793E-7;
-1,55586639736417E-7;
-1,70341118126439E-7;
-1,3649967780698E-7;
-2,63790227376883E-8;
1,2731044814133E-7;
2,53399928355752E-7;
2,96075994703165E-7;
2,56452557647674E-7;
1,88076001305196E-7;
1,50599576622878E-7;
1,60194035956287E-7;
1,7762455746013E-7;
1,43604898049744E-7;
3,19262050467476E-8;
-1,23784803748178E-7;
-2,52042710921131E-7;
-2,96555399786925E-7;
-2,57297535483943E-7;
-1,86560509902707E-7;
-1,43948866646646E-7;
-1,47683565643765E-7;
-1,62080394422204E-7;
-1,30853100200319E-7;
-2,80515616402595E-8;
1,1582512251149E-7;
2,34276797920597E-7;
2,75051389097547E-7;
2,38986931860089E-7;
1,75892596442978E-7;
1,41395111351069E-7;
1,50687926773677E-7;
1,67354502008416E-7;
1,36210706815917E-7;
3,27346256393183E-8;
-1,11976859572502E-7;
-2,31573426643781E-7;
-2,73714180240384E-7;
-2,3823304100403E-7;
-1,73525855710232E-7;
-1,34813088060046E-7;
-1,38963886904629E-7;
-1,52866722795117E-7;
-1,24289258954787E-7;
-2,91060502896754E-8;
1,04477809998535E-7;
2,14834861538393E-7;
2,5344344833121E-7;
2,20897424509657E-7;
1,63154190190043E-7;
1,31661432976136E-7;
1,40580556267748E-7;
1,56378971461507E-7;
1,28101874278863E-7;
3,29956144798949E-8;
-1,00416981130416E-7;
-2,11045670973873E-7;
-2,5060793144261E-7;
-2,18818196353285E-7;
-1,60107785226655E-7;
-1,25229336656795E-7;
-1,29680297694201E-7;
-1,42980225423707E-7;
-1,17044395301749E-7;
-2,96207810749663E-8;
9,34162649346907E-8;
1,95410182228095E-7;
2,31664415757296E-7;
2,02550222268018E-7;
1,50132196537055E-7;
1,21620832928668E-7;
1,3010849179646E-7;
1,44963292231639E-7;
1,1950651841085E-7;
3,27858269546801E-8;
-8,92439313833687E-8;
-1,90772994888236E-7;
-2,27615015304725E-7;
-1,99389263716764E-7;
-1,46561663120704E-7;
-1,15408710955154E-7;
-1,20054874692685E-7;
-1,32666976769893E-7;
-1,09327298957603E-7;
-2,96673654263865E-8;
8,27645786896414E-8;
1,76290689790889E-7;
2,10059501815063E-7;
1,84250186479547E-7;
1,37061326383966E-7;
1,1146885755581E-7;
1,1948145206372E-7;
1,33340538743444E-7;
1,10618790271305E-7;
3,21766665484915E-8;
-7,8558943400346E-8;
-1,71011724263185E-7;
-2,05056301581734E-7;
-1,80232855340834E-7;
-1,33102838808091E-7;
-1,05526517985532E-7;
-1,10278176557719E-7;
-1,22141252975075E-7;
-1,01319219678723E-7;
-2,9315398318721E-8;
7,26138519373965E-8;
1,57706160291669E-7;
1,88917161426483E-7;
1,66259256864412E-7;
1,24137785315111E-7;
1,01365685185102E-7;
1,08872331037459E-7;
1,21704919649563E-7;
1,01608857310489E-7;
3,12343964282195E-8;
-6,84458581010554E-8;
-1,51967184104258E-7;
-1,83187073006765E-7;
-1,61580824445647E-7;
-1,19909226052652E-7;
-9,57339932769135E-8;
-1,00513163144149E-7;
-1,11585014235602E-7;
-9,31777952816589E-8;
-2,86258430003986E-8;
6,30377004835306E-8;
1,3984324388264E-7;
1,68468955405164E-7;
1,48783825069324E-7;
1,11522142101072E-7;
9,14471620230593E-8;
9,84274538334307E-8;
1,10221536643024E-7;
9,26189244055133E-8;
3,00216773495396E-8;
-5,89616865604121E-8;
-1,33806122720981E-7;
-1,62216558693073E-7;
-1,43621379654928E-7;
-1,0712955319616E-7;
-8,61568429858071E-8;
-9,08942914875859E-8;
-1,01148573906219E-7;
-8,50340671586323E-8;
-2,76598877001599E-8;
5,40840627788505E-8;
1,22847107160627E-7;
1,48900519754992E-7;
1,31996493177915E-7;
9,9347182953406E-8;
8,18243938205368E-8;
8,82689645625254E-8;
9,90295659101179E-8;
8,37757087627592E-8;
2,85939556114244E-8;
-5,01512009351061E-8;
-1,16649494394982E-7;
-1,423019124933E-7;
-1,26503552709147E-7;
-9,48797815777458E-8;
-7,68956583324857E-8;
-8,15348206750496E-8;
-9,09618867844406E-8;
-7,70054152238154E-8;
-2,64712905432193E-8;
4,57887314266324E-8;
1,06826697890517E-7;
1,30353800177953E-7;
1,16027448636898E-7;
8,77161222656061E-8;
7,25885115483541E-8;
7,84951719497412E-8;
8,82370484381073E-8;
7,51729400058037E-8;
2,70014783801201E-8;
-4,20333404664708E-8;
-1,00586177116152E-7;
-1,23560949692163E-7;
-1,10337246926895E-7;
-8,3251597679814E-8;
-6,80316305766239E-8;
-7,25243396120675E-8;
-8,11271590336041E-8;
-6,9182195564022E-8;
-2,51065898687E-8;
3,81674361830957E-8;
9,18580007545284E-8;
1,12934168840027E-7;
1,00975483052953E-7;
7,67083544511891E-8;
6,38064061997461E-8;
6,9180420460995E-8;
7,79334955275173E-8;
6,68936846002976E-8;
2,52890196176822E-8;
-3,46166775865469E-8;
-8,56725444387922E-8;
-1,06078051641005E-7;
-9,52024108960173E-8;
-7,23081213497263E-8;
-5,96261358470399E-8;
-6,39346234921679E-8;
-7,1725889561818E-8;
-6,16400809700196E-8;
-2,36102236246719E-8;
3,12259120369544E-8;
7,79894009675657E-8;
9,67102373743954E-8;
8,69094732731805E-8;
6,63800685583829E-8;
5,55310330727488E-8;
6,03842207899739E-8;
6,81839201166129E-8;
5,90021064227958E-8;
2,34982380776144E-8;
-2,79002634076555E-8;
-7,19431012157246E-8;
-8,99023759502514E-8;
-8,11503122475356E-8;
-6,20980403128321E-8;
-5,1726518327373E-8;
-5,58211026365126E-8;
-6,28213198312327E-8;
-5,44396818625266E-8;
-2,20227622321972E-8;
2,4956506320492E-8;
6,52448572269544E-8;
8,17247445767151E-8;
7,38736843216717E-8;
5,67721268870669E-8;
4,77989680257458E-8;
5,21464438167531E-8;
5,90387278866556E-8;
5,15453853057816E-8;
2,16613587576443E-8;
-2,18694726491045E-8;
-5,94023413478671E-8;
-7,50558715914553E-8;
-6,82096186256065E-8;
-5,26489878971911E-8;
-4,43620570446609E-8;
-4,8218705974281E-8;
-5,44579409609701E-8;
-4,76259903916112E-8;
-2,03782566693572E-8;
1,93416907545433E-8;
5,36280063086373E-8;
6,79935748291033E-8;
6,18870471001674E-8;
4,79041193361038E-8;
4,06323507783076E-8;
4,44939313679736E-8;
5,05270099449386E-8;
4,45574747776039E-8;
1,9813592834849E-8;
-1,65012488146895E-8;
-4,8043395026361E-8;
-6,15384589764117E-8;
-5,63857045243461E-8;
-4,39749183075306E-8;
-3,75522962938459E-8;
-4,11546037616666E-8;
-4,6666900091271E-8;
-4,12316595321326E-8;
-1,87080078895108E-8;
1,43607180077684E-8;
4,31258888103182E-8;
5,55132008582841E-8;
5,09558186235484E-8;
3,97832947353688E-8;
3,40409921223542E-8;
3,74419295402196E-8;
4,26686833566243E-8;
3,80611444562361E-8;
1,79786177100183E-8;
-1,17690090999681E-8;
-3,78380219898307E-8;
-4,93302070653662E-8;
-4,56682071924998E-8;
-3,6072116928892E-8;
-3,13040463568834E-8;
-3,46418143008026E-8;
-3,9467725913736E-8;
-3,52818977859409E-8;
-1,70365813533479E-8;
9,98529008282729E-9;
3,37103482580878E-8;
4,42614453011631E-8;
4,10652628993481E-8;
3,24065279253506E-8;
2,80273616655416E-8;
3,09923043714147E-8;
3,54687194652802E-8;
3,20696271839793E-8;
1,61794008069345E-8;
-7,64067693915444E-9;
-2,87476764793061E-8;
-3,8394830391525E-8;
-3,60343981755462E-8;
-2,89316460371984E-8;
-2,56164915463734E-8;
-2,86853055906098E-8;
-3,2864663011466E-8;
-2,97849089974482E-8;
-1,53872055121879E-8;
6,18097995714964E-9;
2,53415967601945E-8;
3,42001265811974E-8;
3,21888527348991E-8;
2,57600068907302E-8;
2,2584419078631E-8;
2,51412061439064E-8;
2,89247411874087E-8;
2,65838063954548E-8;
1,44334058150309E-8;
-4,07642889709475E-9;
-2,07239753199551E-8;
-2,86857625208528E-8;
-2,7446155221551E-8;
-2,25326344978098E-8;
-2,04799289678535E-8;
-2,32783011889183E-8;
-2,68573638927279E-8;
-2,47472809152545E-8;
-1,37790112794157E-8;
2,90957711046778E-9;
1,79718921908615E-8;
2,52846296325466E-8;
2,42913150835994E-8;
1,98192029070683E-8;
1,76955467550625E-8;
1,98727992671688E-8;
2,30209607203096E-8;
2,16001403125379E-8;
1,27571607491892E-8;
-1,03915180964669E-9;
-1,37121015877508E-8;
-2,0144602101387E-8;
-1,98571412671741E-8;
-1,6846399716955E-8;
-1,58800064410257E-8;
-1,84087519734131E-8;
-2,14316951345389E-8;
-2,01651770427596E-8;
-1,22269064107551E-8;
1,35175712273242E-10;
1,15459186478204E-8;
1,7454852621241E-8;
1,73259180125507E-8;
1,45566650947198E-8;
1,33441882777867E-8;
1,51704848171737E-8;
1,77389298436723E-8;
1,71089015185644E-8;
1,11621854945358E-8;
1,51101718738502E-9;
-7,64633393906531E-9;
-1,27031598505646E-8;
-1,3216701898714E-8;
-1,18374125393023E-8;
-1,17930071363824E-8;
-1,40614574889399E-8;
-1,65738230661189E-8;
-1,60303678827688E-8;
-1,07428027660729E-8;
-2,18174083001761E-9;
6,00347886320056E-9;
1,06502664752894E-8;
1,12460237382755E-8;
9,93683499815588E-9;
9,5021139695318E-9;
1,10082936540385E-8;
1,30533885134587E-8;
1,30939125468614E-8;
9,6573746254565E-9;
3,6182188961518E-9;
-2,46324710840763E-9;
-6,29345412424538E-9;
-7,4644297302277E-9;
-7,47144008346252E-9;
-8,19801954796713E-9;
-1,02111545788051E-8;
-1,22599903020126E-8;
-1,23286548112848E-8;
-9,33732404540166E-9;
-4,08471426877796E-9;
1,2821359094741E-9;
4,80154892607602E-9;
5,99182987398382E-9;
5,92498902404641E-9;
6,14508829709595E-9;
7,35872060994472E-9;
8,93521875816359E-9;
9,53456405292986E-9;
8,24929294444204E-9;
5,32151500677104E-9;
1,90649106775209E-9;
-8,37489145461501E-10;
-2,54185559488237E-9;
-3,70502099205598E-9;
-5,06324920218288E-9;
-6,83416452780422E-9;
-8,46394557787016E-9;
-9,04299244001776E-9;
-8,01605152174971E-9;
-5,61007326587971E-9;
-2,68400842270669E-9;
-1,61379050191294E-10;
1,50646543027767E-9;
2,47732345946108E-9;
3,2404317591493E-9;
4,1903726790755E-9;
5,35166813640753E-9;
6,40820933599534E-9;
6,94252877530306E-9;
6,66362763500759E-9;
5,52997262353975E-9;
3,73931786591203E-9;
1,61788488395006E-9;
-4,96186398212085E-10;
-2,36265067506096E-9;
-3,90235965859539E-9;
-5,15613676879647E-9;
-6,15473308091317E-9;
-6,78708856631907E-9;
-6,79882072914727E-9;
-5,95955250336429E-9;
-4,30987500764569E-9;
-2,27071754558518E-9;
-4,48503102405757E-10;
7,58717634803457E-10;
1,47213841918674E-9;
2,2656005415986E-9;
3,69026623971773E-9;
5,73833723503677E-9;
7,68117905871057E-9;
8,47914176452681E-9;
7,51374207790396E-9;
5,07554676069613E-9;
2,20033443189852E-9;
-6,24543067981343E-11;
-1,3863909409975E-9;
-2,3054553769694E-9;
-3,63710937248676E-9;
-5,65028213889686E-9;
-7,68823222746283E-9;
-8,60958343897198E-9;
-7,71816907308778E-9;
-5,39983861921742E-9;
-2,89241526310272E-9;
-1,33398220132882E-9;
-8,30043046744035E-10;
-3,57198112346954E-10;
1,35231993117474E-9;
4,63942124239986E-9;
8,41442940235131E-9;
1,0817930138954E-8;
1,05617219009475E-8;
7,8973179722267E-9;
4,42868568865432E-9;
1,86771369425141E-9;
7,45778967636894E-10;
1,22173920397308E-10;
-1,46988807558745E-9;
-4,60864233061495E-9;
-8,31255162429282E-9;
-1,06983155188977E-8;
-1,04578394101894E-8;
-7,94041326858474E-9;
-4,89881532701388E-9;
-3,07083030396043E-9;
-2,75054153931265E-9;
-2,55466092115919E-9;
-6,31740440450021E-10;
3,6427540300578E-9;
8,89829010860112E-9;
1,26155988374205E-8;
1,29574684619349E-8;
1,01442352301321E-8;
6,23207555513275E-9;
3,46081165398849E-9;
2,52588015200851E-9;
2,15965655737851E-9;
3,74623667040773E-10;
-3,66065634487438E-9;
-8,70667504586938E-9;
-1,2285456163503E-8;
-1,25968666804921E-8;
-9,95227556319603E-9;
-6,50829301184947E-9;
-4,48307536921988E-9;
-4,32476466573657E-9;
-4,36493167679501E-9;
-2,29331150008434E-9;
2,74605138256042E-9;
9,16732362657513E-9;
1,3930217411937E-8;
1,47721612514083E-8;
1,18794207460457E-8;
7,65249609886073E-9;
4,74769555191999E-9;
3,98472642647472E-9;
3,8398124737969E-9;
1,92077820176093E-9;
-2,80619324133697E-9;
-8,90454404723025E-9;
-1,34308681575027E-8;
-1,42010549519885E-8;
-1,14919749039369E-8;
-7,7647020702091E-9;
-5,60511316160675E-9;
-5,58351869061811E-9;
-5,82324898996639E-9;
-3,65776129235619E-9;
1,94957893683207E-9;
9,25149919659683E-9;
1,48250350465659E-8;
1,60748808695521E-8;
1,31572102701762E-8;
8,73365091100029E-9;
5,75996115252719E-9;
5,15269279007751E-9;
5,19830159576572E-9;
3,19498185327133E-9;
-2,04172705719205E-9;
-8,93345137593661E-9;
-1,4190507160074E-8;
-1,53352549790819E-8;
-1,26141222838498E-8;
-8,70429360579644E-9;
-6,46524047426866E-9;
-6,56327044813299E-9;
-6,96600416517628E-9;
-4,75487457920947E-9;
1,24562895230001E-9;
9,18287150277274E-9;
1,53527329948861E-8;
1,69295300467148E-8;
1,40391490579912E-8;
9,51306868742092E-9;
6,52726656214049E-9;
6,06152268139022E-9;
6,2658037693694E-9;
4,22313301626488E-9;
-1,36592930769394E-9;
-8,82163736199548E-9;
-1,4615068782006E-8;
-1,60615830875507E-8;
-1,33696646903362E-8;
-9,36554244470714E-9;
-7,09513098478022E-9;
-7,29166259748414E-9;
-7,8271580632087E-9;
-5,61091292306305E-9;
6,30139134324383E-10;
8,98401081168416E-9;
1,55687447392976E-8;
1,73978206462675E-8;
1,45716411685941E-8;
1,00290191365595E-8;
7,07807750080357E-9;
6,73793471550586E-9;
7,073478828491E-9;
5,02802863446782E-9;
-7,72081407194889E-10;
-8,59273338645806E-9;
-1,47551758840547E-8;
-1,64332802136339E-8;
-1,38081369984048E-8;
-9,78684022065252E-9;
-7,52233353792314E-9;
-7,79907463941747E-9;
-8,44076070307713E-9;
-6,2537635444759E-9;
9,93330282795962E-11;
8,6814078010031E-9;
1,5517902509523E-8;
1,75341717304999E-8;
1,48073678151507E-8;
1,0317570344625E-8;
7,43801749702153E-9;
7,21113245603508E-9;
7,65375486040475E-9;
5,63643467200653E-9;
-2,57935912438367E-10;
-8,27255747054469E-9;
-1,46535363303085E-8;
-1,65038363651416E-8;
-1,39744323039737E-8;
-9,99729896637622E-9;
-7,77393883902514E-9;
-8,11563969443284E-9;
-8,83788220428819E-9;
-6,7079755184982E-9;
-3,52688635472079E-10;
8,29668355464721E-9;
1,52477618753812E-8;
1,73938107905374E-8;
1,47890085265161E-8;
1,04107870950083E-8;
7,63523782413777E-9;
7,50658690898883E-9;
8,03370968526926E-9;
6,06971561091721E-9;
1,82331058797362E-10;
-7,87879908472677E-9;
-1,43526496348363E-8;
-1,6321791049872E-8;
-1,39113102424564E-8;
-1,00310023187053E-8;
-7,87439831844915E-9;
-8,26563812617036E-9;
-9,04546101523732E-9;
-6,99526285250953E-9;
-7,31176642777227E-10;
7,84897101978926E-9;
1,47954544573753E-8;
1,70207366705709E-8;
1,45582920296359E-8;
1,03388743665017E-8;
7,69162924565793E-9;
7,64768701968727E-9;
8,23945209234514E-9;
6,34977652419357E-9;
5,5366774194493E-10;
-7,42951860145512E-9;
-1,38882295386242E-8;
-1,5930548783236E-8;
-1,36561232451031E-8;
-9,91339959747863E-9;
-7,84537080993511E-9;
-8,27566915980814E-9;
-9,09323585984429E-9;
-7,13992434291012E-9;
-1,04491873037889E-9;
7,35511373791563E-9;
1,41997191989706E-8;
1,64600648694086E-8;
1,41546687116951E-8;
1,0130340873269E-8;
7,63003378661616E-9;
7,65817501764725E-9;
8,29493542464165E-9;
6,49719360401285E-9;
8,62997528294319E-10;
-6,94158166163491E-9;
-1,32959434503577E-8;
-1,53710054071372E-8;
-1,32443965550943E-8;
-9,67168944787587E-9;
-7,70853763107767E-9;
-8,16623179716826E-9;
-9,00588026187949E-9;
-7,16223137354014E-9;
-1,2960398427922E-9;
6,83063248269898E-9;
1,34917507649915E-8;
1,57504661158968E-8;
1,36107599456105E-8;
9,80841486712823E-9;
7,46785011030872E-9;
7,55859347294298E-9;
8,22630286978203E-9;
6,5302773092097E-9;
1,11289454099492E-9;
-6,42744459977737E-9;
-1,26038298738247E-8;
-1,4677357785135E-8;
-1,27070032694435E-8;
-9,33117787773901E-9;
-7,48498999209059E-9;
-7,95868539321714E-9;
-8,80421922331086E-9;
-7,08139508818104E-9;
-1,49196818569135E-9;
6,28961735771903E-9;
1,27003385561364E-8;
1,49271257687126E-8;
1,29588048867451E-8;
9,39827074708758E-9;
7,22655390993406E-9;
7,36894772810341E-9;
8,05315649754152E-9;
6,46729669274318E-9;
1,30995545709023E-9;
-5,90112859508961E-9;
-1,18397225493356E-8;
-1,38834103386663E-8;
-1,20722587773471E-8;
-8,90969409826007E-9;
-7,19068124267978E-9;
-7,67217810473541E-9;
-8,51161650683301E-9;
-6,91603855736026E-9;
-1,63909866608849E-9;
5,74179224907382E-9;
1,18514099743198E-8;
1,40195100258605E-8;
1,22239268838852E-8;
8,91898440204179E-9;
6,92141095066978E-9;
7,10458264756879E-9;
7,79342586690424E-9;
6,32553520848667E-9;
1,46039670587255E-9;
-5,37143582965736E-9;
-1,10248334860935E-8;
-1,30160516254994E-8;
-1,13672086253597E-8;
-8,42903735891263E-9;
-6,84063905735205E-9;
-7,32294810791538E-9;
-8,14617050503796E-9;
-6,67897938114842E-9;
-1,74059251186362E-9;
5,19607065526676E-9;
1,096754513127E-8;
1,30561064565948E-8;
1,14308066071937E-8;
8,38968869756948E-9;
6,56592452121641E-9;
6,78140019170145E-9;
7,46622343618332E-9;
6,11725158243028E-9;
1,56812117415089E-9;
-4,84672355063114E-9;
-1,0181184981645E-8;
-1,20985838329848E-8;
-1,06105009300315E-8;
-7,90616220783082E-9;
-6,4492047211673E-9;
-6,92586438370998E-9;
-7,72491775458276E-9;
-6,38680819168322E-9;
-1,80429857951236E-9;
4,66235952331581E-9;
1,00663004361766E-8;
1,20584172911144E-8;
1,06022414287548E-8;
7,82411323303189E-9;
6,17436753979185E-9;
6,416168423811E-9;
7,08527858828906E-9;
5,85645138398897E-9;
1,63844809077941E-9;
-4,33560021176339E-9;
-9,32563602072765E-9;
-1,11553401464057E-8;
-9,82298317153054E-9;
-7,35216279738573E-9;
-6,02976800854268E-9;
-6,49501637692246E-9;
-7,26163505257792E-9;
-6,05287451456372E-9;
-1,83394526548993E-9;
4,14484982002197E-9;
9,1630382815026E-9;
1,10477107497469E-8;
9,75371267680732E-9;
7,23758224057216E-9;
5,75883688022726E-9;
6,01801943339541E-9;
6,66640155206459E-9;
5,55681898759958E-9;
1,67551559921237E-9;
-3,84238436062771E-9;
-8,47215037280899E-9;
-1,02028784918787E-8;
-9,02081376351941E-9;
-6,78228633832909E-9;
-5,59180059968902E-9;
-6,04180838457198E-9;
-6,77138885317315E-9;
-5,68845504678476E-9;
-1,83516465738041E-9;
3,64953779077953E-9;
8,27314959658726E-9;
1,00405732015923E-8;
8,90202540822447E-9;
6,64181262839374E-9;
5,32633263751417E-9;
5,59733441113079E-9;
6,22052833676425E-9;
5,22704799172745E-9;
1,68526739391124E-9;
-3,37080889935551E-9;
-7,63382930918432E-9;
-9,25751344870738E-9;
-8,21901406180101E-9;
-6,20703390080568E-9;
-5,14331913882961E-9;
-5,57413775695917E-9;
-6,26296157517953E-9;
-5,30193747665308E-9;
-1,8108140292004E-9;
3,18064990561684E-9;
7,40700291065987E-9;
9,05108241445922E-9;
8,06069249011217E-9;
6,04859425709738E-9;
4,8888821331016E-9;
5,16628988245482E-9;
5,75846112411272E-9;
4,87667942476281E-9;
1,67126493048721E-9;
-2,92614889197678E-9;
-6,82035153305372E-9;
-8,32984857368441E-9;
-7,42775016869341E-9;
-5,636791649926E-9;
-4,69519641163094E-9;
-5,10432171616387E-9;
-5,74830386333084E-9;
-4,90189047932451E-9;
-1,76655911281819E-9;
2,73974874120034E-9;
6,57450010999426E-9;
8,09070012052306E-9;
7,2373373188649E-9;
5,4626357963193E-9;
4,45115681780894E-9;
4,73054624700973E-9;
5,28990120590916E-9;
4,51419652758517E-9;
1,63515928419211E-9;
-2,51031546875097E-9;
-6,03934975977326E-9;
-7,43320100825533E-9;
-6,6582876454087E-9;
-5,07778744621511E-9;
-4,25111211385992E-9;
-4,6356379605748E-9;
-5,23553418197786E-9;
-4,49850505885528E-9;
-1,70337658505424E-9;
2,33036970393966E-9;
5,77962986961911E-9;
7,16956867345081E-9;
6,443974045665E-9;
4,89290126580473E-9;
4,02089471673793E-9;
4,29751480123543E-9;
4,81997255912697E-9;
4,14579116701719E-9;
1,58322403951228E-9;
-2,12521045522442E-9;
-5,29738258413715E-9;
-6,57492919239267E-9;
-5,91694086480307E-9;
-4,53463534463333E-9;
-3,82028812234297E-9;
-4,1791198872515E-9;
-4,73060145585045E-9;
-4,0965357227775E-9;
-1,62856153199592E-9;
1,95316750499787E-9;
5,03144075827804E-9;
6,29367523338913E-9;
5,68627666405146E-9;
4,34609828223487E-9;
3,60282401203366E-9;
3,87354867483167E-9;
4,3599313748515E-9;
3,77969147054342E-9;
1,51727839763429E-9;
0,00933343227582853;
0,0226297252267099;
0,0163727315176544;
0,00943309096826004;
0,0121693877701065;
0,00702616392859682;
0,00563481339457372;
0,00458270581330219;
0,00084049638906095;
0,00103239082873809;
-0,00119043788777298;
-0,00199194832657009;
-0,00280713146552486;
-0,00455367635019249;
-0,00488732117441645;
-0,0058558975073351;
-0,00594121381007924;
-0,00618248441235724;
-0,00699357324926086;
-0,00792070210496476;
-0,00934888944235084;
-0,0102428926582034;
-0,0105185043867548;
-0,0101085276853236;
-0,00920766818951732;
-0,00843029980694284;
-0,00783043747848496;
-0,00745747526571945;
-0,00704805659659608;
-0,00641867851775045;
-0,00567545233758173;
-0,00495848359183033;
-0,00445307671555313;
-0,00409076311521276;
-0,00366382253573175;
-0,00302656461993081;
-0,00222822947533525;
-0,00157282559570131;
-0,00136107339363655;
-0,0016652442164863;
-0,00222572657790098;
-0,00258706511578675;
-0,00240676659963714;
-0,00165718863420343;
-0,000624737072858938;
0,00031666707141838;
0,000963660617313944;
0,00137586554948002;
0,00176512879949072;
0,00227846058140972;
0,00287371285059948;
0,0033782121355139;
0,00366494626067649;
0,00378442926232747;
0,00392475050889386;
0,00423345051829432;
0,00465410584258963;
0,00492913255162693;
0,00478539884347731;
0,00416205717610591;
0,0032983932210602;
0,00260120214718687;
0,00238404314007157;
0,00267133113270196;
0,00320916800538546;
0,00366539328574131;
0,00385876574151749;
0,003845941752612;
0,00381730242644693;
0,00390618762568982;
0,00407639007074165;
0,00417462249526745;
0,00408915149451106;
0,00386594160545345;
0,00367395321969019;
0,00364552147386155;
0,00373088610385558;
0,00370125893557707;
0,00331395134403986;
0,00251555601421611;
0,00151956371067975;
0,000688086497252567;
0,000299918493117167;
0,000376493530592056;
0,000692032785355244;
0,000951430438928296;
0,000993753099688374;
0,00086918099168633;
0,00074630238438421;
0,000742934691252249;
0,000826536460705746;
0,000860916926290915;
0,000746778189227113;
0,000524379313232006;
0,000342643867041532;
0,000317920608158777;
0,000405554515205798;
0,000402862716590221;
9,51217662911412E-5;
-0,000565179869388582;
-0,0107236169466679;
-0,0246910056126684;
-0,0187063569513277;
-0,0116223616112862;
-0,0139972405926586;
-0,00853592453691992;
-0,00701192311489512;
-0,00596902499078602;
-0,00223034185093974;
-0,00231727283602938;
8,9766484779982E-5;
0,00103463769933273;
0,00186474511110423;
0,00353260468546386;
0,00382392833766183;
0,00488786478349454;
0,00516656425153051;
0,00552145817277721;
0,00617835461111838;
0,00664177363612553;
0,00746064846486007;
0,00787759455439638;
0,00802158428836471;
0,00784052825001207;
0,00735462296472613;
0,00695105457190283;
0,00655991636415506;
0,00626842995476494;
0,00594144909280772;
0,00548465718301917;
0,00497855094083676;
0,0044587978006936;
0,00403463854032141;
0,00366783529683327;
0,00326335565755133;
0,0027632361814537;
0,00218227128032415;
0,00167055162254593;
0,00136622586241079;
0,00130576152922187;
0,00137147114103205;
0,00134804240741704;
0,00107698920852121;
0,000543582322681159;
-0,000116335721990444;
-0,000724584268815779;
-0,00118434830563591;
-0,00152245084094384;
-0,0018402465363488;
-0,00220794543786227;
-0,0026053181286821;
-0,0029492406742168;
-0,00317776733902247;
-0,00331523270703091;
-0,0034529212283547;
-0,00366309125845871;
-0,00391872082240973;
-0,0040937770267503;
-0,0040538722859968;
-0,00376838250125605;
-0,00335502044663676;
-0,0030153859963826;
-0,00290602948755914;
-0,00304040757111137;
-0,003292910581575;
-0,00349792765195348;
-0,00356466226649225;
-0,0035216504096839;
-0,00346521757808797;
-0,00346340081270752;
0,00583490398992087;
0,0191365796015672;
0,0129822378178925;
0,0062189018393356;
0,00911823598691091;
0,00405614690567475;
0,00268895063240744;
0,00172178657535635;
-0,00174889379389819;
-0,00107069847140184;
-0,00270327551475451;
-0,00299983372817456;
-0,00354213395861658;
-0,00526025294605911;
-0,0056920579692948;
-0,00673010410415846;
-0,00677104805310504;
-0,00688061207191205;
-0,00756243657452308;
-0,0084259510867178;
-0,00983919561005587;
-0,0106941134231971;
-0,0108530475475666;
-0,0102703618435589;
-0,00922130838377677;
-0,0083836417850932;
-0,00778749186822797;
-0,00737190113926815;
-0,00675580145033639;
-0,00572894597974904;
-0,0138334743606826;
-0,0260143285659931;
-0,0190763898360307;
-0,0118325466460667;
-0,0143233920793371;
-0,00870290302650539;
-0,00657207742905132;
-0,00484633030875371;
-0,000879726656422282;
-0,00142673479029084;
0,000137428389069698;
0,00050019461360217;
0,00148904629723813;
0,00402982615791124;
0,00541781520350481;
0,0072688015420686;
0,00788380381623927;
0,00846407014892133;
0,00974438655696037;
0,0114429391093897;
0,0138081431305214;
0,0154705296438219;
0,0160940560318775;
0,0156525436230102;
0,0146307534450595;
0,0139243123965791;
0,0136043084993822;
0,0134405464051459;
0,0128205769871467;
0,0114468517886665;
0,009679926134574;
0,00812929826722299;
0,00733979500831927;
0,0072494650762005;
0,00732871800539211;
0,00704639279197935;
0,00629121157326249;
0,00551770812249957;
0,00531684896153901;
0,00591694685270196;
0,00693551867886843;
0,007615817387248;
0,00738934337778724;
0,00626571051583198;
0,0047934681802405;
0,00360097107905692;
0,00290879966812594;
0,00240825653359875;
0,00157528903020407;
0,000160789112760772;
-0,00156591705845967;
-0,00301312944330239;
-0,00373334262682663;
-0,00377214856073978;
-0,00360550603058552;
-0,00372474850123416;
-0,00421567075128968;
-0,00468528843359382;
-0,00460128972129732;
-0,00376462320340551;
-0,00252609364941231;
-0,00156328893072966;
-0,00139292583407508;
-0,00200714227843973;
-0,00291867573412756;
-0,00356843010748299;
-0,00375927411207181;
-0,00376909615292779;
-0,00406610247162128;
-0,00487533292643289;
-0,00596042829725116;
-0,00679810968151268;
-0,00699422130349472;
-0,00659182592174627;
-0,00601571746521671;
-0,00570265497596813;
-0,00572814686392569;
-0,00574298499091414;
-0,00527531855222507;
-0,00415067329573276;
-0,00268307370845235;
-0,00147605608201967;
-0,0009895356371725;
-0,00121727244283183;
-0,0017275041395092;
-0,00202434292177451;
-0,00193210997558958;
-0,00169547347087;
-0,00172777686419423;
-0,00222820376333626;
-0,00298923696684758;
-0,00355071079831818;
-0,00356644027896977;
-0,00307506943503473;
-0,00245037484210064;
-0,00207529568924248;
-0,00201395958652789;
-0,00195704487812906;
-0,00148859160129567;
-0,000455589034435446;
0,000864752673781804;
0,00194100393789937;
0,00236879611519308;
0,00215412241348498;
0,00167722506652677;
0,00137499942027325;
0,00140365347998199;
0,00155082700700552;
0,00145593737225838;
0,000945116742166801;
0,000199443128783298;
-0,000379761512480964;
-0,000490893616066595;
-0,00016783214701166;
0,000264195571480513;
0,000473198024494412;
0,000405791615627608;
0,0003336671226473;
0,000620161079876065;
0,00139823113821062;
0,00242555899655288;
0,00323876224652745;
0,00348575674699561;
0,00317212850069927;
0,00262933998261284;
0,00223839984736022;
0,00213674039193475;
0,0021418632001258;
0,00194227287802017;
0,00138747851073833;
0,000633449766696358;
2,60693990522881E-5;
-0,000175133970645887;
2,68085283705328E-8;
0,000271234411817428;
0,000353492402348665;
0,000202714207433914;
5,46854562757774E-5;
0,000222960711942528;
0,00082131036661333;
0,00163964457456955;
0,00227775169249968;
0,00243190663826771;
0,00210677351832972;
0,00158769562909478;
0,00120290989759406;
0,00107167820765097;
0,00103868290390556;
0,000837576042386786;
0,00033917240020311;
-0,000324258769917583;
-0,000858654617000434;
-0,0010438521004172;
-0,000906203981001405;
-0,000684740040596339;
-0,000621341966425651;
-0,000752005835943309;
-0,000874721268278366;
-0,000722427628140672;
-0,000199327555267995;
0,00051425696318113;
0,0010765476396046;
0,00122847263494891;
0,000973653353625978;
0,000554517305014551;
0,00025021911964938;
0,000162947045526163;
0,000162263206447497;
2,33615726596121E-5;
-0,000363327128053729;
-0,000887357219101984;
-0,00130235114531654;
-0,0014243202953627;
-0,00127636218706459;
-0,00105949665314566;
-0,000976011731292132;
-0,00105459291964489;
-0,00112439336498967;
-0,000961090146778237;
-0,000485260240673756;
0,000150366534870423;
0,000657942391005952;
0,000819601287172015;
0,000638126400410524;
0,000316609324303128;
8,91838141786453E-5;
4,23786501603898E-5;
6,85864005566545E-5;
-1,88509096416149E-5;
-0,000311371709365205;
-0,000718268035960889;
-0,00103651332309475;
-0,00111493098399786;
-0,000973428196451061;
-0,000778167072560737;
-0,000695232751838686;
-0,000746642052409173;
-0,000789972192187265;
-0,000639787968786552;
-0,000231391973069185;
0,00964135379530745;
0,0233694625360293;
0,0172566848258059;
0,0101758207500873;
0,0126527967514281;
0,00732532716130197;
0,00589708176257729;
0,00486859333899009;
0,00105859215653798;
0,00101644180969929;
-0,00153371918133742;
-0,00259196307306646;
-0,00347168038988948;
-0,00510743874401739;
-0,00528949075027363;
-0,00619898342528129;
-0,00633378174475573;
-0,00661647568551113;
-0,00731068005971841;
-0,00791114016493309;
-0,00890700310529617;
-0,00945657987620525;
-0,00962151342433776;
-0,00933297241655089;
-0,00865064661894133;
-0,00803280748706697;
-0,00747416221814378;
-0,00709229193060136;
-0,00674448649947206;
-0,00630710628718676;
-0,00582920689259977;
-0,00532215246952169;
-0,00487618109793314;
-0,00443694387960378;
-0,00390281744144343;
-0,00323208622390583;
-0,00248484520103807;
-0,00187178515462993;
-0,00157503414536894;
-0,00162723178812269;
-0,00185202857849815;
-0,00194720021215463;
-0,00168535195416126;
-0,00103769929027858;
-0,000184677004959621;
0,000622571340689644;
0,00122823842851599;
0,0016403198773554;
0,00197791064410022;
0,00234153095007585;
0,00273191261383509;
0,00307380462223763;
0,00331163278194606;
0,00348426229278348;
0,00369896900301917;
0,00402534937499588;
0,00440060575287253;
0,00463958112134831;
0,00455948673481585;
0,00412858231173249;
0,00352152954432383;
0,00302783515232463;
0,00287334565764029;
0,00308317116641319;
0,00348351852553084;
0,00383530902918517;
0,00399430714952373;
0,00398013082717946;
0,00391508531711951;
0,00389787636400907;
0,00392267836091385;
0,00390598481790602;
0,00378666786555217;
0,00360125976302803;
0,00346022530528427;
0,00344086438013284;
0,00349088091241104;
0,00343537334918444;
0,00309703333609595;
0,00244231901739577;
0,00163662567748538;
0,000956559897460064;
0,00061740271256008;
0,00064090816785452;
0,00085859803128756;
0,0010422455967256;
0,0010585559157973;
0,000933420155885943;
0,000788999632743774;
0,000718915271274323;
0,000710116874315981;
0,000672052054579786;
0,000537857633398217;
0,000340350880402102;
0,000189490877979239;
0,000166573185069347;
0,000227669396874325;
0,000207694583789779;
-6,45307837731862E-5;
-0,000624674290399872;
-0,0106518704313711;
-0,0245145876805232;
-0,0184941561975511;
-0,0114432448237793;
-0,013882676051998;
-0,00847339323229274;
-0,00696950275006857;
-0,00592805088609959;
-0,00219976964558938;
-0,0023211508619143;
3,74975167395977E-5;
0,00094481366329071;
0,00176495761197413;
0,00344477608854356;
0,00374793194807877;
0,00480576306640836;
0,00506387813681579;
0,00540713612340631;
0,00608598243950972;
0,00660989315487709;
0,00750689483923417;
0,00798610707055331;
0,00815255053484089;
0,00795392325268386;
0,0074306305348993;
0,00699405079782543;
0,00658650585878764;
0,00629138686796616;
0,00596207599503045;
0,00549701291698564;
0,00497880860768298;
0,00445008609852772;
0,00402346815927325;
0,00365660466507476;
0,00324688797838668;
0,00273323628699321;
0,00213614363635586;
0,00161692883701848;
0,00132218998414461;
0,00128750384339962;
0,00138516334021077;
0,00138706629766666;
0,00112650439868277;
0,00058835272848545;
-8,60136898848168E-5;
-0,000711144075611947;
-0,00118418398203774;
-0,00152784456806333;
-0,00184126700384254;
-0,00219522485011637;
-0,00257409293024084;
-0,00290281385574739;
-0,00312731466729668;
-0,00327469212142585;
-0,00343158879164857;
-0,00366103912032923;
-0,00392852638646349;
-0,00410716528610332;
-0,00406779937817918;
-0,00378558832794613;
-0,00337901527984375;
-0,00304495343545142;
-0,00293488264873432;
-0,00306279369553738;
-0,00330990511613133;
-0,00351760902661286;
-0,00359434441375287;
-0,0035579512289486;
-0,00349111675772534;
-0,00345683616837639;
-0,00344759741294274;
-0,00340647335418221;
-0,00329389235770344;
-0,00313507485846215;
-0,00300214753468845;
-0,00294432541894687;
-0,00292779500832074;
-0,00284263109991998;
-0,00257964978000894;
-0,00212047026118652;
-0,00156893852513635;
-0,00109498446675607;
-0,000829246226369623;
-0,000784742793371875;
-0,000860672062011328;
-0,000920606528031833;
-0,000883061007521256;
-0,000758494116582894;
-0,000613676057757658;
-0,00050214685795925;
-0,000421582087026565;
-0,000329829877501091;
-0,000198188678041114;
-4,88400088954743E-5;
6,07421748850727E-5;
9,4854347127262E-5;
8,73183909681495E-5;
0,000133475535246001;
0,000325132499366555;
0,000675993942678455;
0,00109681804527145;
0,00144345648209653;
0,00160535100143735;
0,0015710931115876;
0,00142556743034933;
0,0012851569514001;
0,0012221714763174;
0,00123287052938956;
0,00126508376610392;
0,00127422775701374;
0,00125844766339895;
0,0012470589532237;
0,00125933619597655;
0,00127599310220197;
0,00125264200108264;
0,0011653495823818;
0,0010473616442227;
0,000980300994338763;
0,00103993087089431;
0,00123564032415271;
0,00149146581307985;
0,00168665830491492;
0,00172877254958412;
0,00160759331361236;
0,00139311176825644;
0,00118288826412257;
0,00104013146070955;
0,000966392621293531;
0,000922081894226619;
0,000870353724338582;
0,000805467436798608;
0,000745145651219831;
0,000700061945985463;
0,000653198347290758;
0,000571330887522294;
0,000440297443577355;
0,000291959608640296;
0,000194861351905114;
0,000209831552322998;
0,000342108734945729;
0,00052754908028121;
0,000666353193594564;
0,000682202155969262;
0,000565666001138509;
0,000372907120984198;
0,000183982526909453;
5,32476176027033E-5;
-1,36421516996306E-5;
-4,54578871429321E-5;
-7,23030295129377E-5;
-0,000103341909746529;
-0,000131054022961;
-0,000152348835571097;
-0,000182313132905889;
-0,000244540822651056;
-0,000344985376978566;
-0,000453560905306829;
-0,000513801947026087;
-0,000478384679096285;
-0,000345730153071498;
-0,000169254638051607;
-2,98558270573784E-5;
1,06875531122307E-5;
-5,63093852212197E-5;
-0,000187108554395076;
-0,00031748661771758;
-0,000401296041582809;
-0,00042952379729487;
-0,000421450339005738;
-0,000401069470502061;
-0,000380239764983248;
-0,000360044739759658;
-0,000343736207542988;
-0,00034450906886574;
-0,00037748810617318;
-0,000441592059623862;
-0,000508570159198028;
-0,000532791715040028;
-0,00047882586220688;
-0,00034808039024012;
-0,000184115628725566;
-5,07284406533539E-5;
3,48023700442123E-6;
-2,93099131444841E-5;
-0,000116278139239874;
-0,000207269194833707;
-0,000263558169454128;
-0,000273333990042219;
-0,000247533235039588;
-0,000204567142440543;
-0,000158259570032193;
-0,000116767635827522;
-8,84979305915907E-5;
-8,47670979695407E-5;
-0,000113288697341439;
-0,00016700476538933;
-0,000219506314744292;
-0,000234792734899949;
-0,000187807025147684;
-8,23482213446051E-5;
4,69885019693229E-5;
0,000151726711822267;
0,000195080117501775;
0,000170142038139515;
0,000100190447513667;
2,29429333039047E-5;
-2,9590224665098E-5;
-4,33704639745907E-5;
-2,21371412489481E-5;
2,06894288077192E-5;
6,98858181642805E-5;
0,000111528949602396;
0,000133047915462726;
0,000124885557261104;
8,56649719449025E-5;
2,736559268627E-5;
-2,5508569821117E-5;
-4,55244009813565E-5;
-1,66627096849205E-5;
5,5333756016485E-5;
0,000143874825899855;
0,000214008992254638;
0,000239370620387338;
0,00021391401705198;
0,000152583981676599;
8,21275767948851E-5;
2,84542792098919E-5;
7,24637154826777E-6;
2,08262079856418E-5;
6,01280712682092E-5;
0,000108956765112393;
0,000148738277701229;
0,000163566811792901;
0,000145463065802313;
9,83420466047062E-5;
3,80996652639923E-5;
-1,27378234615913E-5;
-3,43358426477459E-5;
-1,85052960329653E-5;
2,74319605848069E-5;
8,39366191873801E-5;
0,000127852457587592;
0,000141889422361916;
0,000120782180491215;
7,22543723526259E-5;
1,34510741270983E-5;
-3,52325392903847E-5;
-5,69957899230263E-5;
-4,45029328571234E-5;
-3,06805216610599E-6;
5,05095142922477E-5;
9,40036351602584E-5;
0,00010891690834061;
8,86761752315728E-5;
4,15425937775178E-5;
-1,356208277101E-5;
-5,61126629937336E-5;
-7,29415108332547E-5;
-6,2553268029607E-5;
-3,35071573387681E-5;
8,229578461959E-7;
2,74745164475931E-5;
3,69940966841503E-5;
2,48373819359506E-5;
-7,43751220720737E-6;
-5,09820753900156E-5;
-9,03233124515284E-5;
-0,000107976282442985;
-9,25197601584061E-5;
-4,6052655016339E-5;
1,43609627743462E-5;
6,37550543587557E-5;
8,17238261549841E-5;
6,29597680639368E-5;
1,92390824215259E-5;
-2,82568498632136E-5;
-6,09718579883277E-5;
-7,15069097529986E-5;
-6,39907808409997E-5;
-4,78950068274591E-5;
-3,12376952617508E-5;
-1,82556604264706E-5;
-1,16964208637628E-5;
-1,54242721769522E-5;
-3,30554151929172E-5;
-6,28076534268042E-5;
-9,35468195334595E-5;
-0,000107461529522845;
-8,98663990242266E-5;
-4,01270885288138E-5;
2,47284430844192E-5;
7,78097000073353E-5;
9,74135426378816E-5;
7,93729262466126E-5;
3,82423200147095E-5;
-3,2026036936844E-6;
-2,83117333617388E-5;
-3,46125581030061E-5;
-3,08755170567969E-5;
-2,71941867453558E-5;
-2,69819051123902E-5;
-2,71011861803352E-5;
-2,46343036108586E-5;
-2,28074946567911E-5;
-2,95052390587037E-5;
-4,88788817209104E-5;
-7,35820513067219E-5;
-8,57820161119246E-5;
-6,82655444923612E-5;
-1,81101719225096E-5;
4,79409890919003E-5;
0,000101780583221069;
0,000120935286250909;
0,000102253803445468;
6,24080523865192E-5;
2,51835569797034E-5;
5,39971447719782E-6;
1,37335888665839E-6;
5,76383119307616E-7;
-7,46056955211498E-6;
-2,22471717594899E-5;
-3,45155424600943E-5;
-3,66418681481093E-5;
-3,12648445549178E-5;
-2,97232266540393E-5;
-4,10740597779408E-5;
-6,12490191346398E-5;
-7,2656177479877E-5;
-5,62139490204401E-5;
-7,12400671562915E-6;
5,83531037630606E-5;
0,000111497052321816;
0,000129511048608831;
0,000110134975806929;
7,1568990304142E-5;
3,80991920197597E-5;
2,27983851145085E-5;
2,05278019681742E-5;
1,57909444022365E-5;
-2,05050232274939E-6;
-2,92503947743867E-5;
-5,15447044655449E-5;
-5,74785935361601E-5;
-4,9157855292365E-5;
-4,06477163043088E-5;
-4,49828106720809E-5;
-6,09017907195617E-5;
-7,12724225939154E-5;
-5,57266919132492E-5;
-7,96531107992573E-6;
5,63899571576132E-5;
0,000108518318010701;
0,00012567674579849;
0,000106378055997507;
6,98343610850521E-5;
4,03978656460918E-5;
2,94895840945275E-5;
2,91504526775539E-5;
2,16188052901624E-5;
-3,73720762007111E-6;
-4,05049779602234E-5;
-7,04458933839E-5;
-7,90617819736077E-5;
-6,79785762360599E-5;
-5,33386716609832E-5;
-5,13190095373801E-5;
-6,30293068440482E-5;
-7,19726335540826E-5;
-5,69993602942063E-5;
-1,06438357944592E-5;
5,22336016184636E-5;
0,000103143603883042;
0,000119713635395876;
0,000101121144274681;
6,71452100767085E-5;
4,18411525202973E-5;
3,50830115518985E-5;
3,66656145871477E-5;
2,71852371505438E-5;
-3,83492909301683E-6;
-4,78459004192951E-5;
-8,3545411369009E-5;
-9,40937447505531E-5;
-8,06867670386588E-5;
-6,09688509047308E-5;
-5,35128616615033E-5;
-6,13986686771008E-5;
-6,89008816099463E-5;
-5,45207736536543E-5;
-9,9220451828008E-6;
5,08893219627975E-5;
0,000100113618364788;
0,000116010179588475;
9,83224487403261E-5;
6,70172311832031E-5;
4,55546103882033E-5;
4,23727655265949E-5;
4,55345048203604E-5;
3,45404267893562E-5;
-8,08066181584325E-7;
0,0092831347573944;
0,0225393564271407;
0,0162702673638456;
0,0093456941010638;
0,0121055792527104;
0,00697415726941298;
0,00557813709354869;
0,00451973896686773;
0,000791097783038185;
0,00102536550343406;
-0,00113937042739637;
-0,00189388715220128;
-0,00269407327233323;
-0,00445739872762192;
-0,00481976813246897;
-0,00580639055029023;
-0,00589195889735433;
-0,00612890082764924;
-0,00695220113009472;
-0,00791790238167402;
-0,00939956989779864;
-0,0103368526819037;
-0,0106258082105628;
-0,0101997160205017;
-0,00927248613364924;
-0,00847995882096734;
-0,00788211140603928;
-0,00751443480383574;
-0,00709241788028906;
-0,00642322807738639;
-0,00562510162290028;
-0,00486375489488814;
-0,00434438481390818;
-0,00399791078187039;
-0,00359717727273015;
-0,00297489792925727;
-0,00217440590791937;
-0,0015138009792399;
-0,00131514247201337;
-0,00166006815273107;
-0,00227664167405544;
-0,00268336455384773;
-0,00251730641525734;
-0,00175100842884106;
-0,000690271399028713;
0,000268858105332675;
0,000916070075077019;
0,00132389401675616;
0,00172475316949569;
0,00227517438576005;
0,0029218651739452;
0,0034679222808634;
0,00376756838492947;
0,00387224754115239;
0,00398886892873527;
0,00428539790781336;
0,00471022168403268;
0,0049911335487016;
0,00483378655977027;
0,00416847923640809;
0,00324737118057139;
0,00250370666729232;
0,00227177686071509;
0,00257606471197536;
0,00314340071352442;
0,00361926736876164;
0,00381475169421013;
0,00379839608582962;
0,0037803760721197;
0,00390356795443421;
0,00412160279566722;
0,00425846978085498;
0,00418488394603351;
0,00394799089059014;
0,00373478270214615;
0,00369674411686828;
0,00378793905801122;
0,00376472281890274;
0,00336359998409718;
0,00252286332838474;
0,00146914886044132;
0,000590975341862283;
0,000187818497726035;
0,000281393355514335;
0,000627034377676325;
0,000907408775329968;
0,000953414446771826;
0,000826089422014577;
0,000712875405310871;
0,000741005720122941;
0,000868747755394858;
0,000938776578516798;
0,000835511285725986;
0,000600583723198492;
0,000400028169839838;
0,0003679991502365;
0,000462785587956246;
0,000466867032234497;
0,00014535413978229;
-0,000556983407708613;
-0,0107725399745339;
-0,0247861420888722;
-0,0188164579796463;
-0,0117157193615273;
-0,0140604363657952;
-0,00857733573016515;
-0,00704839459783918;
-0,00600756263887375;
-0,00226015866368957;
-0,00231840226191045;
0,000129045934187264;
0,00110654941761231;
0,00194652593256819;
0,0036030037786565;
0,00387778684844734;
0,00493644781400171;
0,00522330218671794;
0,00558517403875066;
0,0062285319714554;
0,00665077291330677;
0,00741384759304975;
0,0077856363788307;
0,007914879029959;
0,00775009027067745;
0,00729394446130021;
0,00691250808215409;
0,00652727851095633;
0,00623432020700152;
0,0059151344155194;
0,00548425402231376;
0,00501484252368053;
0,00452472074832617;
0,00410944409862817;
0,00373238108447824;
0,0033135055268011;
0,00280988426254118;
0,00223779449719653;
0,00173312323442137;
0,0014156495670156;
0,00131531725752962;
0,00132713017033471;
0,00126006912050002;
0,000974649783118455;
0,00045686262684115;
-0,000174074546205962;
-0,000760228576889167;
-0,00121336431478987;
-0,00155242464720027;
-0,00186331662776303;
-0,00220780472576554;
-0,00257212290150344;
-0,00288935332904386;
-0,00310994919456149;
-0,00325658397420368;
-0,00340666195381263;
-0,0036187947278376;
-0,00386506974979483;
-0,00403311475210111;
-0,00400583562731505;
-0,00375853801479176;
-0,00339670133839525;
-0,00309879700881498;
-0,00300328744515518;
-0,00312282085404651;
-0,00334741882260241;
-0,00353069462760392;
-0,003590294755366;
-0,00354779582718435;
-0,00348530392990827;
-0,00346287051842336;
-0,00346846691679617;
-0,00343923656896601;
-0,00332956089262329;
-0,00316137415498033;
-0,00300886058640492;
-0,00292836504797938;
-0,00289458342438575;
-0,00280275397247795;
-0,0025432231473328;
-0,00209315263663718;
-0,00155169231797851;
-0,00108627463541847;
-0,000826607696334774;
-0,000784206033372838;
-0,000855769677643893;
-0,000904110009845537;
-0,000852281810948492;
-0,000720706560626157;
-0,000586176597821597;
-0,000504415013084204;
-0,000463314170344302;
-0,000403100377072765;
-0,000280254406201527;
-0,000114661723209986;
2,47256130564221E-5;
8,55059174750527E-5;
9,15158507623862E-5;
0,000140832328995061;
0,000336218607987816;
0,000699632735644019;
0,00113951168140843;
0,00150085330307753;
0,0016638892559957;
0,00161881893129185;
0,00146244210614527;
0,00132275893138079;
0,00127151516008027;
0,00128994078183507;
0,0013071082163766;
0,0012719833161825;
0,0011967556159318;
0,00113789553217012;
0,00113662965064237;
0,0011751142330253;
0,00118976835628822;
0,00113219122024719;
0,00102454802952449;
0,0009577678020567;
0,00102719343285897;
0,00125353209854303;
0,00155266321694901;
0,00178196289078712;
0,00183141241210395;
0,00169245749749688;
0,00145470888449192;
0,00123626333404013;
0,00110310503969836;
0,00103773325871946;
0,000974756483090085;
0,000867392201345556;
0,000727302521062278;
0,000606953055784855;
0,000544630926617642;
0,000524034063035001;
0,000486569535587401;
0,000387457160328958;
0,000246717458488937;
0,000147564510970794;
0,000177345608624058;
0,000355026204043552;
0,000603543473714791;
0,000792312698730563;
0,00082068709754063;
0,000680908497187107;
0,000454918573072964;
0,00025048018166492;
0,000127483282641201;
6,94416488049281E-5;
1,6255924585368E-5;
-7,48952166174815E-5;
-0,000193218503317579;
-0,00029059994224191;
-0,000331988543418826;
-0,000332365054613252;
-0,00034548989765558;
-0,000412640779204841;
-0,000516041492842281;
-0,000580279744408911;
-0,000526084602592669;
-0,000336325160759385;
-8,11306910605794E-5;
0,000120801293075718;
0,000178054840240027;
8,35927196207918E-5;
-8,82897663332855E-5;
-0,000240062319173509;
-0,000317809652015903;
-0,000336924443426609;
-0,000352191143020907;
-0,000402471280694788;
-0,000477820327547702;
-0,00053441689159431;
-0,000540369013255215;
-0,000509269236573089;
-0,000489983596734434;
-0,000520184050707923;
-0,00058414687855808;
-0,000613989678977527;
-0,000538248481938473;
-0,000341469454246072;
-8,68550159796659E-5;
0,000118672201793983;
0,000192851325761548;
0,000129456912996065;
-4,5808246838177E-6;
-0,000121592565573312;
-0,000173325201524327;
-0,000173913649965644;
-0,000172782977709673;
-0,000204802383305538;
-0,000260767442119759;
-0,000300969863113464;
-0,000296509754011514;
-0,00025950952185705;
-0,000233923848017861;
-0,000253758383102431;
-0,000305135048640757;
-0,000327358010330249;
-0,000256434520769301;
-7,84431242342421E-5;
0,000150215820431747;
0,000334104591913989;
0,000399889715341528;
0,000342183669473161;
0,000220848856864895;
0,000114096127640195;
6,48028902731738E-5;
6,01493658350627E-5;
5,59636730181167E-5;
2,12690178101613E-5;
-3,54413858470708E-5;
-7,84385318254643E-5;
-8,17102697700766E-5;
-5,59423416227744E-5;
-4,0317101656872E-5;
-6,52594271762024E-5;
-0,000118621166536678;
-0,000146586807365854;
-9,23315670173182E-5;
5,659096968308E-5;
0,000250294554814754;
0,000404333994796847;
0,00045390182011493;
0,000394378146514329;
0,000278829834545066;
0,000176405351064885;
0,000124847803384094;
0,000112607516965917;
0,000100529564397394;
6,13211259672295E-5;
2,73297141862176E-6;
-4,33786667686E-5;
-5,38206113234943E-5;
-3,7948023825235E-5;
-3,04102271130594E-5;
-5,82251390245767E-5;
-0,00011089986161839;
-0,000141187668235044;
-9,91157640095402E-5;
2,63180804863467E-5;
0,000191371568233112;
0,000321989959357049;
0,000361405486259559;
0,000305672404593488;
0,000201367518924934;
0,000109021290387689;
6,15031087653174E-5;
4,84644107646772E-5;
3,54870325309668E-5;
-1,27250537939795E-6;
-5,48254799725823E-5;
-9,70451231924427E-5;
-0,000107458549483589;
-9,41957438224626E-5;
-8,76338277316489E-5;
-0,000111571190035633;
-0,000157074473785429;
-0,000183099215125157;
-0,000146149039376801;
-3,66058696563612E-5;
0,000107548251885263;
0,000222011713042303;
0,000257551815172807;
0,000210828954924246;
0,000122300145262269;
4,43954239789786E-5;
5,42030651909956E-6;
-3,8260793577804E-6;
-1,33058143849728E-5;
-4,36363735227491E-5;
-8,85732176445632E-5;
-0,000123521901128879;
-0,000130584774320389;
-0,000116749534589044;
-0,000108378096709659;
-0,000126229649402311;
-0,00016280486434756;
-0,000182842843833374;
-0,000148894218010164;
-5,26341063506829E-5;
7,33315594555017E-5;
0,000173800035615705;
0,000206562468547496;
0,000168839382356385;
9,53851521543132E-5;
3,10972824899005E-5;
5,90806109553911E-8;
-5,82857780078051E-6;
-1,23563917269841E-5;
-3,7135408340649E-5;
-7,46263653948364E-5;
-0,000103538874768607;
-0,000108380767116521;
-9,50731736927666E-5;
-8,62265498963569E-5;
-9,97470360679085E-5;
-0,000129435654795306;
-0,000145374200880781;
-0,000115707846681699;
-3,3305509519356E-5;
7,42076052760911E-5;
0,000160051953362618;
0,000188516289594901;
0,00015733736459978;
9,6000398008307E-5;
4,24553883292988E-5;
1,69102318080558E-5;
1,23122027389839E-5;
6,74191608745577E-6;
-1,46343295950891E-5;
-4,694207764212E-5;
-7,19590562952145E-5;
-7,6425207002826E-5;
-6,52778771157423E-5;
-5,76552984184642E-5;
-6,88120572501611E-5;
-9,37235591739989E-5;
-0,000107373190420672;
-8,30467820386401E-5;
-1,4712719530098E-5;
7,45753535057132E-5;
0,00014576774727589;
0,000169110687642604;
0,00014280733095471;
9,15069608534634E-5;
4,67960504001599E-5;
2,53469197440773E-5;
2,10852044435504E-5;
1,56492680658692E-5;
-3,2553729774653E-6;
-3,1381669568816E-5;
-5,33396868763113E-5;
-5,79301863691501E-5;
-4,91962359687797E-5;
-4,30935241245478E-5;
-5,24375154104502E-5;
-7,32607837416287E-5;
-8,50134009361235E-5;
-6,56728259003597E-5;
-1,02172020097009E-5;
6,24579469877575E-5;
0,000120336358882078;
0,000139079748252554;
0,000117305905448499;
7,52575533068336E-5;
3,87352606567328E-5;
2,12081426546141E-5;
1,75060590953845E-5;
1,2508492406097E-5;
-3,77819402944724E-6;
-2,76960205260296E-5;
-4,64509691333168E-5;
-5,07332084051041E-5;
-4,37809387911004E-5;
-3,86570556073788E-5;
-4,59518899396069E-5;
-6,26424575991377E-5;
-7,22174723834073E-5;
-5,69029026564309E-5;
-1,2597489954619E-5;
4,55549078709617E-5;
9,18869743941758E-5;
0,000106944550510421;
8,97116461272619E-5;
5,644852694832E-5;
2,77379075146541E-5;
1,41710341161282E-5;
1,14077227374166E-5;
7,25772658658303E-6;
-6,2032823413849E-6;
-2,58644140082789E-5;
-4,12907326112136E-5;
-4,488962611613E-5;
-3,9179506236217E-5;
-3,46133027842707E-5;
-3,97658222951711E-5;
-5,24487561636742E-5;
-5,97710880482296E-5;
-4,77734174729683E-5;
-1,31856844372376E-5;
3,22069582941227E-5;
6,84231036139918E-5;
8,03792596700411E-5;
6,73818762454963E-5;
4,21233051687729E-5;
2,05211042640102E-5;
1,06041507799843E-5;
8,7895154967032E-6;
5,51614165406913E-6;
-5,29319378295303E-6;
-2,10301125930665E-5;
-3,33849859455954E-5;
-3,6312193950665E-5;
-3,16907761825719E-5;
-2,7636977016428E-5;
-3,09134670303602E-5;
-4,00614787180291E-5;
-4,54066616072626E-5;
-3,6385052892754E-5;
-1,04702400888458E-5;
2,35345052375425E-5;
5,06972383356316E-5;
5,98130332638666E-5;
5,04703857818944E-5;
3,21931302985944E-5;
1,67643662760944E-5;
9,95214986439961E-6;
8,85930114217454E-6;
6,26418848776413E-6;
-2,27570504587974E-6;
-1,46096681233545E-5;
-2,43268095577503E-5;
-2,67635813517877E-5;
-2,32362399900554E-5;
-1,97869287760576E-5;
-2,15626358322979E-5;
-2,7735610516405E-5;
-3,14639466924872E-5;
-2,51793956512359E-5;
-7,0155256717627E-6;
1,68473549476006E-5;
3,5920712521314E-5;
4,24100001190525E-5;
3,6147746309982E-5;
2,38692177831194E-5;
1,37267506242234E-5;
9,51224616694552E-6;
8,94401413475585E-6;
6,86301562734771E-6;
2,59579856149152E-7;
-9,12951340124036E-6;
-1,65754460239178E-5;
-1,86392249014403E-5;
-1,61471076668838E-5;
-1,33174246710587E-5;
-1,38697472408988E-5;
-1,7516179543109E-5;
-1,98851345386318E-5;
-1,60266880109294E-5;
-4,65538335642254E-6;
1,03325197387567E-5;
2,23198900677186E-5;
2,64810098883657E-5;
2,28568180853943E-5;
1,57521018312274E-5;
1,01622283929868E-5;
8,1694101756018E-6;
8,03932923023468E-6;
6,41361567605953E-6;
1,52544861767014E-6;
-5,25999646023824E-6;
-1,06905741700585E-5;
-1,24025921344798E-5;
-1,08006207762839E-5;
-8,51533128324752E-6;
-8,01731370174737E-6;
-9,47457090990661E-6;
-1,06471643217974E-5;
-8,849931477177E-6;
-3,30407752961159E-6;
4,06126707851387E-6;
9,96545450461277E-6;
1,21390108242627E-5;
1,07984774445886E-5;
8,15308025976986E-6;
6,48345190109841E-6;
6,40984794288482E-6;
6,68033713551008E-6;
5,49191174305365E-6;
2,1436181059092E-6;
-2,33012810645276E-6;
-5,96052671999938E-6;
-7,31867562590876E-6;
-6,45072400743764E-6;
-4,62028143013338E-6;
-3,21630738741094E-6;
-2,78573015851269E-6;
-2,90584059991911E-6;
-2,82744788845298E-6;
-2,20882569416471E-6;
-1,30565028024388E-6;
-5,58000347299152E-7;
-6,12870876778847E-8;
5,46798171294024E-7;
1,69074429986927E-6;
3,34603866658507E-6;
4,89961122793041E-6;
5,52066109201746E-6;
4,7338326194304E-6;
2,74061181720228E-6;
2,83775622222221E-7;
-1,77070008871842E-6;
-2,79745964190966E-6;
-2,54227902857259E-6;
-1,10602882206306E-6;
1,04834679504353E-6;
3,06502750300535E-6;
3,83910273542314E-6;
2,48711732535221E-6;
-1,02160539005912E-6;
-5,53922429283767E-6;
-9,12137496580084E-6;
-1,00406692251113E-5;
-7,81600137498324E-6;
-3,52152637421095E-6;
8,89386820386956E-7;
3,77963504172551E-6;
4,68224183346527E-6;
4,23976431470071E-6;
3,40634531272403E-6;
2,67015388205681E-6;
1,96145040802612E-6;
1,22356198026345E-6;
9,58178524657798E-7;
2,03932594099721E-6;
4,78644572852825E-6;
8,09794964161259E-6;
9,60585211833947E-6;
7,07161735287513E-6;
1,51707751058937E-7;
-8,84878075816307E-6;
-1,60173343836106E-5;
-1,81241772241345E-5;
-1,45937334605583E-5;
-7,73764934814075E-6;
-1,09527658954069E-6;
2,86224607532364E-6;
3,97853810326475E-6;
3,82232093078019E-6;
3,96411341308024E-6;
4,67213795549017E-6;
5,09434035107396E-6;
4,60357505557884E-6;
3,90108988414841E-6;
4,66442952303705E-6;
7,86381992685154E-6;
1,22082708997812E-5;
1,43064304583449E-5;
1,08166078731023E-5;
1,13677034674083E-6;
-1,14936174140976E-5;
-2,15708869538955E-5;
-2,46528895936083E-5;
-2,00913721526223E-5;
-1,11990360344758E-5;
-2,7913069514208E-6;
1,99773287733848E-6;
3,2732322175163E-6;
3,35615262901994E-6;
4,3103682287856E-6;
6,21632285655339E-6;
7,57934406065483E-6;
7,30341947080371E-6;
6,24633281488827E-6;
6,73402248483923E-6;
1,02678912250931E-5;
1,54174300663864E-5;
1,79833607241009E-5;
1,37477128954257E-5;
1,89923275851828E-6;
-1,35883375235397E-5;
-2,59587884648657E-5;
-2,98179681377884E-5;
-2,4464322941926E-5;
-1,39992690492746E-5;
-4,23645360975061E-6;
1,1799118679902E-6;
2,57166582672393E-6;
2,85554533372472E-6;
4,47866548936382E-6;
7,36332335267106E-6;
9,49845547636545E-6;
9,41102298161057E-6;
8,0770648475078E-6;
8,33167192476616E-6;
1,20995929436738E-5;
1,78545617494781E-5;
2,07814275821813E-5;
1,59885759752759E-5;
2,49987061695481E-6;
-1,51547380277284E-5;
-2,92680750350556E-5;
-3,37257614895561E-5;
-2,77900120816962E-5;
-1,61618532769353E-5;
-5,40613187230886E-6;
4,58134147997575E-7;
1,92884620598317E-6;
2,37895648391549E-6;
4,54110783156933E-6;
8,20654656586751E-6;
1,09609612141768E-5;
1,10366419440285E-5;
9,49415156474783E-6;
9,55380303121264E-6;
1,34672878271515E-5;
1,96505980004205E-5;
2,2842413356557E-5;
1,76569103622665E-5;
2,99265576205386E-6;
-1,62212378389011E-5;
-3,15928438500593E-5;
-3,64920479421392E-5;
-3,01597219593231E-5;
-1,77295987533267E-5;
-6,30008551430471E-6;
-1,46270907253968E-7;
1,36929760968563E-6;
1,95239112303131E-6;
4,53526392530061E-6;
8,80268926742658E-6;
1,20376646228437E-5;
1,22510276668656E-5;
1,05584185039052E-5;
1,04560662785573E-5;
1,44371555758607E-5;
2,08925791867486E-5;
2,4263383616275E-5;
1,88269570147583E-5;
3,39160210222984E-6;
-1,6851589056096E-5;
-3,30586897502624E-5;
-3,8262568101816E-5;
-3,16956245356307E-5;
-1,87783920550809E-5;
-6,9529588885009E-6;
-6,47357708728268E-7;
8,82874446808958E-7;
1,56824409043291E-6;
4,46580739592736E-6;
9,17597068731096E-6;
1,27675966329331E-5;
1,30945830426655E-5;
1,13022190078401E-5;
1,10671417522163E-5;
1,50489850284788E-5;
2,16412123704996E-5;
2,51158926186312E-5;
1,95503420481755E-5;
3,69331541794671E-6;
-1,71206803684347E-5;
-3,3797108549364E-5;
-3,91863858762432E-5;
-3,25234441821414E-5;
-1,93894139261235E-5;
-7,40617115767443E-6;
-1,0661243576173E-6;
4,53455211213285E-7;
1,21410300912424E-6;
4,3332426477094E-6;
9,34662229655538E-6;
1,31862025371831E-5;
1,36052294851203E-5;
1,17569358104949E-5;
1,14158116960155E-5;
1,53426778177314E-5;
2,19566651617882E-5;
2,54710299505173E-5;
1,98804232598233E-5;
3,90071703579126E-6;
-1,70914452008599E-5;
-3,39231371026728E-5;
-3,93944269180138E-5;
-3,27520764981963E-5;
-1,96299251253335E-5;
-7,68985927994903E-6;
-1,41357092255651E-6;
7,47851379028392E-8;
8,87455532190841E-7;
4,14741557631959E-6;
9,3431807923083E-6;
1,33364371831E-5;
1,38283779249352E-5;
1,1961918012556E-5;
1,15388625091522E-5;
1,53650959151045E-5;
2,19043646066388E-5;
2,54042004580379E-5;
1,98761303436103E-5;
4,02602998229486E-6;
-1,68126408398822E-5;
-3,35338823988206E-5;
-3,89988138559176E-5;
-3,24737432974585E-5;
-1,9554237166725E-5;
-7,82462660355108E-6;
-1,69314401170509E-6;
-2,52612747307213E-7;
5,91985309129161E-7;
3,92320654898157E-6;
9,19759092709352E-6;
1,32633464197571E-5;
1,38110665830227E-5;
1,19582307823701E-5;
1,14745138534903E-5;
1,51632128734012E-5;
2,15478796617758E-5;
2,49877629062349E-5;
1,9594426246705E-5;
4,08314445470633E-6;
-1,63265459340941E-5;
-3,27162568968867E-5;
-3,81006138592819E-5;
-3,17717627774219E-5;
-1,92114655225629E-5;
-7,82922909963477E-6;
-1,90833826454888E-6;
-5,28923543072163E-7;
3,30201663589809E-7;
3,67327257189034E-6;
8,93807081917878E-6;
1,30070733958056E-5;
1,35951554819534E-5;
1,17820899640068E-5;
1,12561277885744E-5;
1,47780931847482E-5;
2,09431736837051E-5;
2,42855712291473E-5;
1,9085115212198E-5;
4,08267477438782E-6;
-1,56736437395141E-5;
-3,15513909672781E-5;
-3,67939552704789E-5;
-3,07243247445484E-5;
-1,86489543548819E-5;
-7,72364998435682E-6;
-2,06542794323781E-6;
-7,57470315031237E-7;
1,01286032492052E-7;
3,40615217064153E-6;
8,58748286289982E-6;
1,26014975788828E-5;
1,32162168048368E-5;
1,14640079899823E-5;
1,09116042345755E-5;
1,42445622871413E-5;
2,01385518511707E-5;
2,33531463624115E-5;
1,83911947027189E-5;
4,03242874491401E-6;
-1,48920751116659E-5;
-3,01139896854676E-5;
-3,5165237189366E-5;
-2,94034934255821E-5;
-1,79110436118836E-5;
-7,52765671740469E-6;
-2,17185896047407E-6;
-9,42980722805353E-7;
-9,7080510514039E-8;
3,12818546118162E-6;
8,165320139184E-6;
1,2076265426464E-5;
1,2705607228697E-5;
1,10308923537756E-5;
1,04655315720827E-5;
1,35934192131835E-5;
1,9176931640013E-5;
2,2239978733127E-5;
1,75510943553874E-5;
3,9395082411731E-6;
-1,40157128870816E-5;
-2,84705540456617E-5;
-3,32914097115228E-5;
-2,78734691553604E-5;
-1,7037255817301E-5;
-7,25891485237151E-6;
-2,23435739507491E-6;
-1,08974659160485E-6;
-2,66941101300232E-7;
2,84522184523394E-6;
7,68936468105442E-6;
1,14583978301169E-5;
1,20919927761867E-5;
1,05074784708787E-5;
9,94053540373117E-6;
1,28527533087262E-5;
1,80971455040407E-5;
2,09907652341122E-5;
1,65997712617192E-5;
3,81116211921132E-6;
-1,30735904646431E-5;
-2,66790512782084E-5;
-3,12397701423578E-5;
-2,61903704548118E-5;
-1,60620138913277E-5;
-6,93265127597835E-6;
-2,25857926044998E-6;
-1,20132034428926E-6;
-4,09829553283961E-7;
2,56280537922004E-6;
7,17584394588329E-6;
1,07724083176369E-5;
1,1401400254565E-5;
9,91630534715557E-6;
9,35720967461598E-6;
1,20478673493636E-5;
1,69338899856375E-5;
1,9645365017364E-5;
1,55685649053284E-5;
3,65441176818726E-6;
-1,20905629156482E-5;
-2,47897820080814E-5;
-2,90689030948268E-5;
-2,44031153621215E-5;
-1,50153581483611E-5;
-6,56223374580305E-6;
-2,2496332883716E-6;
-1,28102612305654E-6;
-5,27285281427568E-7;
2,28568616463158E-6;
6,6389864368263E-6;
1,00398828427465E-5;
1,06567922201406E-5;
9,2772682876438E-6;
8,73367528971733E-6;
1,12008989087993E-5;
1,57174370536267E-5;
1,82385455598144E-5;
1,44848609560819E-5;
3,47553740347709E-6;
-1,10880476345326E-5;
-2,28463225597291E-5;
-2,68296673210722E-5;
-2,25542803641623E-5;
-1,39236166645327E-5;
-6,15965715601833E-6;
-2,21245276457164E-6;
-1,3322943237929E-6;
-6,21152363170885E-7;
2,01757144607798E-6;
6,09084216049854E-6;
9,27937452908883E-6;
9,87799349418115E-6;
8,60753626590015E-6;
8,08550653474307E-6;
1,03308213420066E-5;
1,4473741379636E-5;
1,68001628198836E-5;
1,33722246100518E-5;
3,27999461559156E-6;
-1,00843879177274E-5;
-2,08860769087481E-5;
-2,45657825065581E-5;
-2,06805717302959E-5;
-1,28096671494357E-5;
-5,73561795746965E-6;
-2,15176162866715E-6;
-1,35858640423879E-6;
-6,93491683082914E-7;
1,76126766098315E-6;
5,54151155046157E-6;
8,50667738457323E-6;
9,08196182084925E-6;
7,92181431192699E-6;
7,42600297900377E-6;
9,45377261129472E-6;
1,32248649519516E-5;
1,53556239174025E-5;
1,22507766124692E-5;
3,07258389230201E-6;
-9,09496041036251E-6;
-1,89406163141148E-5;
-2,23142392453268E-5;
-1,88131272224046E-5;
-1,16930415404555E-5;
-5,29944159589561E-6;
-2,07191318736015E-6;
-1,3632174660846E-6;
-7,46386904410153E-7;
1,51891700323794E-6;
4,99944085324405E-6;
7,73517835912911E-6;
8,28314347049337E-6;
7,23265372930314E-6;
6,76648487599751E-6;
8,58339762909777E-6;
1,19894016794438E-5;
1,39263560342621E-5;
1,11375695558867E-5;
2,85758425486317E-6;
-8,13234727775627E-6;
-1,70360869548727E-5;
-2,01057720936743E-5;
-1,69778895247158E-5;
-1,05901100242217E-5;
-4,85909719683106E-6;
-1,97682057041993E-6;
-1,34926367542236E-6;
-7,81848489393477E-7;
1,29212441537654E-6;
4,47161247935167E-6;
6,97608948366763E-6;
7,49370735038928E-6;
6,5506554773709E-6;
6,11647640867821E-6;
7,73108282269073E-6;
1,07827952972125E-5;
1,25301594986324E-5;
1,00468567112169E-5;
2,63878605232725E-6;
-7,20659961995752E-6;
-1,51937053877454E-5;
-1,79654368354232E-5;
-1,51960842962893E-5;
-9,51436930423871E-6;
-4,42131813846798E-6;
-1,86998356497435E-6;
-1,31957768202304E-6;
-8,01822861881796E-7;
1,08200280455833E-6;
3,96366113507779E-6;
6,23861794365416E-6;
6,72371062048901E-6;
5,88460105048355E-6;
5,48383630989063E-6;
6,90612739318718E-6;
9,61759294775701E-6;
1,1181507941771E-5;
8,99030693689829E-6;
2,41948437376708E-6;
-6,32554518545848E-6;
-1,34303012446832E-5;
-1,5913208175584E-5;
-1,34847133576391E-5;
-8,4767489331785E-6;
-3,99173933304857E-6;
-1,75454183152456E-6;
-1,27681572705865E-6;
-8,08207993712099E-7;
8,89196601079846E-7;
3,47998209397487E-6;
5,53013122368102E-6;
5,9812686664597E-6;
5,24159899938268E-6;
4,87488202876123E-6;
6,11591984795359E-6;
8,50371505422381E-6;
9,89185553004382E-6;
7,97722585048473E-6;
2,20247891862445E-6;
-5,4950555710036E-6;
-1,17587999115681E-5;
-1,39645343862777E-5;
-1,18570106707407E-5;
-7,48588213827489E-6;
-3,57500137132893E-6;
-1,63329610846066E-6;
-1,22344032318055E-6;
-8,02829654231868E-7;
7,13956820458377E-7;
3,02385963327455E-6;
4,85634324122373E-6;
5,27275301063746E-6;
4,62724791474944E-6;
4,29455388455538E-6;
5,36614427505918E-6;
7,44873281400834E-6;
8,66996258562955E-6;
7,01481681489949E-6;
1,99013002267541E-6;
-4,71927466402871E-6;
-1,01886680544597E-5;
-1,21308468555336E-5;
-1,03228628831529E-5;
-6,54834791183288E-6;
-3,1748394583667E-6;
-1,50871428915936E-6;
-1,16170310684193E-6;
-7,87427611481321E-7;
5,56200690568083E-7;
2,59761709023487E-6;
4,22151069222186E-6;
4,60299105020053E-6;
4,04581427508467E-6;
3,74657085416468E-6;
4,66098411996352E-6;
6,45815621245184E-6;
7,52221969757232E-6;
6,10842025739323E-6;
1,78438718596845E-6;
-4,00083874350966E-6;
-8,72633274363709E-6;
-1,04200391079412E-5;
-8,88919731614645E-6;
-5,66890361829587E-6;
-2,79416972386333E-6;
-1,38293724015974E-6;
-1,09364083635342E-6;
-7,63636955547785E-7;
4,15577165996322E-7;
2,20274587819646E-6;
3,62862104428436E-6;
3,97545306140946E-6;
3,50039153919901E-6;
3,23358694714316E-6;
4,0033086506983E-6;
5,53568918925349E-6;
6,45293579579819E-6;
5,26174136567815E-6;
1,58684442602571E-6;
-3,34107849340709E-6;
-7,37558721350926E-6;
-8,83692715743616E-6;
-7,56036001765512E-6;
-4,85070239832385E-6;
-2,43516728605813E-6;
-1,25779964135587E-6;
-1,02107672146852E-6;
-7,32966998352554E-7;
2,91524813184816E-7;
1,84001481721744E-6;
3,07954775755634E-6;
3,39242791579377E-6;
2,99304598527462E-6;
2,75731854977451E-6;
3,39484789168655E-6;
4,68346899607133E-6;
5,46461566567689E-6;
4,47706078864683E-6;
1,39875632063461E-6;
-2,74022166254353E-6;
-6,13796159085112E-6;
-7,38368547761668E-6;
-6,33847954090649E-6;
-4,09551634085687E-6;
-2,09936853381848E-6;
-1,13485591924373E-6;
-9,45628436584362E-7;
-6,96814377301893E-7;
1,83301650027918E-7;
1,50958467497375E-6;
2,5752132520884E-6;
2,85517332703859E-6;
2,52495275546743E-6;
2,3186769349911E-6;
2,83634406290899E-6;
3,90228748859985E-6;
4,5582155317897E-6;
3,7554251481097E-6;
1,22108115437312E-6;
-2,19756720711931E-6;
-5,01307864787466E-6;
-6,06024478485853E-6;
-5,22379722652686E-6;
-3,40393548290108E-6;
-1,78774335775168E-6;
-1,0154024284252E-6;
-8,6871957033383E-7;
-6,56447745781391E-7;
9,00374079575308E-8;
1,21109742376495E-6;
2,11572289253897E-6;
2,36407151655254E-6;
2,0965205843465E-6;
1,91787750424538E-6;
2,3277027251242E-6;
3,19179065760039E-6;
3,7333720170076E-6;
3,09683429248764E-6;
1,05450113500889E-6;
-1,71165968955696E-6;
-3,99896824589981E-6;
-4,86466519309938E-6;
-4,21496789029589E-6;
-2,77554486196582E-6;
-1,5007765333583E-6;
-9,00492722618806E-7;
-7,91586892923484E-7;
-6,13021614266373E-7;
1,07625650857083E-8;
9,43772534749891E-7;
1,70049822362741E-6;
1,91876213282261E-6;
1,70751534915315E-6;
1,55455671715377E-6;
1,8681322449215E-6;
2,55068015427251E-6;
2,98862742155421E-6;
2,50040080429184E-6;
8,99460594597588E-7;
-1,28042673215509E-6;
-3,0923600245772E-6;
-3,79346025193619E-6;
-3,30933819631731E-6;
-2,2091003675677E-6;
-1,23853319913004E-6;
-7,90966783670723E-7;
-7,15289096780048E-7;
-5,67561863003784E-7;
-5,55605417682816E-8;
7,06489073715743E-7;
1,32840905554307E-6;
1,51827614218994E-6;
1,35716688185564E-6;
1,22786657043072E-6;
1,45626398577786E-6;
1,9768753754192E-6;
2,32162293030957E-6;
1,96451778111515E-6;
7,56199216595828E-7;
-9,01316446413075E-7;
-2,28894200507204E-6;
-2,84190960884797E-6;
-2,50319905863244E-6;
-1,7026713832102E-6;
-1,00072756014241E-6;
-6,87468102961605E-7;
-6,4072228242546E-7;
-5,20980460769305E-7;
-1,10001084677515E-7;
4,97856469291253E-7;
9,97864977618139E-7;
1,1611438335697E-6;
1,0442660223287E-6;
9,36571159482854E-7;
1,09027305176775E-6;
1,46767278756429E-6;
1,7292762964736E-6;
1,48698362033982E-6;
6,24770040482152E-7;
-5,71413466705451E-7;
-1,58359459455342E-6;
-2,00432111625533E-6;
-1,79200629649778E-6;
-1,253786355869E-6;
-7,86780487141926E-7;
-5,90461119425198E-7;
-5,68624912864154E-7;
-4,74070872895302E-7;
-1,53645243228081E-7;
3,16281992646858E-7;
7,06926083109794E-7;
8,45502003095606E-7;
7,67258244406878E-7;
6,79120540367018E-7;
7,67967419714495E-7;
1,01988879234216E-6;
1,20794833843271E-6;
1,06513572784936E-6;
5,05073832136843E-7;
-2,87542830857861E-7;
-9,70597237819203E-7;
-1,2742760354991E-6;
-1,17058747846836E-6;
-8,59549458703639E-7;
-5,95873142659217E-7;
-5,0025744526792E-7;
-4,99596083285127E-7;
-4,27520073557512E-7;
-1,87574289738868E-7;
1,60029275174682E-7;
4,53386646156106E-7;
5,69181198859065E-7;
5,24316999644222E-7;
4,53733666147936E-7;
4,86889029915427E-7;
6,29973565991563E-7;
7,53574175737889E-7;
6,95958043876873E-7;
3,96876311944167E-7;
-4,63654303774026E-8;
-4,43812904503925E-7;
-6,44836931338951E-7;
-6,3331411689335E-7;
-5,16757359415387E-7;
-4,26998531939057E-7;
-4,17032323449265E-7;
-4,34108597118825E-7;
-3,81910399497534E-7;
-2,12845156949056E-7;
2,72655949876498E-8;
2,34847080794935E-7;
3,29794943361236E-7;
3,13422535933336E-7;
2,58449737708925E-7;
2,44382445045809E-7;
2,94132119441659E-7;
3,61803155013744E-7;
3,76182282158037E-7;
2,99835301526068E-7;
1,55552655659917E-7;
3,15488588577153E-9;
-1,08740217438194E-7;
-1,74258757762206E-7;
-2,21987132526899E-7;
-2,79005738005599E-7;
-3,40839436245933E-7;
-3,72514412988708E-7;
-3,37729421545685E-7;
-2,30480865205006E-7;
-8,38940064756715E-8;
4,87867414027201E-8;
1,24801926256519E-7;
1,3241148538322E-7;
9,11978755619463E-8;
3,76741479274098E-8;
8,40710920346711E-9;
2,80925939986674E-8;
1,02369820349855E-7;
2,13518516832371E-7;
3,21665879985402E-7;
3,76822727623187E-7;
3,41451188384726E-7;
2,12670209489372E-7;
2,83133271184245E-8;
-1,50633863338253E-7;
-2,71634902618549E-7;
-3,15064920115692E-7;
-2,9536970100204E-7;
-2,41456098615515E-7;
-1,75345803481969E-7;
-1,07380205187456E-7;
-4,84236257936475E-8;
-2,09560283189863E-8;
-5,01647991391716E-8;
-1,3607208106497E-7;
-2,31229280453758E-7;
-2,5219050034345E-7;
-1,29006507016521E-7;
1,37423948640631E-7;
4,55397994554962E-7;
6,83720689552729E-7;
7,13209092228682E-7;
5,33614369960905E-7;
2,37757953809961E-7;
-4,05528804096174E-8;
-2,09285571327197E-7;
-2,61917745099102E-7;
-2,5514833835677E-7;
-2,46693801528887E-7;
-2,48973054628722E-7;
-2,36259741314246E-7;
-1,92545176484822E-7;
-1,48960701637132E-7;
-1,6780631914047E-7;
-2,79708610270108E-7;
-4,28812790592777E-7;
-4,83685031932813E-7;
-3,21505781493277E-7;
7,09923846721856E-8;
5,60093580388382E-7;
9,30286147032037E-7;
1,01392901466232E-6;
7,9467044348102E-7;
4,09960793907616E-7;
5,26127585475836E-8;
-1,53587574339366E-7;
-2,13148897477765E-7;
-2,173050865854E-7;
-2,47055732319231E-7;
-3,06614724738914E-7;
-3,40431988416588E-7;
-3,10216937776683E-7;
-2,53878259198212E-7;
-2,6388261114886E-7;
-3,96053969773118E-7;
-5,88324370892946E-7;
-6,70977615341392E-7;
-4,78661764676167E-7;
1,36278230140271E-8;
6,38980502240925E-7;
1,12278262671704E-6;
1,25082712737926E-6;
1,0018061407553E-6;
5,48481011696888E-7;
1,30252541278037E-7;
-1,04282840610376E-7;
-1,68766664552847E-7;
-1,82010801504825E-7;
-2,43340740983512E-7;
-3,50048148932488E-7;
-4,22419123890924E-7;
-4,04045733270628E-7;
-3,37949256910121E-7;
-3,40514553564586E-7;
-4,87864920045387E-7;
-7,13646664557244E-7;
-8,1854074932268E-7;
-6,03933128496314E-7;
-3,52921572511401E-8;
6,95142933885684E-7;
1,26724853848284E-6;
1,43087560270723E-6;
1,16079967629653E-6;
6,56783796381626E-7;
1,93751648047702E-7;
-6,10601078668793E-8;
-1,28715974885384E-7;
-1,49378091267743E-7;
-2,36280646317537E-7;
-3,80968621512327E-7;
-4,84652129416998E-7;
-4,76560995066894E-7;
-4,03353315512864E-7;
-3,99754381785424E-7;
-5,57798878758289E-7;
-8,08520322548634E-7;
-9,30688853335413E-7;
-7,00671208195983E-7;
-7,64053198637402E-8;
7,31493268021543E-7;
1,36943188844068E-6;
1,56073239287504E-6;
1,27718336706632E-6;
7,38205966678106E-7;
2,44470097377215E-7;
-2,3580295754724E-8;
-9,28937830958511E-8;
-1,19466312403794E-7;
-2,26540200845385E-7;
-4,00982765563967E-7;
-5,29461393804689E-7;
-5,30191619129447E-7;
-4,52187196213898E-7;
-4,43575272371676E-7;
-6,08399409172095E-7;
-8,76515768899397E-7;
-1,01154243076133E-6;
-7,72096336699265E-7;
-1,10354264741015E-7;
7,50765766811495E-7;
1,4347598446714E-6;
1,64669685284295E-6;
1,35620288535936E-6;
7,95930737157911E-7;
2,83735416867234E-7;
8,52487124835018E-9;
-6,11544928580584E-8;
-9,22874519595804E-8;
-2,14717111469015E-7;
-4,11594063000256E-7;
-5,59049610905092E-7;
-5,67243486999325E-7;
-4,86442819123877E-7;
-4,73852105736194E-7;
-6,42073121859475E-7;
-9,21009329222965E-7;
-1,06500251699787E-6;
-8,21260067938204E-7;
-1,37775737474253E-7;
7,55497872481333E-7;
1,46831614263673E-6;
1,694684486936E-6;
1,40279362012361E-6;
8,32959314670363E-7;
3,12816213656192E-7;
3,56393285016634E-8;
-3,3320434306077E-8;
-6,7816250023038E-8;
-2,01346021276917E-7;
-4,14200371669622E-7;
-5,75480375825215E-7;
-5,89891081927825E-7;
-5,08002335222803E-7;
-4,92347355513867E-7;
-6,61080306351296E-7;
-9,4516615027987E-7;
-1,0947275973828E-6;
-8,51039700064411E-7;
-1,59295612495471E-7;
7,48024055392941E-7;
1,47481168275261E-6;
1,71019238313217E-6;
1,42155568321718E-6;
8,52110716700335E-7;
3,32926693431962E-7;
5,81552901246345E-8;
-9,1852069465398E-9;
-4,59923775546246E-8;
-1,86896639983399E-7;
-4,10089212699465E-7;
-5,80676250366771E-7;
-6,0015998879726E-7;
-5,18624761023185E-7;
-5,00711486143583E-7;
-6,67524778035309E-7;
-9,5193025376386E-7;
-1,10412415654422E-6;
-8,64122929162185E-7;
-1,75520261800754E-7;
7,3047954901158E-7;
1,45858555441809E-6;
1,6982956503788E-6;
1,41674238485711E-6;
8,55997367492725E-7;
3,45209290047427E-7;
7,64669335037496E-8;
1,14750134169207E-8;
-2,67272174680541E-8;
-1,71779245391135E-7;
-4,0043442387041E-7;
-5,7640665158192E-7;
-5,9993020179428E-7;
-5,19942514441975E-7;
-5,00471077803333E-7;
-6,63349609017515E-7;
-9,44016570992542E-7;
-1,09633657477752E-6;
-8,63000782164859E-7;
-1,87037143182819E-7;
7,04794482553282E-7;
1,42359914450267E-6;
1,66363846983701E-6;
1,39225619151385E-6;
8,47031959581546E-7;
3,50735630656707E-7;
9,09669917466721E-8;
2,88996831564828E-8;
-9,91306650400765E-9;
-1,56348710885899E-7;
-3,86302435851244E-7;
-5,64291282842893E-7;
-5,90923427179164E-7;
-5,13456896015428E-7;
-4,93028431305539E-7;
-6,50335836868948E-7;
-9,23912866185327E-7;
-1,0742479967158E-6;
-8,49964983776206E-7;
-1,94401646868796E-7;
6,72706138519962E-7;
1,37344077418757E-6;
1,6104384233802E-6;
1,35164739308285E-6;
8,27419449475679E-7;
3,50502322218861E-7;
1,02036858204234E-7;
4,33342115549668E-8;
4,58105536237204E-9;
-1,40902310164441E-7;
-3,68648269096367E-7;
-5,45802914781033E-7;
-5,74711005525378E-7;
-5,00535268215989E-7;
-4,79662996630585E-7;
-6,30100616032259E-7;
-8,93876129373537E-7;
-1,0404781441194E-6;
-8,27105180744291E-7;
-1,98141686010519E-7;
6,35760100260163E-7;
1,31133196016997E-6;
1,54249531615608E-6;
1,29812605609366E-6;
7,99159408272244E-7;
3,45426125954288E-7;
1,10050597995454E-7;
5,50313093511639E-8;
1,68946662210585E-8;
-1,2569507639509E-7;
-3,48323872199017E-7;
-5,22261388846141E-7;
-5,52712294969973E-7;
-4,82418392765217E-7;
-4,61530315660816E-7;
-6,04106763805543E-7;
-8,5594085415157E-7;
-9,97388846670911E-7;
-7,96317016161959E-7;
-1,9875462032344E-7;
5,95315944656563E-7;
1,24014386095113E-6;
1,46320430870758E-6;
1,23456144970467E-6;
7,64050839371797E-7;
3,36345798244816E-7;
1,15363410091834E-7;
6,4238591445159E-8;
2,71766732118146E-8;
-1,10931379696941E-7;
-3,26079043951418E-7;
-4,94847373438288E-7;
-5,26196248430998E-7;
-4,60218993618695E-7;
-4,39669035587055E-7;
-5,73658000720338E-7;
-8,11927169311233E-7;
-9,47096167860773E-7;
-7,59299051224539E-7;
-1,96699733087205E-7;
5,52565390386999E-7;
1,16240795904613E-6;
1,37556744826031E-6;
1,163506041699E-6;
7,23704876293655E-7;
3,24023367895557E-7;
1,18313043284834E-7;
7,12042746538947E-8;
3,55869828270273E-8;
-9,67755916643249E-8;
-3,02569147610206E-7;
-4,64605065090105E-7;
-4,96296201535532E-7;
-4,34927504158489E-7;
-4,15000938967461E-7;
-5,3991305219336E-7;
-7,63441516888468E-7;
-8,91473810184576E-7;
-7,17569643336913E-7;
-1,92405621974305E-7;
5,08535223853353E-7;
1,08034016380218E-6;
1,28222365739385E-6;
1,08720243196423E-6;
6,79541271927677E-7;
3,09146471766997E-7;
1,19220143701886E-7;
7,61683185076169E-8;
4,22842316904112E-8;
-8,33570267531539E-8;
-2,78360901348649E-7;
-4,3244660582188E-7;
-4,64002163664533E-7;
-4,07418851319329E-7;
-3,88339917889384E-7;
-5,03891013442062E-7;
-7,11903035266555E-7;
-8,32169438930443E-7;
-6,72466894275244E-7;
-1,86263282746606E-7;
4,64103604156949E-7;
9,95851926844592E-7;
1,18545835267775E-6;
1,00760429452994E-6;
6,32806967472416E-7;
2,92325000772104E-7;
1,18381670700415E-7;
7,93634299668049E-8;
4,74256485785705E-8;
-7,0773859558897E-8;
-2,5393685006963E-7;
-3,99164266014225E-7;
-4,30182167376999E-7;
-3,78455187441469E-7;
-3,60394757135381E-7;
-4,66476305856453E-7;
-6,58538340616388E-7;
-7,70620752205188E-7;
-6,2516492282028E-7;
-1,786296875493E-7;
4,20008650373756E-7;
9,10583218228462E-7;
1,08723951850499E-6;
9,26399912012193E-7;
5,84588011691556E-7;
2,74103856261075E-7;
1,16075675179748E-7;
8,10093957027804E-8;
5,11717739698486E-8;
-5,90873564660137E-8;
-2,29702051012924E-7;
-3,6543601218833E-7;
-3,95583410066344E-7;
-3,486984137337E-7;
-3,31779910055095E-7;
-4,28432697306102E-7;
-6,04405551253272E-7;
-7,08061991072333E-7;
-5,76676757766216E-7;
-1,698289272653E-7;
3,76858043990112E-7;
8,25912551397309E-7;
9,89233139502374E-7;
8,45020728994492E-7;
5,35809849302715E-7;
2,54957994859425E-7;
1,12556000252632E-7;
8,13175213505149E-8;
5,3675655739595E-8;
-4,83432489401071E-8;
-2,05993990064284E-7;
-3,31836507115473E-7;
-3,60842053722242E-7;
-3,18710427252052E-7;
-3,03016374823634E-7;
-3,90405461343344E-7;
-5,50399276997712E-7;
-6,4554272667398E-7;
-5,27872474278439E-7;
-1,60149572710213E-7;
3,35151802405559E-7;
7,42987708105897E-7;
8,92828486092805E-7;
7,6466833303102E-7;
4,8726023437775E-7;
2,35301299901548E-7;
1,08053740127246E-7;
8,04809390489589E-8;
5,50838783463067E-8;
-3,85583457736552E-8;
-1,83083910881071E-7;
-2,98841661901668E-7;
-3,26490345710472E-7;
-2,88968768610527E-7;
-2,74547193912382E-7;
-3,52939210386369E-7;
-4,97272300925132E-7;
-5,83946399236602E-7;
-4,79485589020066E-7;
-1,49848807467796E-7;
2,95276914805742E-7;
6,62737884379109E-7;
7,99167774778486E-7;
6,86337769461099E-7;
4,39594811912223E-7;
2,15487981037719E-7;
1,02780681040063E-7;
7,86836100171002E-8;
5,55403817693224E-8;
-2,97353043457029E-8;
-1,61189609055942E-7;
-2,6684000826833E-7;
-2,929701183121E-7;
-2,59866235511146E-7;
-2,46732886629067E-7;
-3,1648054483118E-7;
-4,45638308263976E-7;
-5,23994891017326E-7;
-4,32129907978902E-7;
-1,39155946755762E-7;
2,57535002244797E-7;
5,85903590177725E-7;
7,0916403372835E-7;
6,10831884246524E-7;
3,93354501281373E-7;
1,95819488380298E-7;
9,69245019102701E-8;
7,60950293610574E-8;
5,51784650954155E-8;
-2,18575625499019E-8;
-1,40472082789035E-7;
-2,36144951601515E-7;
-2,60636894010403E-7;
-2,31722648994004E-7;
-2,19872901957424E-7;
-2,81388485195344E-7;
-3,95992602012864E-7;
-4,66275078838617E-7;
-3,86300923051338E-7;
-1,28265428801147E-7;
2,22144679743503E-7;
5,13053430838037E-7;
6,23531079979534E-7;
5,38781310651406E-7;
3,48964959838262E-7;
1,76545533794175E-7;
9,065406271372E-8;
7,28674757758913E-8;
5,41224419926189E-8;
-1,48995133871653E-8;
-1,2105215490393E-7;
-2,06995362685936E-7;
-2,29771079039456E-7;
-2,04792519581882E-7;
-1,94198116333542E-7;
-2,47944700451023E-7;
-3,4872455619889E-7;
-4,11247348986238E-7;
-3,42397638133899E-7;
-1,17351869723855E-7;
1,89249116142189E-7;
4,44604713340691E-7;
5,42799946064549E-7;
4,70663781996173E-7;
3,06763769463595E-7;
1,57872506613732E-7;
8,41161231654874E-8;
6,91402613043554E-8;
5,24895362208339E-8;
-8,82259057907764E-9;
-1,03009663559924E-7;
-1,79569908910756E-7;
-2,0058707632963E-7;
-1,79271664365683E-7;
-1,69888348783363E-7;
-2,16362873424054E-7;
-3,04120656393192E-7;
-3,59255938703234E-7;
-3,00728876220617E-7;
-1,06559525694224E-7;
1,58933968810414E-7;
3,80841060752122E-7;
4,67347044926906E-7;
4,06824365057517E-7;
2,67000313508825E-7;
1,39965813212387E-7;
7,74404622112513E-8;
6,5040589196233E-8;
5,03869167754136E-8;
-3,58291646485459E-9;
-8,63902369120105E-8;
-1,53991339514791E-7;
-1,73237773645908E-7;
-1,5530187517877E-7;
-1,47072542714866E-7;
-1,86793655524142E-7;
-2,62389576239215E-7;
-3,10551392956027E-7;
-2,61518046563619E-7;
-9,60082758486533E-8;
1,3123212681447E-7;
3,21931429633775E-7;
3,97406510948092E-7;
3,47488583806898E-7;
2,29847608847217E-7;
1,22953278938916E-7;
7,07385869708764E-8;
6,06780198339999E-8;
4,79139600521503E-8;
8,7458261579497E-10;
-7,12091264663062E-8;
-1,30334219995206E-7;
-1,47822037453257E-7;
-1,32978939008795E-7;
-1,25840144904711E-7;
-1,59335164786062E-7;
-2,23661119069566E-7;
-2,65294316329862E-7;
-2,24922101770943E-7;
-8,58038273132717E-8;
1,06127348582573E-7;
2,67946766177295E-7;
3,33097516198322E-7;
2,92781693418187E-7;
1,95414922776591E-7;
1,06928517673452E-7;
6,41040219907E-8;
5,61523167494551E-8;
4,51576503614306E-8;
4,6027798093705E-9;
-5,74605981596508E-8;
-1,086357260361E-7;
-1,24399594471743E-7;
-1,12361126412253E-7;
-1,06237326335624E-7;
-1,34038486318504E-7;
-1,88002226623017E-7;
-2,23570290476305E-7;
-1,91035922454004E-7;
-7,60223324060404E-8;
8,35717871328662E-8;
2,18870648209568E-7;
2,74436224885498E-7;
2,42741022221175E-7;
1,63754886824989E-7;
9,19603814498835E-8;
5,76180051884474E-8;
5,15491298542962E-8;
4,21977576514119E-8;
7,65982871756797E-9;
-4,51154385839103E-8;
-8,88941201927828E-8;
-1,02986662344542E-7;
-9,34702778761264E-8;
-8,82867530473708E-8;
-1,10918537207899E-7;
-1,55425415781659E-7;
-1,85401913963702E-7;
-1,59899091422346E-7;
-6,67305558179541E-8;
6,34825094574907E-8;
1,74621694599261E-7;
2,21354926559613E-7;
1,97331605318627E-7;
1,34871066523265E-7;
7,80870120462248E-8;
5,13453172699885E-8;
4,69420139605109E-8;
3,91042757888938E-8;
1,01061112244846E-8;
-3,41288110772345E-8;
-7,1080831465319E-8;
-8,3568779729884E-8;
-7,62999251236258E-8;
-7,19767542907515E-8;
-8,99529808268497E-8;
-1,25899252460108E-7;
-1,50758225839548E-7;
-1,31508431830998E-7;
-5,79743662691089E-8;
4,57567697196709E-8;
1,35057342060551E-7;
1,73714164058929E-7;
1,56453348347247E-7;
1,08728701732551E-7;
6,53309667051023E-8;
4,53361297784315E-8;
4,23943761852308E-8;
3,59400110219638E-8;
1,20005477045879E-8;
-2,44414916717333E-8;
-5,51424786553963E-8;
-6,61048505417959E-8;
-6,08203916406524E-8;
-5,72782012536226E-8;
-7,1094329770802E-8;
-9,93501264713021E-8;
-1,19561192039053E-7;
-1,05821732239513E-7;
-4,97879400779961E-8;
3,02723120080573E-8;
9,9993238332044E-8;
1,31320165727048E-7;
1,19962589575998E-7;
8,52565325178607E-8;
5,36896592829614E-8;
3,96344731202064E-8;
3,79591648043883E-8;
3,27582095346403E-8;
1,34024937881975E-8;
-1,59874592327403E-8;
-4,10073710383309E-8;
-5,05300780852259E-8;
-4,69802839517474E-8;
-4,41399311158379E-8;
-5,42711781080069E-8;
-7,56762668624672E-8;
-9,16994916805097E-8;
-8,27666826102857E-8;
-4,21906666648576E-8;
1,68911977976953E-8;
6,92052377978711E-8;
9,39338594073915E-8;
8,76725424883259E-8;
6,43603310032357E-8;
4,3150813062983E-8;
3,42707755449194E-8;
3,36805970267795E-8;
2,96056507372732E-8;
1,43677543860298E-8;
-8,69114236658444E-9;
-2,85878832551412E-8;
-3,67657010852805E-8;
-3,47165760044626E-8;
-3,24993720338308E-8;
-3,93950428403557E-8;
-5,47502747360262E-8;
-6,70295206698468E-8;
-6,2245120220016E-8;
-3,51947762987421E-8;
5,46813559293558E-9;
4,24450279509774E-8;
6,1281173596162E-8;
5,93656600724382E-8;
4,59208977117427E-8;
3,36847687466612E-8;
2,92638917896612E-8;
2,95918765974677E-8;
2,65189950976443E-8;
1,49523226813258E-8;
-2,46988687668911E-9;
-1,77892321573878E-8;
-2,47151876507554E-8;
-2,39481896473232E-8;
-2,22835581365583E-8;
-2,63645284972554E-8;
-3,64273058571699E-8;
-4,53870057691237E-8;
-4,41378076617532E-8;
-2,87999666200511E-8;
-4,14812270182896E-9;
1,9446625021919E-8;
3,30661922613574E-8;
3,48041751748285E-8;
2,98059621204539E-8;
2,52533767263341E-8;
2,46277761314244E-8;
2,57203935812729E-8;
2,35315122736224E-8;
1,52083146120379E-8;
2,76149442071674E-9;
-8,50126047690469E-9;
-1,42771012651895E-8;
-1,45885840759266E-8;
-1,34060921587002E-8;
-1,50675067079051E-8;
-2,05455824146885E-8;
-2,65902808011226E-8;
-2,83131090198281E-8;
-2,29991871007341E-8;
-1,21099871872259E-8;
-6,87950263358653E-11;
8,97316924960249E-9;
1,37342568636474E-8;
1,58695366263313E-8;
1,78096729057701E-8;
2,03689031195244E-8;
2,20857201004407E-8;
2,06718708156357E-8;
1,51834081380748E-8;
7,08241833034872E-9;
-6,14959252146005E-10;
-5,34060843493252E-9;
-6,54674827099739E-9;
-5,77776558673783E-9;
-5,38370159805543E-9;
-6,93976800581569E-9;
-1,04487869096405E-8;
-1,46269022062579E-8;
-1,77775395340998E-8;
-1,85717531935467E-8;
-1,63863530403416E-8;
-1,13181217739422E-8;
-4,11004161758331E-9;
3,95780037898351E-9;
1,13027916457473E-8;
1,6487681895138E-8;
1,87013361812239E-8;
1,79567670344852E-8;
1,49233296566716E-8;
1,05817711220884E-8;
5,98344057723857E-9;
2,21039884206064E-9;
2,78976198391545E-10;
6,93423109056621E-10;
2,80637349022051E-9;
4,56493010808778E-9;
3,23678502694076E-9;
-2,92983428238682E-9;
-1,31174966437266E-8;
-2,36827601005167E-8;
-2,97876156971137E-8;
-2,81344724901269E-8;
-1,89925752716967E-8;
-6,08283679693474E-9;
5,67235104343668E-9;
1,29791984631657E-8;
1,5576386178504E-8;
1,5402289497191E-8;
1,44697869882525E-8;
1,33393118737944E-8;
1,14066567794879E-8;
8,49350692494665E-9;
5,98530132051678E-9;
6,10082082339257E-9;
9,63012448407826E-9;
1,41432205518422E-8;
1,4669382164495E-8;
6,93625527363385E-9;
-8,99347054591924E-9;
-2,7589291818235E-8;
-4,05567343397533E-8;
-4,1796850441643E-8;
-3,11796768956391E-8;
-1,44157181209596E-8;
8,56845365276618E-10;
9,83391117800122E-9;
1,27147469152032E-8;
1,3020132032453E-8;
1,38602825147272E-8;
1,54392644362148E-8;
1,57691225634432E-8;
1,36185078979326E-8;
1,06705569497408E-8;
1,05409960057199E-8;
1,52082466158443E-8;
2,19707181249206E-8;
2,40500026927531E-8;
1,51225036742881E-8;
-5,37981025942943E-9;
-3,04318521378278E-8;
-4,8964753466861E-8;
-5,2621798968368E-8;
-4,09355695464372E-8;
-2,11948952438855E-8;
-3,20377937029616E-9;
7,03831922978795E-9;
1,01132986818592E-8;
1,08164522033269E-8;
1,31306585104585E-8;
1,69558700699573E-8;
1,91787413942507E-8;
1,77050036229534E-8;
1,44352656353281E-8;
1,41061895359882E-8;
1,96645633008291E-8;
2,82178931401334E-8;
3,1576042915638E-8;
2,17849281265153E-8;
-2,24624726534583E-9;
-3,23429460027747E-8;
-5,52747855560498E-8;
-6,09138216159269E-8;
-4,85143967147116E-8;
-2,65750061449643E-8;
-6,57255975303123E-9;
4,57767252972513E-9;
7,77035796791455E-9;
8,79580022657531E-9;
1,23111681763528E-8;
1,79643781980817E-8;
2,17437786590388E-8;
2,08615082954865E-8;
1,73738526315414E-8;
1,68862763106231E-8;
2,31161259177875E-8;
3,30534716400333E-8;
3,74396369659783E-8;
2,70735922486749E-8;
4,38493290524382E-10;
-3,34496530387528E-8;
-5,97393094607425E-8;
-6,69659582429384E-8;
-5,41594047109804E-8;
-3,07062841311408E-8;
-9,31394680897372E-9;
2,43200813049535E-9;
5,67549818897996E-9;
6,95773906550032E-9;
1,14282052318758E-8;
1,85322257216713E-8;
2,35630960732428E-8;
2,31923639938337E-8;
1,95778520890768E-8;
1,89696646662388E-8;
2,56765856084042E-8;
3,66338223082276E-8;
4,1824820687105E-8;
3,11347894430465E-8;
2,70908893052565E-9;
-3,38639330753942E-8;
-6,25930707958892E-8;
-7,10561616996126E-8;
-5,810289570488E-8;
-3,37292643670885E-8;
-1,14890548857209E-8;
5,84886200965024E-10;
3,82330174360448E-9;
5,30088043635371E-9;
1,0506470445816E-8;
1,87233139828143E-8;
2,47348665519964E-8;
2,48019349805472E-8;
2,1135556901872E-8;
2,04393283766474E-8;
2,74525133132552E-8;
3,91117940166015E-8;
4,49089817137886E-8;
3,41073984363831E-8;
4,59746618177573E-9;
-3,36970154843708E-8;
-6,40608052536946E-8;
-7,34452002316897E-8;
-6,0567429884256E-8;
-3,57826779585638E-8;
-1,31568383131854E-8;
-9,85767830293758E-10;
2,20126123871537E-9;
3,81934684747535E-9;
9,56576667538889E-9;
1,85988680914171E-8;
2,53439978532767E-8;
2,57805150829804E-8;
2,21300597957432E-8;
2,13736935852357E-8;
2,85468512885764E-8;
4,06301732425712E-8;
4,68577532347036E-8;
3,61259444038885E-8;
6,1362124264619E-9;
-3,30475372580086E-8;
-6,43452024653374E-8;
-7,4374018529913E-8;
-6,17547810129576E-8;
-3,69915098112375E-8;
-1,43749209459487E-8;
-2,30127411630412E-9;
7,94384733751532E-10;
2,50763418484968E-9;
8,62493273527553E-9;
1,82112643037102E-8;
2,54783607126113E-8;
2,6221640719798E-8;
2,2638242603318E-8;
2,18458897271108E-8;
2,90540148610093E-8;
4,13235985921556E-8;
4,78263053899261E-8;
3,73127343788849E-8;
7,35890685194401E-9;
-3,2004474838515E-8;
-6,36385120503263E-8;
-7,40703952445424E-8;
-6,18562832706677E-8;
-3,74752657703378E-8;
-1,51989048501233E-8;
-3,38251025293856E-9;
-4,07318807189709E-10;
1,36074507923505E-9;
7,69923135177828E-9;
1,76107355087678E-8;
2,52106542788608E-8;
2,62029385380513E-8;
2,27322860502142E-8;
2,19242196853423E-8;
2,90606351068137E-8;
4,13126300954392E-8;
4,79587361819295E-8;
3,77863716615332E-8;
8,29648894432329E-9;
-3,06487035592283E-8;
-6,21112091232482E-8;
-7,27379008019537E-8;
-6,10478317325608E-8;
-3,73450411197538E-8;
-1,56782346144144E-8;
-4,25008123586369E-9;
-1,42106689533851E-9;
3,64752234386554E-10;
6,79731280771027E-9;
1,68405096528689E-8;
2,46127707087891E-8;
2,5802372322269E-8;
2,24789811277882E-8;
2,16735347120155E-8;
2,86496674828073E-8;
4,07148019342555E-8;
4,73893516458338E-8;
3,76531266389074E-8;
8,98182437849036E-9;
-2,90532126182606E-8;
-5,9921870741461E-8;
-7,05635511893338E-8;
-5,9489630240166E-8;
-3,67025161934544E-8;
-1,58617182161268E-8;
-4,9260163481264E-9;
-2,26093800047858E-9;
-4,84570877416061E-10;
5,93323899174465E-9;
1,59423584721676E-8;
2,3749421113564E-8;
2,50879906894469E-8;
2,19374069344371E-8;
2,11476893772685E-8;
2,78929217201611E-8;
3,96318641165373E-8;
4,62376215747313E-8;
3,70117185630815E-8;
9,44312537579432E-9;
-2,72797296473987E-8;
-5,72091860434498E-8;
-6,77164663943271E-8;
-5,73244847017238E-8;
-3,56385784953211E-8;
-1,57946645805088E-8;
-5,42998463219569E-9;
-2,94160711890163E-9;
-1,20111329353906E-9;
5,11375008471384E-9;
1,49499574965032E-8;
2,26728132121813E-8;
2,41214640927225E-8;
2,11641514245901E-8;
2,04015460459182E-8;
2,68586360100115E-8;
3,81570618605156E-8;
4,46152859661808E-8;
3,59537878071464E-8;
9,70728390457594E-9;
-2,53864638658681E-8;
-5,41004452658618E-8;
-6,4348540133013E-8;
-5,4682710657835E-8;
-3,42367264488665E-8;
-1,55160207012815E-8;
-5,78213532826432E-9;
-3,47915933680384E-9;
-1,79242448597622E-9;
4,34324258497788E-9;
1,38941951527261E-8;
2,143745643395E-8;
2,29571148789558E-8;
2,02076999884105E-8;
1,94801158256352E-8;
2,56042970588247E-8;
3,63759896179986E-8;
4,26208443777809E-8;
3,45604457865708E-8;
9,80303074956062E-9;
-2,34209038083366E-8;
-5,07064969784928E-8;
-6,05942052653124E-8;
-5,16802875501035E-8;
-3,25711005707194E-8;
-1,50642124180414E-8;
-6,00000534601533E-9;
-3,88666338520526E-9;
-2,27112288870011E-9;
3,62639678549526E-9;
1,28002380908459E-8;
2,00867608676495E-8;
2,16460972183053E-8;
1,91109852658275E-8;
1,84282662040914E-8;
2,41875043978491E-8;
3,43633591628019E-8;
4,03425024990801E-8;
3,29047578669798E-8;
9,75352474868749E-9;
-2,14250778854669E-8;
-4,71228888113059E-8;
-5,65707838217205E-8;
-4,84190496218092E-8;
-3,07092544155905E-8;
-1,44746632195496E-8;
-6,1025163550187E-9;
-4,17855060574942E-9;
-2,64557099865306E-9;
2,96709890775895E-9;
1,16934999210596E-8;
1,86596544086948E-8;
2,02311595776489E-8;
1,79149611731118E-8;
1,72783894329886E-8;
2,26512025303119E-8;
3,21854211358275E-8;
3,78577310729676E-8;
3,10521008127585E-8;
9,58200228219233E-9;
-1,94352285498849E-8;
-4,34339677593323E-8;
-5,2378664420188E-8;
-4,49878774194774E-8;
-2,87090778954895E-8;
-1,37758689703339E-8;
-6,10623476819169E-9;
-4,36884734415549E-9;
-2,92832835698834E-9;
2,36476289457774E-9;
1,05905925600559E-8;
1,71886723212581E-8;
1,87510573272429E-8;
1,66517603191745E-8;
1,60653405590577E-8;
2,10397196689888E-8;
2,98989938462515E-8;
3,52369793989131E-8;
2,90611650612704E-8;
9,30751677422107E-9;
-1,74796577603106E-8;
-3,97105707613086E-8;
-4,81091762378075E-8;
-4,14647851968875E-8;
-2,66204195185476E-8;
-1,29937075361207E-8;
-6,02502888274798E-9;
