9,39596499993974E-7;
1,96512996816628E-6;
2,32172467754024E-6;
1,96380779505224E-6;
1,22919929585251E-6;
5,71706222763333E-7;
2,45498538686181E-7;
1,78894332667983E-7;
1,11961783581056E-7;
-1,406814175179E-7;
-5,29768008982729E-7;
-8,39769181984867E-7;
-9,09496635844474E-7;
-7,98466664238994E-7;
-7,42872868951973E-7;
-9,31573952444521E-7;
-1,29606007910632E-6;
-1,50827820010893E-6;
-1,21253675371929E-6;
-3,19371259939028E-7;
8,74494248629225E-7;
1,84830292776333E-6;
2,19053205940527E-6;
1,85721106992874E-6;
1,16695424347407E-6;
5,48270377203635E-7;
2,41366649312904E-7;
1,78910355817308E-7;
1,15851378685246E-7;
-1,22660559708957E-7;
-4,90285578594209E-7;
-7,83942187878979E-7;
-8,51666937547179E-7;
-7,49310192916682E-7;
-6,99085781632434E-7;
-8,7875058190824E-7;
-1,22400123745266E-6;
-1,42640332829229E-6;
-1,15135517756948E-6;
-3,14218596458587E-7;
8,06935029574145E-7;
1,72347010432169E-6;
2,04887964205284E-6;
1,74112464497954E-6;
1,09809745968801E-6;
5,20922864858147E-7;
2,34659073759875E-7;
1,76603041237422E-7;
1,17711776316359E-7;
-1,05524739047624E-7;
-4,49893114427188E-7;
-7,25667176217903E-7;
-7,90796148103643E-7;
-6,97242624121716E-7;
-6,52300952618812E-7;
-8,21874668863634E-7;
-1,14612219561026E-6;
-1,33748437793851E-6;
-1,08382800501159E-6;
-3,05748585929933E-7;
7,38347615193899E-7;
1,59377828658581E-6;
1,90053444664597E-6;
1,61876662533324E-6;
1,02468066631145E-6;
4,9066685758426E-7;
2,2585727685147E-7;
1,72346547339908E-7;
1,17808857016323E-7;
-8,94144758596789E-8;
-4,09355315084873E-7;
-6,66213286869973E-7;
-7,28279460117248E-7;
-6,43498548566632E-7;
-6,036818439258E-7;
-7,624181751443E-7;
-1,06447304415824E-6;
-1,243918383075E-6;
-1,01191993330298E-6;
-2,94570727360233E-7;
6,69939061702186E-7;
1,46192649597419E-6;
1,74874826574707E-6;
1,49292478901858E-6;
9,48489604727971E-7;
4,58387085265987E-7;
2,15399720126458E-7;
1,66485933141284E-7;
1,16391978348813E-7;
-7,44272049912471E-8;
-3,69309853142217E-7;
-6,06653644969215E-7;
-6,65300978942942E-7;
-5,89135286225146E-7;
-5,54231514939138E-7;
-7,01653428669379E-7;
-9,8082911416335E-7;
-1,14778216117166E-6;
-9,37340357640273E-7;
-2,81239626423459E-7;
6,02715875193409E-7;
1,33020783358241E-6;
1,59629134576191E-6;
1,36598520522224E-6;
8,71062947524395E-7;
4,24853643914191E-7;
2,03676246573722E-7;
1,59336276827211E-7;
1,13697540760037E-7;
-6,06302323664715E-8;
-3,30286591134722E-7;
-5,47888375592651E-7;
-6,02861282273488E-7;
-5,3504834094568E-7;
-5,047990550897E-7;
-6,40662944997164E-7;
-8,96708385402229E-7;
-1,05085410043373E-6;
-8,61559523917342E-7;
-2,66252276394696E-7;
5,37497966568911E-7;
1,20053473093172E-6;
1,44549016861504E-6;
1,2399561202074E-6;
7,93704904244691E-7;
3,90735708737899E-7;
1,91037483663369E-7;
1,51182226491667E-7;
1,09943165876032E-7;
-4,80568795528363E-8;
-2,92706415996704E-7;
-4,90660192565095E-7;
-5,417917179595E-7;
-4,81979300255996E-7;
-4,56098128428496E-7;
-5,80359595460969E-7;
-8,13384422136344E-7;
-9,54637616964536E-7;
-7,8583531049989E-7;
-2,5005446564475E-7;
4,74940540458365E-7;
1,07447715682709E-6;
1,29826952255758E-6;
1,11651266836094E-6;
7,17511523356828E-7;
3,56599526356269E-7;
1,77791062751897E-7;
1,42281204913087E-7;
1,05328715023496E-7;
-3,6716914098686E-8;
-2,56902231692352E-7;
-4,35561088734706E-7;
-4,82762443227318E-7;
-4,30540054957489E-7;
-4,08712022616493E-7;
-5,21494737011629E-7;
-7,31920764106044E-7;
-8,60383533006193E-7;
-7,1121859664161E-7;
-2,33039816109694E-7;
4,15548895649048E-7;
9,53292694271852E-7;
1,15618627020622E-6;
9,97014994603022E-7;
6,43379481522005E-7;
3,2292425298985E-7;
1,64206268797724E-7;
1,32857949435394E-7;
1,00037476630565E-7;
-2,65955108371082E-8;
-2,23123992095825E-7;
-3,83061799661842E-7;
-4,26306559634275E-7;
-3,81212155176926E-7;
-3,63115546930828E-7;
-4,64681109028193E-7;
-6,53178222778054E-7;
-7,69113772141226E-7;
-6,38577535199641E-7;
-2,15553382294985E-7;
3,59699365181275E-7;
8,37965277688888E-7;
1,02046882287077E-6;
8,82549138087781E-7;
5,72039269782299E-7;
2,90106709792166E-7;
1,50516093164403E-7;
1,23115585903553E-7;
9,42349179122072E-8;
-1,76624793674106E-8;
-1,91548151389858E-7;
-3,33510766828791E-7;
-3,72832846690701E-7;
-3,34371884723761E-7;
-3,19675880037712E-7;
-4,10401766467405E-7;
-5,77838703647336E-7;
-6,81640403783634E-7;
-5,68613623064521E-7;
-1,97894090390082E-7;
3,07648233479757E-7;
7,2922704380518E-7;
8,92054349897068E-7;
7,73950212251858E-7;
5,04055782218039E-7;
2,58467159698156E-7;
1,36917838662927E-7;
1,13225423312371E-7;
8,80688514632737E-8;
-9,87246140253155E-9;
-1,62290732428568E-7;
-2,87158385182289E-7;
-3,22638484994581E-7;
-2,90297047919136E-7;
-2,78670487276022E-7;
-3,59025681175788E-7;
-5,06430456871575E-7;
-5,98594153330201E-7;
-5,01882006276053E-7;
-1,80322025010723E-7;
2,59555758617922E-7;
6,27596256423136E-7;
7,71616670357389E-7;
6,71831959474848E-7;
4,39860036817394E-7;
2,28258170279894E-7;
1,23579635303264E-7;
1,03340698436302E-7;
8,16684542643386E-8;
-3,16770319005659E-9;
-1,35411117451769E-7;
-2,44167957607107E-7;
-2,75923077698789E-7;
-2,49178567952078E-7;
-2,40298086353427E-7;
-3,10818826861232E-7;
-4,3933579810314E-7;
-5,20440545932021E-7;
-4,38797640447481E-7;
-1,63049157544978E-7;
2,15495245994268E-7;
5,33401798784733E-7;
6,59609284401303E-7;
5,76615537600789E-7;
3,79755477073556E-7;
1,99675522808315E-7;
1,10639472027794E-7;
9,35908097530713E-8;
7,51549332274795E-8;
2,5166363196052E-9;
-1,10924845148131E-7;
-2,04623046964521E-7;
-2,32804776760887E-7;
-2,11134889705098E-7;
-2,04685209497443E-7;
-2,65958934799144E-7;
-3,76814193423055E-7;
-4,47499963941377E-7;
-3,79662521737073E-7;
-1,46259462009717E-7;
1,754639529322E-7;
4,46807845775424E-7;
5,56284319328329E-7;
4,88555704130468E-7;
3,23941913868503E-7;
1,72856659754607E-7;
9,82080410660936E-8;
8,40811876594424E-8;
6,86246468838566E-8;
7,25235416270701E-9;
-8,88079627001969E-8;
-1,68544099692661E-7;
-1,93324958783759E-7;
-1,76219215606117E-7;
-1,71899520395764E-7;
-2,24549012117517E-7;
-3,19021270367469E-7;
-3,79966004936104E-7;
-3,24673238411926E-7;
-1,30100037915092E-7;
1,39402353692E-7;
3,67842144638578E-7;
4,61729170484839E-7;
4,07756793041919E-7;
2,72520479531692E-7;
1,47898608492666E-7;
8,63751510715975E-8;
7,48997300009182E-8;
6,21636716510083E-8;
1,11143309441644E-8;
-6,90021105978438E-8;
-1,35895587590463E-7;
-1,57470194917519E-7;
-1,44430635628687E-7;
-1,41956674140561E-7;
-1,86624454995317E-7;
-2,66013928489606E-7;
-3,17926275303029E-7;
-2,73936811685969E-7;
-1,14684377127516E-7;
0,00933354124622981;
0,0226300262390786;
0,0163731131621162;
0,00943343038622045;
0,0121696173044995;
0,00702629217931988;
0,00563489233439135;
0,00458277617240883;
0,000840555939271101;
0,00103240655227272;
-0,00119049092428108;
-0,00199205925555515;
-0,00280726210965059;
-0,00455379704311944;
-0,00488743982376484;
-0,00585605287361093;
-0,0059414350536849;
-0,006182749699192;
-0,00699380415240519;
-0,00792080365252287;
-0,00934880929010897;
-0,0102426563740357;
-0,0105182008081241;
-0,0101082553482148;
-0,00920748177481899;
-0,0084301930736898;
-0,00783036942076266;
-0,00745741370347006;
-0,00704800354262084;
-0,0064186605416858;
-0,00567548961530707;
-0,00495856780876508;
-0,00445317774050425;
-0,00409085742223014;
-0,0036639163107469;
-0,00302668853928278;
-0,00222840677606009;
-0,00157303930648681;
-0,00136126173932738;
-0,00166533199894817;
-0,00222567168914482;
-0,0025868864240147;
-0,0024065327641926;
-0,00165697640368485;
-0,000624589472036907;
0,00031675422008356;
0,000963718554079789;
0,00137591883307692;
0,00176517562668941;
0,00227848016538811;
0,00287368928878151;
0,00337815148835235;
0,00366487148747873;
0,0037843584090571;
0,00392467892131201;
0,00423335472860295;
0,00465396791047485;
0,00492896513382493;
0,00478524887930573;
0,00416198222011613;
0,00329842619731447;
0,0026013300609761;
0,00238421521269898;
0,00267148996495072;
0,00320928095845859;
0,00366546275433569;
0,00385881433995371;
0,00384598730666196;
0,00381734333595177;
0,00390620824760471;
0,00407637831205588;
0,00417458244298196;
0,0040890997726384;
0,00386589141152431;
0,00367390124940196;
0,00364545063257427;
0,00373078314617203;
0,00370113272461897;
0,00331383571832492;
0,00251549292081686;
0,00151957790193081;
0,000688170076127228;
0,000300036379709643;
0,000376605354546054;
0,000692115078455705;
0,00095148407380346;
0,000993793146828784;
0,000869219385162971;
0,000746337718308937;
0,000742955855804687;
0,000826534729433596;
0,000860894677319255;
0,000746746504047067;
0,000524347139431402;
0,000342609076929862;
0,000317871690622145;
0,000405482348447191;
0,000402772860282586;
9,50366010692503E-5;
-0,000565232074047629;
-0,0107236186461039;
-0,0246909603303285;
-0,0187062861220578;
-0,0116222907658332;
-0,0139971851786346;
-0,00853588496255469;
-0,00701189083817731;
-0,00596899318060118;
-0,00223031172875336;
-0,00231725155409069;
8,97731466002803E-5;
0,00103463065679791;
0,00186473064675841;
0,00353258805954528;
0,00382390843811935;
0,00488783494055003;
0,00516651892857331;
0,00552140008517155;
0,00617829622238409;
0,00664173135058146;
0,00746063353097012;
0,00787760715197309;
0,00802161471012284;
0,00784056375808694;
0,00735465505390801;
0,00695108177326319;
0,00655994163523388;
0,00626845575884467;
0,00594147438191165;
0,00548467822273041;
0,00497856450435178;
0,00445880356900892;
0,00403463868906999;
0,00366783192345536;
0,00326334851567488;
0,0027632227512138;
0,00218224910900269;
0,00167052100597728;
0,00136619078024067;
0,00130572820987217;
0,00137144538974462;
0,00134802749286326;
0,0010769853759267;
0,000543587727961379;
-0,000116323644601156;
-0,000724567848894639;
-0,00118432929859019;
-0,00152243047385407;
-0,00184022569509448;
-0,00220792493931499;
-0,00260529901320559;
-0,0029492242869447;
-0,00317775497251645;
-0,00331522494247713;
-0,00345291758418471;
-0,00366309074214517;
-0,0039187232673144;
-0,00409378416656425;
-0,00405388730287259;
-0,00376840778112213;
-0,0033550548343209;
-0,00301542369494027;
-0,00290606192887647;
-0,00304042745087203;
-0,00329291545217029;
-0,00349792052502242;
-0,00356464881135738;
-0,00352163492303501;
-0,00346520079745009;
-0,00346338109765734;
-0,00349850659823061;
-0,00349312520617472;
-0,00339047705648944;
-0,00321417736626395;
-0,00305114317457783;
-0,00297000822864281;
-0,00294585237011656;
-0,00286091082529962;
-0,0025893918380668;
-0,00210310897529459;
-0,0015128770924841;
-0,00100793726365635;
-0,000735052929056474;
-0,000706612389486192;
-0,000804751978429745;
-0,000874204179530085;
-0,000829822201075294;
-0,000698112607944105;
-0,000568846801425863;
-0,000505228799171119;
-0,000490280892515125;
-0,000451192853634045;
-0,000334517689079473;
-0,000161814273491221;
-1,36237550383587E-5;
4,66768245851746E-5;
4,29701156046869E-5;
8,55994313506963E-5;
0,000292268175045442;
0,00068971925500914;
0,0105088013371993;
0,0242035475286661;
0,0181220914023007;
0,0111243554557156;
0,0136791867735384;
0,00837599165032834;
0,00692579371441698;
0,00589192618051581;
0,00216235978443849;
0,00230331314572243;
-1,76961387745007E-5;
-0,000896611830014196;
-0,0017184284960455;
-0,00342032145899121;
-0,00373207496350938;
-0,00475964002182244;
-0,00496225535684049;
-0,00527673293181498;
-0,00600787040194057;
-0,00667693625885591;
-0,0077633941600144;
-0,00839353885672656;
-0,00860797442096955;
-0,00834899923485462;
-0,00770936338077564;
-0,00716974216917682;
-0,00671066228692532;
-0,00640352211335089;
-0,00606091882446173;
-0,00555254186333073;
-0,00496934471467688;
-0,00438884028583765;
-0,00395037309805012;
-0,00360336943063614;
-0,00320807401542069;
-0,00267210202711307;
-0,00202397415237454;
-0,00147384163576675;
-0,00122257135827887;
-0,0013197347730988;
-0,00159237305584488;
-0,00173301629634386;
-0,00151342978265902;
-0,000914678532005527;
-0,000129997681407208;
0,000588773795358537;
0,00110524056572596;
0,00145873908367896;
0,00179160785643114;
0,00220217323564869;
0,00266197355259547;
0,00305524339970512;
0,00329666523470114;
0,0034202443118825;
0,00355198793061104;
0,00379075542393989;
0,00409883454490085;
0,0043038482238288;
0,00422324293118637;
0,00381655520882435;
0,00324410609606711;
0,00277811038773559;
0,00262828415778142;
0,00281106150646744;
0,00315697129296906;
0,0034444214066686;
0,0035527049564613;
0,0035199313447478;
0,00347338991569505;
0,00350223953834557;
0,00358256424318922;
0,00361244923117893;
0,00351773918658115;
0,00332935439730478;
0,00316006705134233;
0,00309818273879478;
0,00311078386554928;
0,0030459074692204;
0,00274246982493598;
0,00216532162419238;
0,00145667580730691;
0,000857339185488415;
0,000552588442856333;
0,000556705699405035;
0,000719908071286947;
0,000846535854828427;
0,000830048221634587;
0,000703922169125476;
0,000580056361372645;
0,000536611229911741;
0,000552105265622203;
0,000536457341086603;
0,000424071813762037;
0,000241718472162367;
8,79864050201291E-5;
3,98283238846152E-5;
6,77239181459227E-5;
3,77868629387718E-5;
-0,000191695046961666;
-0,000651923376426109;
-0,0105521951932236;
-0,0243116831898289;
-0,0182528463915791;
-0,0112346621817037;
-0,0137474475402269;
-0,00840737184742436;
-0,00693941800611148;
-0,00590223472127595;
-0,00216939178978696;
-0,00229753844339776;
4,28204470727167E-5;
0,000936621793861573;
0,00176127512137334;
0,00345733445252666;
0,0037658304617323;
0,00480098395925317;
0,00501844695488681;
0,00534074525043076;
0,00605846069393008;
0,00669056641940566;
0,00772952445025871;
0,0083219983655539;
0,00852314045532689;
0,00827537716207115;
0,00765903933790001;
0,00713983257941014;
0,00669075080800544;
0,00638589755837806;
0,0060455955936482;
0,00554445487954947;
0,00497175327900157;
0,00439940027119624;
0,0039630875861761;
0,00361404019792502;
0,00321789420015169;
0,00268597294071246;
0,00204497892903776;
0,00149873538040005;
0,00124230295571212;
0,00132480988463337;
0,0015789539501049;
0,0017052099237736;
0,00148036360634056;
0,000884916993187819;
0,000107438743340369;
-0,000605112059031798;
-0,00111837971161873;
-0,00147068624846423;
-0,00180234060015749;
-0,00221070959824112;
-0,00266788357981825;
-0,00305909352045395;
-0,00329932577390303;
-0,00342213115547426;
-0,00355310224633416;
-0,00379126166398545;
-0,0040992078275295;
-0,00430413502140189;
-0,00422216536249126;
-0,00381171325336716;
-0,00323366433236995;
-0,0027628025783573;
-0,00261187560254082;
-0,00279845670569236;
-0,00315118776534415;
-0,00344483945472131;
-0,00355611296196848;
-0,00352352889361068;
-0,00347714192547226;
-0,0035084805423499;
-0,00359323216900136;
-0,00362660603384694;
-0,00353194006724991;
-0,00334082915095441;
-0,00316980172756653;
-0,00311056609813283;
-0,00312924988610664;
-0,00306781004447623;
-0,00275788349706721;
-0,00216189792839972;
-0,00142782591823314;
-0,000807808014884924;
-0,000496854621006683;
-0,000510860579683215;
-0,000692703095670342;
-0,000836009641033072;
-0,00082780590704166;
-0,000703164899231211;
-0,000580723547662616;
-0,00054376559198796;
-0,000569626107128708;
-0,000562148203821936;
-0,000450911555578125;
-0,000264294516244229;
-0,000108080014312372;
-6,52882672913632E-5;
-0,000104400892156764;
-8,08081540658323E-5;
0,000159365147938517;
0,000650803125727267;
0,00125934725707347;
0,00175623448452443;
0,00196486414650254;
0,00187157974114466;
0,00161990509523024;
0,00139794517874896;
0,00130884619263998;
0,00132132536301869;
0,00132833241413125;
0,00125495565687146;
0,00112234949513606;
0,00101820021180691;
0,00100678454388254;
0,00106287157714308;
0,0010912019971629;
0,00101717503361311;
0,000869787898116973;
0,000780184185530008;
0,000887724077087733;
0,00122398047686061;
0,00166806983401997;
0,00201384010719302;
0,00210235299079461;
0,00192169280519184;
0,00160157609770372;
0,00131173567626952;
0,0011452285817722;
0,00107401380426734;
0,00100189000907903;
0,000861625588643739;
0,000672384443562518;
0,000513070524992855;
0,000441463605407218;
0,000434906141095477;
0,000407896929719484;
0,000293531949990113;
0,000117851980109654;
-1,58627960277429E-6;
6,00052572512241E-5;
0,000330742484930005;
0,000702212427151574;
0,000989784749003692;
0,00105122141047478;
0,000875862141806441;
0,000579631165668722;
0,000314088771832028;
0,000162181443893744;
9,86843327612438E-5;
3,75791858172779E-5;
-8,12409804691858E-5;
-0,00024081673671949;
-0,00037097979100636;
-0,00042044877453757;
-0,000409606736172246;
-0,000414742554494423;
-0,000495528080372755;
-0,000628935694611876;
-0,000710624577533744;
-0,000629931397463987;
-0,000362144615466099;
-3,76086309769017E-6;
0,000281194344239797;
0,000366447838070633;
0,000242484661263574;
1,19634549020959E-5;
-0,000190984892296149;
-0,000293085531551231;
-0,000316836412916216;
-0,000338472854207622;
-0,000411244874425712;
-0,000520249982428002;
-0,000603602363768029;
-0,000616146342124144;
-0,000576001770782441;
-0,000550571861733471;
-0,000592535217638195;
-0,000681636708373893;
-0,000726016292245841;
-0,00062833510604133;
-0,000366982775357032;
-2,69769093520619E-5;
0,000247384859015206;
0,00034512576650214;
0,000257933943004905;
7,59890513563775E-5;
-8,29927712230916E-5;
-0,000154773539950194;
-0,000159123210194728;
-0,000162866837829338;
-0,000212628157179085;
-0,000295327266860694;
-0,000356792274448773;
-0,000357534671063649;
-0,000313406139282276;
-0,0002832890151697;
-0,000313142256166287;
-0,000385223857152403;
-0,000419350891923742;
-0,000330648324707424;
-0,000100319164612947;
0,0095309815165156;
0,0230670674395115;
0,0168952966106565;
0,00987919395502371;
0,0124558405998287;
0,00717211737486443;
0,00571522510247194;
0,004655390478987;
0,000905338995256065;
0,00104892031222641;
-0,00125128458739899;
-0,00211226316235964;
-0,00293479680760376;
-0,00465026754263608;
-0,00496528683972989;
-0,00596733611504765;
-0,00612282598094739;
-0,00640170789176545;
-0,00714461900931784;
-0,00788160186724702;
-0,00906154061080905;
-0,00975735235056273;
-0,00996780843755919;
-0,0096317321768128;
-0,00887626043440229;
-0,00822779510953263;
-0,00769242375044104;
-0,00733425197126807;
-0,00693958673925766;
-0,00635947206516221;
-0,00569020013740016;
-0,00503163878215463;
-0,00453982359281623;
-0,00415800103164945;
-0,00372191177569103;
-0,00311968966307706;
-0,00238739265738402;
-0,00176994096308293;
-0,00150566969916475;
-0,00165312734082371;
-0,00200711712062592;
-0,00220419948179729;
-0,00197238057642819;
-0,00128906878598702;
-0,000383259537049533;
0,000445767601886215;
0,00103525725211328;
0,00143233818582669;
0,00180680232050337;
0,00227644637745227;
0,00280744115170892;
0,00326110531256068;
0,00353511045885497;
0,00367005590208099;
0,00381737955553713;
0,00409614050483328;
0,00446103009527962;
0,0047041604648546;
0,0046047884928634;
0,00411351723295888;
0,00342389947692196;
0,00286554372164038;
0,00269296097409511;
0,00292638624127067;
0,00335998562982537;
0,00372399074458559;
0,00387104422672638;
0,00384733876589861;
0,00380817075300666;
0,00386254774567376;
0,00398120020733683;
0,00403910940367298;
0,00394502778121886;
0,00373665385226243;
0,00355252608437987;
0,00350138270028547;
0,00354268791636079;
0,0034887704083424;
0,00314020677613868;
0,0024529756169234;
0,00160276762660786;
0,000888042696362657;
0,000538992132162077;
0,000573665518591409;
0,000805836030598608;
0,000991640418264132;
0,000997917480983662;
0,000866241299605967;
0,000736465454895521;
0,000706521216454971;
0,000749556859618966;
0,000752458527138035;
0,000632612221526851;
0,000423519184581489;
0,000249344600740966;
0,000207279495449615;
0,000260186564436372;
0,000238732040576842;
-3,67973119278681E-5;
-0,00060638360960688;
-0,0106462066512696;
-0,0245184760276122;
-0,0185013498442871;
-0,0114501788233465;
-0,013891320984946;
-0,00848853115006393;
-0,00699305780324326;
-0,00595560997025924;
-0,00222229643465697;
-0,00233038651810713;
4,42731401305562E-5;
0,000963946951769818;
0,00178930412865299;
0,00346746765685145;
0,00376449473776807;
0,00481437419008367;
0,00506524084143338;
0,00540489388071893;
0,00608673710957377;
0,00662115844885092;
0,00753295324250496;
0,00802435108076188;
0,00819366239069639;
0,00798678599430509;
0,00744888689322887;
0,00699930605168083;
0,00658546292983012;
0,00628916979019963;
0,00595741878905113;
0,00548361469491495;
0,00495181895124068;
0,00441192243357766;
0,00398337571415336;
0,00362376703124249;
0,00322296471515723;
0,00271141056625171;
0,0021085127549456;
0,00158450235998419;
0,00129851482814772;
0,001291405947638;
0,00142710984790417;
0,00145972513721545;
0,00120764980565951;
0,000654714982586314;
-4,44012508438586E-5;
-0,000687381821854469;
-0,00116447031766109;
-0,00150655932312209;
-0,00182831059738051;
-0,00220903085636265;
-0,00262582011709276;
-0,00298503776320058;
-0,00321723639094488;
-0,00334984662377153;
-0,00348522275181547;
-0,00370406743657485;
-0,00397596082113884;
-0,0041602363611356;
-0,00410735938896925;
-0,0037836239693723;
-0,00332003773418225;
-0,00294014795481357;
-0,00281696933022376;
-0,00296489720761068;
-0,00324489214829695;
-0,00347426920535323;
-0,00355315041024544;
-0,00351296342120342;
-0,00345933751698428;
-0,00346661206164085;
-0,00351523418939144;
-0,00352048826738445;
-0,00342048789445868;
-0,00324100020245169;
-0,00307648360398916;
-0,00300125953973043;
-0,00298807524439837;
-0,00290934879420594;
-0,00262924543576068;
-0,00211763756051319;
-0,00149419596491999;
-0,000962568123202973;
-0,000680180949221447;
-0,000659924735467035;
-0,000775214781240739;
-0,000859857490111651;
-0,00082298253713273;
-0,000692963347152274;
-0,000565395775472602;
-0,000507359444611646;
-0,000500678286424235;
-0,000468106748967254;
-0,000353133969792668;
-0,000178649020031218;
-2,96703136295505E-5;
2,712898824116E-5;
1,70392509583519E-5;
5,60455881391562E-5;
0,00026747386084915;
0,000679023713828078;
0,0105165334980919;
0,024226155742151;
0,0181503762501142;
0,0111489913951932;
0,0136955005840434;
0,00838492836085006;
0,00693112564259505;
0,00589644415355585;
0,00216603005791186;
0,00230431680422145;
-2,05695022065221E-5;
-0,000902568473345396;
-0,00172538206442717;
-0,00342680899636487;
-0,00373848058503378;
-0,00476759300062434;
-0,00497277059303622;
-0,0052887603345094;
-0,0060185208847032;
-0,00668320439446289;
-0,00776399475298328;
-0,0083894898049261;
-0,0086016580280508;
-0,00834260356874481;
-0,00770389447437454;
-0,00716511135403656;
-0,00670641969130323;
-0,00639944511985954;
-0,00605705768127214;
-0,00554895570404505;
-0,00496598603376069;
-0,00438572155569546;
-0,00394771635550831;
-0,0036014202274528;
-0,00320669652961015;
-0,00267066987544885;
-0,00202191878896362;
-0,00147155403965514;
-0,00122179944868379;
-0,00132281830644707;
-0,00160059504812475;
-0,00174526032155003;
-0,00152633583878386;
-0,000924423471591101;
-0,000134495845012594;
0,000588900790679442;
0,00110766159089038;
0,00146152893565525;
0,00179470775933842;
0,00220700281802966;
0,00266963781091934;
0,0030650600561973;
0,00330648696417448;
0,00342840170873289;
0,00355905264041981;
0,00379923616935415;
0,00411062091711469;
0,00431735166583821;
0,00423285988120838;
0,00381550286225208;
0,00322896554510507;
0,00275176415343241;
0,00259884867973221;
0,00278733822587162;
0,0031436078460304;
0,00344021515174232;
0,00355303390599748;
0,00352110211310526;
0,00347533865909792;
0,00350760468386481;
0,00359332189930377;
0,00362736790810442;
0,00353309157658247;
0,00334230295642932;
0,00317153943223023;
0,00311222722702166;
0,00313036936804851;
0,00306846612259019;
0,00275924951708419;
0,00216591333659857;
0,00143591505387566;
0,000819538426754483;
0,000509724197004126;
0,000521618811317837;
0,000699325523997606;
0,000838788551986728;
0,000828664861849148;
0,000703782816751139;
0,000581093477319624;
0,000542445320996943;
0,000565413573161262;
0,000555566824674898;
0,000443986008172463;
0,000258661707205906;
0,000103169556053678;
5,85293163804092E-5;
9,3772388890213E-5;
6,78320247423964E-5;
-0,000168916739524192;
-0,000649711086457406;
-0,0105771070016675;
-0,0243582786816134;
-0,0183060950324384;
-0,0112785279930273;
-0,0137735581652286;
-0,00841776001009013;
-0,0069420076790412;
-0,00590326538674119;
-0,00216893300905072;
-0,00229119947388431;
5,82661062426359E-5;
0,000959156672473024;
0,00178491282869172;
0,00347756805767835;
0,00378408982929279;
0,00482350022594169;
0,00504971585397731;
0,00537680961995052;
0,0060861161363841;
0,00669428263767534;
0,00770166569438678;
0,00826886501414979;
0,00846209914849246;
0,00822490694081576;
0,00762877163250024;
0,00712746311970059;
0,00668725676452049;
0,0063841938990422;
0,00604561298027274;
0,00555116659656288;
0,00498880074673613;
0,00442450859022319;
0,00398952923218038;
0,00363676145995301;
0,00323848770532012;
0,0027113784974498;
0,00208018638707984;
0,00153933833368008;
0,00127366249071585;
0,00132974922179422;
0,00154904049455418;
0,0016473679655602;
0,00141366170581361;
0,000829612731547295;
7,40812597783318E-5;
-0,000619017415179715;
-0,00112264238499852;
-0,00147299503259161;
-0,00180276254461177;
-0,00220385428181734;
-0,00264981303946786;
-0,00303226347506811;
-0,00327098582832723;
-0,00339771938363461;
-0,00353091262488867;
-0,00376386067558485;
-0,00406126268851529;
-0,00426036342293559;
-0,00418819611953222;
-0,00380585626739429;
-0,00326490223346727;
-0,00282379361758105;
-0,00268240477406691;
-0,00285707006657722;
-0,00318671782397378;
-0,00345990091521879;
-0,00356102946229139;
-0,00352638212767779;
-0,00347799521484412;
-0,00350167110838862;
-0,00357462920428358;
-0,00359877965179688;
-0,00350247131448672;
-0,00331539917809871;
-0,00314663431108607;
-0,00308192137860023;
-0,00308958398278247;
-0,00302203223583873;
-0,00272222617061451;
-0,0021553580049817;
-0,0014597214107639;
-0,000870558501393406;
-0,000569580291443834;
-0,000571416029720896;
-0,000729562406995713;
-0,000851847386973161;
-0,000833224796365728;
-0,000706457610606223;
-0,000581948763396489;
-0,000537113557821233;
-0,000550863042669534;
-0,000533901614964793;
-0,000420929745203016;
-0,000238380069140713;
-8,44238151180061E-5;
-3,60055515573787E-5;
-6,38502856027528E-5;
-3,39877136456201E-5;
0,000195951555284557;
0,000657855085707889;
0,00122739617572779;
0,0016929465871089;
0,00189137136468944;
0,00181028619833443;
0,00158247213586304;
0,00138168936184202;
0,00130308641078391;
0,00131771318578298;
0,00132681443316037;
0,00126138143448921;
0,00114097896988006;
0,00104639694844445;
0,00103677280462158;
0,00108883095756044;
0,00111494283528406;
0,00104658975742119;
0,00091051882053076;
0,000827231809317431;
0,00092459510781359;
0,00123139672318197;
0,00163656940167659;
0,0019510462200357;
0,00202930082072081;
0,00186067923347581;
0,00156420915259966;
0,00129536570612799;
0,00113926510382238;
0,00107018337294421;
0,0010001449584376;
0,000867765005441685;
0,000690629702306569;
0,000540816930984038;
0,000471025453879467;
0,000460532267372893;
0,000431372447204498;
0,000322641983946069;
0,000158158926701098;
4,4989785283239E-5;
9,66037988112908E-5;
0,000338380185092619;
0,000671566067599057;
0,000928327726131018;
0,000979601729792027;
0,000815964671205165;
0,000542853245808365;
0,000297849594341485;
0,000156121215804008;
9,47129020879625E-5;
3,56549272588155E-5;
-7,54443400361984E-5;
-0,000223170076078089;
-0,000344022545881123;
-0,000391679602949833;
-0,000384635652510754;
-0,000391831418243148;
-0,000467093769380397;
-0,000589562318215349;
-0,000665108073295622;
-0,000594077610815131;
-0,000354417772505291;
-3,32366675976411E-5;
0,000221752548840941;
0,000297063564564514;
0,000184381566957279;
-2,380066654381E-5;
-0,000206893876074991;
-0,000299154736075245;
-0,00032088476176736;
-0,000340535826938924;
-0,000405835060550594;
-0,000503374230175308;
-0,000577707837545862;
-0,000588466210040566;
-0,000551946749500562;
-0,000528468309136153;
-0,000565078422860633;
-0,00064361100401099;
-0,000682037374241881;
-0,000593611824480493;
-0,000359279858874682;
-5,50346941443717E-5;
0,00019049726618989;
0,000278617910052327;
0,00020216918437098;
4,15824861260604E-5;
-9,84060860965524E-5;
-0,000160774464290351;
-0,000163189854811235;
-0,000165028601766432;
-0,000207632356740385;
-0,000279351468874921;
-0,000332170209309034;
-0,000331172245977291;
-0,00029046899242272;
-0,000262181751823043;
-0,000286898556479675;
-0,000348870438464295;
-0,000377285374846487;
-0,000297360390164741;
-9,27329294222996E-5;
0,00017109605714355;
0,000383420626071576;
0,000459425666283284;
0,000393096251564463;
0,000253671703157126;
0,00013116771648028;
7,45430241526956E-5;
6,86487967223585E-5;
6,26170804926779E-5;
2,10966657333057E-5;
-4,5860817742472E-5;
-9,71149857313175E-5;
-0,000102784832260027;
-7,4917441381141E-5;
-5,79925400768955E-5;
-8,65830114626509E-5;
-0,000147174179072071;
-0,000179353989835367;
-0,000119424282686517;
4,64949070557964E-5;
0,000262636455768984;
0,000434895613504414;
0,000491299908742475;
0,000426869430683117;
0,000300461995911791;
0,000188456032637874;
0,000132337688756795;
0,000119268518949825;
0,000106219331512322;
6,33431354919796E-5;
-8,15066065469269E-7;
-5,14902184919474E-5;
-6,3474736106382E-5;
-4,69408720945493E-5;
-3,93570821733682E-5;
-6,97909328514165E-5;
-0,000126824326230578;
-0,000159655925085655;
-0,000114819268326516;
1,92551139464932E-5;
0,000195722839206305;
0,000335704541621296;
0,000378986455174389;
0,00032149440038132;
0,000212512345672485;
0,000115866760508559;
6,61576593220271E-5;
5,26361185738128E-5;
3,94275485427321E-5;
1,69537691706453E-6;
-5,34282091404598E-5;
-9,70448663120266E-5;
-0,000108249839042104;
-9,55239387150187E-5;
-8,99485737316037E-5;
-0,0001155852499939;
-0,000162957761689742;
-0,000190065265585208;
-0,000152799123553494;
-4,17097821133365E-5;
0,000104487944804511;
0,000220785029691815;
0,000257667689646792;
0,000211866162879647;
0,000123925808852901;
4,62321252342884E-5;
7,11065597623471E-6;
-2,29143534083074E-6;
-1,13479568574639E-5;
-4,03479265188406E-5;
-8,3449716616325E-5;
-0,000117087804929135;
-0,000124264679919101;
-0,000111924578058829;
-0,000105353578352316;
-0,000124074241973126;
-0,000160371748643534;
-0,000180217971241199;
-0,000147973810225107;
-5,60986729476598E-5;
6,40611037995314E-5;
0,000160052328146497;
0,000192040510844233;
0,000157483690133933;
8,90330229011061E-5;
2,87461075531379E-5;
-7,06793642698004E-7;
-6,45628543344143E-6;
-1,20019071342095E-5;
-3,35241873551424E-5;
-6,63377455690393E-5;
-9,16735566011764E-5;
-9,60424709442962E-5;
-8,49937080500924E-5;
-7,85875788253407E-5;
-9,22554875576966E-5;
-0,000119859454672484;
-0,000134528973950149;
-0,000108222742173402;
-3,51002748833718E-5;
6,01209333201318E-5;
0,000136265269250487;
0,000162186495689016;
0,000135998587222358;
8,32813964873849E-5;
3,68465284688109E-5;
1,43088980204243E-5;
1,00888000759479E-5;
5,95019860753277E-6;
-1,06076523722474E-5;
-3,59287126850465E-5;
-5,55249967326437E-5;
-5,90345458334156E-5;
-5,07541347426951E-5;
-4,60748288713853E-5;
-5,67752758037672E-5;
-7,81217543179057E-5;
-8,96207614374014E-5;
-6,99949150869965E-5;
-1,49104975994312E-5;
5,68226842128063E-5;
0,000114067542888715;
0,00013340515034079;
0,000113530101583868;
7,37361798113651E-5;
3,86221429945647E-5;
2,13163541294714E-5;
1,76176039707708E-5;
1,39595525754655E-5;
1,10290725891413E-6;
-1,82106343449481E-5;
-3,32868458861615E-5;
-3,65327704941968E-5;
-3,11361783694928E-5;
-2,83580175265395E-5;
-3,67494470733165E-5;
-5,28215076490297E-5;
-6,17172584677961E-5;
-4,8132630306859E-5;
-9,06217315283368E-6;
4,1898087583608E-5;
8,24629027671567E-5;
9,60207133980797E-5;
8,17718632602415E-5;
5,34689840815234E-5;
2,84783142585209E-5;
1,59794502191731E-5;
1,29823730915285E-5;
1,00231159961381E-5;
7,24129974513806E-7;
-1,29798589570218E-5;
-2,37275414113926E-5;
-2,63568373671705E-5;
-2,308418727008E-5;
-2,15526962855603E-5;
-2,74896387121536E-5;
-3,85000296763476E-5;
-4,46627838726376E-5;
-3,58995272476128E-5;
-1,03649124864901E-5;
2,29023403087531E-5;
4,93476190773411E-5;
5,82987554580103E-5;
4,93926381596105E-5;
3,15453175760398E-5;
1,58165606364548E-5;
7,94529621369082E-6;
5,99602770451498E-6;
4,07398364013419E-6;
-1,71138679538362E-6;
-1,01294177123476E-5;
-1,67163678956334E-5;
-1,84214405072708E-5;
-1,66175740447146E-5;
-1,58096168285286E-5;
-1,92779785440084E-5;
-2,55778894578496E-5;
-2,9064513634554E-5;
-2,41821851837892E-5;
-1,0086567847827E-5;
8,1270881226359E-6;
2,25861940414632E-5;
2,77473809014895E-5;
2,36217641525324E-5;
1,49504053752059E-5;
7,35471603099564E-6;
3,60962224890752E-6;
2,68927793145341E-6;
1,77169733831977E-6;
-8,94810472313592E-7;
-4,68581621548253E-6;
-7,62739745217665E-6;
-8,4806530740651E-6;
-7,89295670733888E-6;
-7,67650325416669E-6;
-9,0146179690271E-6;
-1,12775117534827E-5;
-1,24815474628701E-5;
-1,09389755681929E-5;
-6,65801098470088E-6;
0,00933207352814484;
0,0226325191380123;
0,0163773622849848;
0,00943757130980846;
0,0121729124241208;
0,00702891781785144;
0,00563723506316056;
0,00458498275864966;
0,000842606029772582;
0,00103437510602035;
-0,00118842733018905;
-0,00198989680798296;
-0,00280531922694289;
-0,0045524145773615;
-0,00488645354223756;
-0,00585467824909854;
-0,00593895778236963;
-0,00617961566287933;
-0,00699209101364641;
-0,00792332947113161;
-0,00935722483078831;
-0,0102558894413657;
-0,010532599546881;
-0,0101195646437311;
-0,00921330269137953;
-0,00843108875801411;
-0,00782879955101502;
-0,00745542837425141;
-0,00704563847799152;
-0,00641434185545568;
-0,00566797245318177;
-0,00494853916682743;
-0,00444292294897197;
-0,0040821705644054;
-0,00365619172196858;
-0,00301722916989089;
-0,00221515955385595;
-0,0015576747078788;
-0,00134978219396469;
-0,00166506942088285;
-0,00224043522683908;
-0,00261379007806218;
-0,00243707410134755;
-0,001681834423054;
-0,000638766946259717;
0,000312091216618173;
0,000963770108755921;
0,00137683078667133;
0,00176690448381389;
0,00228383662729679;
0,00288479968468225;
0,00339376541745657;
0,00368109405415582;
0,00379820778143145;
0,00393712408709289;
0,00424865791181796;
0,00467527697211746;
0,00495361176626458;
0,00480403275731241;
0,0041638964404063;
0,00327790523763461;
0,00256273202525398;
0,002339978063926;
0,00263504212479899;
0,00318772650515567;
0,00365715235198808;
0,00385706191078458;
0,00384548617770053;
0,00381804536263609;
0,00391192028739212;
0,00408993570705822;
0,004194282883788;
0,00410975796631134;
0,00388357402423308;
0,00368986684577743;
0,00366521015392379;
0,00375835618716774;
0,00373305451014467;
0,00333836000663397;
0,00251869063672922;
0,00149448668469547;
0,000640310518116486;
0,000244956818313277;
0,000330977659211669;
0,000664706133053586;
0,00094026636378796;
0,000990599886061552;
0,000867604923495464;
0,000746250336249786;
0,000748981211888503;
0,000842061172337042;
0,000883866606497777;
0,000770972971916384;
0,000545153891945423;
0,000361477517890525;
0,000341277781974901;
0,000438117448224257;
0,000440555300010045;
0,000124256499562533;
-0,00056075361861539;
-0,0107519195875581;
-0,0247456334229344;
-0,0187694082310489;
-0,0116747166186853;
-0,0140288807667431;
-0,00854916241022138;
-0,00701603656395549;
-0,00597131250152735;
-0,00223085852767107;
-0,00231085407886733;
0,000106918197493319;
0,00106020264722918;
0,00189178655296574;
0,00355590045432812;
0,00384512326536128;
0,00491414252836435;
0,00520310606610935;
0,00556372827660625;
0,00621120870971544;
0,00664739584978335;
0,00743022214760033;
0,00781817123007997;
0,00795280312991343;
0,00778331569508865;
0,00731992284230119;
0,00693635183664238;
0,00655512712391089;
0,00626563873247439;
0,00594060081525247;
0,00549133693992119;
0,0049968529148741;
0,00448621441696497;
0,00406370074382134;
0,00369293048473056;
0,00328624359560254;
0,00279159952840257;
0,00222163559986265;
0,00171606304841582;
0,00140173888732245;
0,00131232066744515;
0,00133971572863974;
0,00128545956231659;
0,00100438611256111;
0,000483095825263473;
-0,00015314259009758;
-0,000740356208148034;
-0,00118969542222138;
-0,00152568907535858;
-0,00184142906488229;
-0,00220121457317434;
-0,00258638873698152;
-0,00292073959074927;
-0,00314750019007102;
-0,00328905748931735;
-0,00342900722454021;
-0,00363344837702207;
-0,00387761375533806;
-0,00404625468010569;
-0,00401668551469106;
-0,00376116974460786;
-0,0033874671381384;
-0,00307975315923381;
-0,0029808354880242;
-0,0031028219831824;
-0,0033310166788286;
-0,00351443731520181;
-0,00357047032642599;
-0,00352528650831843;
-0,00346673172112885;
-0,00345679074675543;
-0,00347941127827939;
-0,00346421001085584;
-0,00335971156794858;
-0,00318753743456744;
-0,00302676629243623;
-0,00293976588008188;
-0,00290391786666951;
-0,00281241918759077;
-0,00255135017124512;
-0,00209543695675069;
-0,00154539381698944;
-0,00107281706223117;
-0,000810578086709201;
-0,000769716692889046;
-0,000843399394660952;
-0,00089111740497809;
-0,000835966028380177;
-0,000702064429385591;
-0,000570652077617362;
-0,000498853910254246;
-0,000471322690702284;
-0,000422346358526722;
-0,00030377503237549;
-0,00013516413141478;
1,07962831822055E-5;
7,6994802456653E-5;
8,50059931715375E-5;
0,000134219479912363;
0,000330493155964526;
0,000697677195621302;
0,00114326584447489;
0,00150944266682022;
0,00167431162582735;
0,0016284855744614;
0,00147125591200716;
0,00133282738411858;
0,00128465401533928;
0,00130507188496747;
0,00131985267010834;
0,00127702570328313;
0,00119131710424693;
0,0011237200829832;
0,00111899826761996;
0,00115964737799379;
0,00117937049881823;
0,00112622456093124;
0,00102050021636601;
0,000953810277180729;
0,00102356657888489;
0,00125188571996252;
0,00155423813229137;
0,00178635612393381;
0,00183699139906044;
0,00169794642943349;
0,00146041574128876;
0,00124373500486716;
0,00111339044037633;
0,00104970191841013;
0,000984984607818611;
0,000871922757678129;
0,000724090052620449;
0,000597224465824321;
0,000532183254279144;
0,000513006443037471;
0,000479279765145766;
0,00038370935937144;
0,000244792888715211;
0,000145891879977674;
0,000175533753483884;
0,000353668479731806;
0,000603276640438918;
0,000793133390181778;
0,000822132391060019;
0,000682820179399386;
0,000457939744471119;
0,00025566659204494;
0,000135227077940505;
7,858506880976E-5;
2,42244316533555E-5;
-7,08638462037229E-5;
-0,000194525561546657;
-0,00029646847517234;
-0,00033991834232318;
-0,000339516939669756;
-0,000350070954307658;
-0,000414474299194158;
-0,000516157021701047;
-0,000580010466873437;
-0,000526344936980188;
-0,000337415385864664;
-8,29299345921098E-5;
0,000118623276107104;
0,000176020434953837;
8,24816193575059E-5;
-8,75627643479668E-5;
-0,000236867369187166;
-0,000312309775318987;
-0,000330283352272023;
-0,000346234991639746;
-0,000398921662900195;
-0,000477518300437533;
-0,000536972707683234;
-0,000544403857710942;
-0,00051307324315097;
-0,000492229441202067;
-0,000520385905326886;
-0,000582742494082286;
-0,000612093619481313;
-0,00053720021239521;
-0,000342313666623816;
-8,99054520525892E-5;
0,00011401931839834;
0,000187935123995964;
0,000125831009609269;
-5,78697396708823E-6;
-0,000120114276786993;
-0,00016978759311771;
-0,000169468458090681;
-0,000168603241754852;
-0,000201713146911889;
-0,000259127851129355;
-0,000300719214481591;
-0,000297227524056364;
-0,000260455985292785;
-0,00023418091353775;
-0,000252588718370364;
-0,00030247472788476;
-0,000324122468148865;
-0,000254299902280536;
-7,90628471485577E-5;
0,00947960178035068;
0,0229571810424556;
0,0167653712857375;
0,00976960087821833;
0,0123874316538146;
0,007140280081921;
0,00570145960398604;
0,00464539702245231;
0,000899090272292115;
0,00105631473976258;
-0,00122315043607902;
-0,0020677985211409;
-0,00288677966979234;
-0,00460816439129725;
-0,00492622915829005;
-0,00591885656711928;
-0,00605616134882492;
-0,00632476002569959;
-0,00708288909804514;
-0,00786452914160987;
-0,00910341254636712;
-0,00984678254090521;
-0,010073704923778;
-0,0097214606931328;
-0,00893294681891539;
-0,00825510174155;
-0,00770519891501541;
-0,00734396492920975;
-0,00694624107476041;
-0,00635511163610978;
-0,00566912165124975;
-0,00499735392279166;
-0,00450253463718232;
-0,00412526346891302;
-0,00369144417884377;
-0,00308157046567529;
-0,00233465354163728;
-0,00170885539221436;
-0,00145647046497424;
-0,00163916184915116;
-0,00203974324286546;
-0,00227449473350457;
-0,00205588063702191;
-0,00136009245142325;
-0,000428511493656646;
0,000423468206094912;
0,00102432895096661;
0,00142384283715154;
0,00180075237248174;
0,00227905317556046;
0,00282315535632;
0,00328721374806644;
0,00356371132756064;
0,00369529990141809;
0,00384102106818591;
0,00412582386644952;
0,00450211760469511;
0,00475183013251072;
0,00464350880619835;
0,00412537749119792;
0,00340015879590955;
0,00281293336674756;
0,00263004309367661;
0,0028726488504804;
0,00332553386020963;
0,00370675002575994;
0,00386233369800939;
0,00384046741047836;
0,00380316363906917;
0,00386406520444939;
0,00399257928660288;
0,00405834411555451;
0,00396625629704969;
0,00375554009778555;
0,00357035838361353;
0,0035237888650321;
0,0035736084206366;
0,00352466843788718;
0,0031697121923903;
0,00246299030196976;
0,00158687105971631;
0,000851037677007719;
0,000494233799608757;
0,000535176539977297;
0,000780904747341567;
0,000978845223845727;
0,000991131272520909;
0,000860751565130892;
0,000732308359603359;
0,000706992087821096;
0,000757012823356776;
0,000765515200668799;
0,000647201174109967;
0,000436635087678273;
0,000261868325156103;
0,000223070390383042;
0,000281938535390784;
0,000264036068918194;
-1,56617238778136E-5;
-0,000598293619749247;
-0,010655543853326;
-0,0245421179303412;
-0,0185304909839095;
-0,011475573700734;
-0,0139081450823576;
-0,00849763969230594;
-0,0069983518993876;
-0,00596007760338321;
-0,00222589231842216;
-0,00233100548884987;
4,81336841288383E-5;
0,000971442868642047;
0,00179792729698061;
0,00347537073851352;
0,00377220531885489;
0,00482421554655078;
0,00507882415559628;
0,0054207889787992;
0,00610039113532554;
0,00662735814953808;
0,00752909016759354;
0,00801209873128775;
0,00817789181177549;
0,00797260977864176;
0,00743899585718625;
0,00699332968938927;
0,00658141860459406;
0,00628555559905629;
0,00595428648402745;
0,00548204198829368;
0,00495257039849111;
0,0044146173846372;
0,00398684789328739;
0,00362716500068427;
0,00322651253439614;
0,0027161115047861;
0,00211504741868161;
0,00159227995147436;
0,00130570029021159;
0,00129593017895461;
0,0014278890350829;
0,00145719803980495;
0,00120332462456267;
0,000650170100097633;
-4,83019212652428E-5;
-0,000690599824427945;
-0,00116735532485827;
-0,00150934853917208;
-0,00183094836100272;
-0,00221131605112116;
-0,00262761824521772;
-0,00298633708852001;
-0,00321806374152084;
-0,00335020770217089;
-0,00348515102736888;
-0,00370367971211501;
-0,00397536625474985;
-0,00415931524428654;
-0,00410564478662776;
-0,00378052127129915;
-0,00331533603399719;
-0,00293444585049317;
-0,0028115941850458;
-0,00296125240981436;
-0,00324365729301039;
-0,00347506604946963;
-0,00355495811032369;
-0,00351495789680927;
-0,00346146118629392;
-0,00346940123294006;
-0,00351908469402745;
-0,00352506096186122;
-0,0034248558367535;
-0,0032444610542323;
-0,00307928589154687;
-0,00300445633109609;
-0,0029924359283954;
-0,00291416106960844;
-0,00263212149521797;
-0,0021157595426406;
-0,00148626918442976;
-0,000950048052876709;
-0,000666747880270823;
-0,000649458014935267;
-0,000769677732544775;
-0,000858594681742539;
-0,000823841914274689;
-0,000694244977604704;
-0,000567041655762714;
-0,000510515960404326;
-0,000506180270022326;
-0,000475346606251858;
-0,000360400063947961;
-0,000184656334983749;
-3,48436371437636E-5;
2,09678529104536E-5;
8,57879417419814E-6;
4,64835347986646E-5;
0,000260772153406104;
0,000679822671387014;
0,0011935853315308;
0,00161444988055971;
0,00179760589873816;
0,00173190908948436;
0,00153515867139086;
0,00136172317769896;
0,00129624957153246;
0,00131306199596783;
0,00132430187505511;
0,00126849933688429;
0,00116305687390671;
0,00108000584697424;
0,00107215476391632;
0,00111880473963703;
0,0011417432984328;
0,00107973386234854;
0,000956653148832885;
0,000880301153512503;
0,000965218649669914;
0,00123735252331727;
0,0015973410226655;
0,00187574568356862;
0,00194197152289441;
0,00178633402283059;
0,00151562314658699;
0,00126952365412263;
0,00112462455106564;
0,00105787343746884;
0,000990134909232425;
0,000866121025711708;
0,000701654830663933;
0,000561730815630993;
0,000493946100560508;
0,000479665959001379;
0,00044850979197117;
0,000345418650123303;
0,00019188863461144;
8,47920737011362E-5;
0,000126939869337505;
0,000341472973380732;
0,000639024361457739;
0,000867432357963243;
0,000909510189992826;
0,000756564965836037;
0,000504271483737127;
0,000277666609630445;
0,000145169085290246;
8,59545899701849E-5;
2,90464884708059E-5;
-7,51429908689672E-5;
-0,000212600410567162;
-0,000325402469646433;
-0,000371225175588186;
-0,000366911397870594;
-0,000375458478140891;
-0,000446133801775525;
-0,000559904381147563;
-0,000630586782078472;
-0,000566796647804343;
-0,000348179619091391;
-5,45332930296237E-5;
0,000178564277129195;
0,000246775636121362;
0,000142306697194593;
-4,9897053145389E-5;
-0,000218892481062426;
-0,000304097179596998;
-0,000324163718212698;
-0,000342196964752166;
-0,00040227115376704;
-0,000492055533426465;
-0,000560338029875169;
-0,000569764591485241;
-0,000535369684920784;
-0,000512987765656048;
-0,000546248651066324;
-0,000618372986006289;
-0,000653279923076051;
-0,000570372332830818;
-0,000351817398492011;
-6,81401640158721E-5;
0,000161031782619953;
0,000243732768164574;
0,000173141358971292;
2,41038758867168E-5;
-0,000105723641552732;
-0,000163076177959613;
-0,000164399205433935;
-0,000165177507367253;
-0,0002041166058198;
-0,000270358145096917;
-0,000318934752754552;
-0,000317079858782231;
-0,000277985747661979;
-0,0002505759948361;
-0,000273026895444378;
-0,000330588037891377;
-0,000356637341906101;
-0,000280676387639297;
-8,71469779973618E-5;
0,000162296772301566;
0,000363191503638915;
0,000435333002479731;
0,000372882329482823;
0,000241215708308789;
0,000125518427421925;
7,22213726902181E-5;
6,702196214595E-5;
6,16687326911021E-5;
2,25566607896468E-5;
-4,08036305745561E-5;
-8,92845129881937E-5;
-9,43990912191528E-5;
-6,75766584933803E-5;
-5,12230008344304E-5;
-7,83769607991331E-5;
-0,000136183719720797;
-0,00016688930249776;
-0,000109457485306811;
4,95488604912426E-5;
0,00025679686622312;
0,000422026401107373;
0,000476032121835693;
0,000413871680840254;
0,000292036042000961;
0,000184025834922119;
0,000129864988446574;
0,000117234972180154;
0,000104617883869982;
6,31424175307865E-5;
1,02960941515386E-6;
-4,8072292788349E-5;
-5,96969018327526E-5;
-4,36596400036688E-5;
-3,63257675669943E-5;
-6,59860046671094E-5;
-0,000121589293166175;
-0,000153671437172572;
-0,000110030370573336;
2,07705902647621E-5;
0,000193104356513532;
0,000329873204216335;
0,000372046251982331;
0,000315469370992296;
0,000208345649771226;
0,00011329981557415;
6,43832913078008E-5;
5,10869480291726E-5;
3,81007815087132E-5;
9,04813635461743E-7;
-5,35063939729588E-5;
-9,65849587495137E-5;
-0,00010760960473616;
-9,49274665365186E-5;
-8,93451379959202E-5;
-0,000114792469002288;
-0,000161909956206047;
-0,000188908467267727;
-0,000151754688145382;
-4,08692178313398E-5;
0,000105214942538024;
0,000221517766096094;
0,000258364325175353;
0,000212306636410959;
0,000123900550924215;
4,57501522531019E-5;
6,40561175010136E-6;
-2,98348709183249E-6;
-1,20267083078116E-5;
-4,12527762255023E-5;
-8,47997861015615E-5;
-0,000118805945021011;
-0,000125987290054659;
-0,000113342718813837;
-0,000106580787154675;
-0,000125634577103786;
-0,000162694906289831;
-0,000182999947247138;
-0,000149988645113054;
-5,57715115892735E-5;
6,76182421117601E-5;
0,000166288804809571;
0,000199120917907509;
0,00016331352515986;
9,24408404718133E-5;
2,99646516997031E-5;
-5,75781696629789E-7;
-6,50691877492385E-6;
-1,22304138007495E-5;
-3,46288415287038E-5;
-6,88648374381227E-5;
-9,53359764446429E-5;
-9,98771422413468E-5;
-8,82487830529091E-5;
-8,15112755355999E-5;
-9,59547621300648E-5;
-0,000125171851429511;
-0,00014077740891007;
-0,000112985979523131;
-3,54288810599379E-5;
6,57729153944336E-5;
0,000146797290419879;
0,000174290288359362;
0,000146041572026887;
8,93036804794318E-5;
3,92643089204628E-5;
1,493448387408E-5;
1,03759123192565E-5;
5,90581619049546E-6;
-1,20556462404122E-5;
-3,95926245552689E-5;
-6,09461627762292E-5;
-6,47617993285854E-5;
-5,56752994059109E-5;
-5,05468506990733E-5;
-6,23769313086607E-5;
-8,60200740104854E-5;
-9,88362111758165E-5;
-7,71400877006141E-5;
-1,59263904681362E-5;
6,40126601452563E-5;
0,000127920467230069;
0,000149428788039168;
0,00012685678427652;
8,17733305102961E-5;
4,19322427240021E-5;
2,22793519638046E-5;
1,81242210545783E-5;
1,40189398422773E-5;
-6,55044762436718E-7;
-2,28099350256106E-5;
-4,01326055482197E-5;
-4,37867121838781E-5;
-3,74008023094126E-5;
-3,4076331219299E-5;
-4,38728347992489E-5;
-6,27766779377816E-5;
-7,32862564135836E-5;
-5,71681568086558E-5;
-1,06340629571801E-5;
5,02822633581775E-5;
9,89138050785646E-5;
0,000115120688375638;
9,76892996451941E-5;
6,31178917866238E-5;
3,25339905233519E-5;
1,72614032906865E-5;
1,3719031955059E-5;
1,02247270003626E-5;
-1,20975967073578E-6;
-1,82365288551676E-5;
-3,16074990644095E-5;
-3,47248975666124E-5;
-3,03244753082611E-5;
-2,81740876759424E-5;
-3,57276806742201E-5;
-4,99788686542093E-5;
-5,79830314807177E-5;
-4,63376094835519E-5;
-1,23316415219231E-5;
3,22131560688102E-5;
6,77855923015496E-5;
7,97507228809439E-5;
6,73041332829065E-5;
4,24608589614679E-5;
2,04948463036326E-5;
9,53205150195266E-6;
6,96959453042512E-6;
4,445010041149E-6;
-3,71349787892405E-6;
-1,58120796353913E-5;
-2,53032193897038E-5;
-2,75599447569902E-5;
-2,45324660471632E-5;
-2,30575510736309E-5;
-2,83002713671266E-5;
-3,8140917707917E-5;
-4,3637538646042E-5;
-3,56271918136505E-5;
-1,23422978812033E-5;
1,80907230473168E-5;
4,24331253700412E-5;
5,08716181290438E-5;
4,29584633963314E-5;
2,67839284562055E-5;
1,25015862186787E-5;
5,44241553553703E-6;
3,85935238676134E-6;
2,28969873058704E-6;
-2,9165881612213E-6;
-1,06368812831976E-5;
-1,66786759926851E-5;
-1,81318433759715E-5;
-1,62609499377927E-5;
-1,53497863720351E-5;
-1,85715532364721E-5;
-2,45783056495824E-5;
-2,79078267106354E-5;
-2,30796828735905E-5;
-9,14313955671347E-6;
0,00934241946079459;
0,022653240116699;
0,0164015362808544;
0,00945780840175457;
0,0121853321966541;
0,00703437246805424;
0,00563923762401258;
0,00458629076989014;
0,000843229817306924;
0,00103235596757381;
-0,00119452793752754;
-0,00199921806359176;
-0,00281527346287068;
-0,0045610555742218;
-0,00489438783669429;
-0,00586456176120864;
-0,00595270268523922;
-0,00619555383557321;
-0,00700466073710356;
-0,00792599330051999;
-0,00934672987946192;
-0,010234755066665;
-0,0105079113659818;
-0,0100988778855269;
-0,00920058032640126;
-0,00842546196877133;
-0,00782668920464798;
-0,00745402827095996;
-0,00704493891716277;
-0,00641633294300397;
-0,00567411342112958;
-0,00495795548799604;
-0,00445299145277123;
-0,00409092034797336;
-0,00366423563612664;
-0,00302724981770797;
-0,00222908531527579;
-0,0015738201831079;
-0,00136253970823444;
-0,00166785493861973;
-0,00222997665050976;
-0,00259262197897316;
-0,00241231581454424;
-0,00166107038576286;
-0,000625972645571819;
0,000317785070740926;
0,000965945557172803;
0,00137829382489032;
0,00176766392667638;
0,00228190454693153;
0,00287872020126746;
0,00338441147324257;
0,00367108038136349;
0,00378949742477163;
0,00392910777079431;
0,00423866931555625;
0,004661401698654;
0,00493752506648926;
0,00479129991044453;
0,00416104615221748;
0,00328817969173193;
0,00258362183115032;
0,00236443931152419;
0,00265557552631406;
0,00320040293108336;
0,00366282810907691;
0,00385926907098246;
0,00384698966647684;
0,00381885292430731;
0,00391007429233499;
0,00408400374540849;
0,00418512357696316;
0,00409994097645667;
0,00387502741941419;
0,00368199316688989;
0,00365539512483427;
0,0037447245001417;
0,00371724848805766;
0,00332582918369136;
0,00251582380203642;
0,00150445531441333;
0,000660663757083766;
0,000268816407705895;
0,000351023985515243;
0,000677105114413738;
0,000945850338499968;
0,000992807486473695;
0,000869126434195204;
0,000747092326300646;
0,000747239489795321;
0,00083634335051721;
0,000875006580523173;
0,000761465352327755;
0,000536869588208238;
0,000353837626046467;
0,000331749279006295;
0,000424884608860489;
0,000425208958046463;
0,000112070703380423;
-0,000563598850089765;
-0,0107423567190289;
-0,0247260278025909;
-0,0187463993847799;
-0,0116553679410352;
-0,0140168918410136;
-0,00854373363648577;
-0,00701385772907895;
-0,00596979495173529;
-0,00222999691789154;
-0,00231248053641755;
0,000101464623077045;
0,00105172280766726;
0,0018826760132749;
0,00354795522531271;
0,00383778836906942;
0,00490498948425893;
0,00519039505214675;
0,00554898386152203;
0,00619948196134697;
0,00664460332010853;
0,00743930099759092;
0,00783686284866266;
0,00797476438767786;
0,00780179979220285;
0,00733139582692621;
0,0069415737685665;
0,00655725242017435;
0,00626713331561425;
0,00594146879618103;
0,00548983282352646;
0,00499170139352683;
0,00447817684083376;
0,00405505499000085;
0,00368538389241585;
0,00327926925635443;
0,00278289149515895;
0,0022095425385161;
0,00170203186472226;
0,0013905611087856;
0,00130960732213334;
0,00134825324591784;
0,00130311218741717;
0,0010251510333966;
0,000500588801595348;
-0,00014226616183912;
-0,000735380868656088;
-0,0011876431686738;
-0,00152423258484891;
-0,00184056544082329;
-0,00220259171612648;
-0,0025912103976122;
-0,00292828872936611;
-0,00315563050986719;
-0,0032961605728609;
-0,00343557885389477;
-0,00364165866909061;
-0,00388901627738669;
-0,00405948859568591;
-0,00402724571144951;
-0,00376378157693023;
-0,00337950987727364;
-0,00306322808981833;
-0,00296137331536566;
-0,00308641114884923;
-0,00332079527249683;
-0,00350973800731256;
-0,00356850619357527;
-0,00352388008003325;
-0,00346588126564294;
-0,00345803878822621;
-0,00348388447117579;
-0,00347123898131841;
-0,00336729131438001;
-0,00319416561135257;
-0,00303290544630379;
-0,00294744112251294;
-0,00291457862240394;
-0,0028247964611706;
-0,00256124363844345;
-0,00209792939074553;
-0,001538040424012;
-0,00105747697271977;
-0,000792488718388309;
-0,000754448581832749;
-0,000833872686504012;
-0,000886715096702849;
-0,000834101741515292;
-0,000700717776092257;
-0,000569822418935351;
-0,000499973379223112;
-0,000475437297693573;
-0,000428836490407505;
-0,000310783051645243;
-0,000141298216620964;
5,10810395947651E-6;
6,987802140096E-5;
7,51191799904674E-5;
0,000122736299870495;
0,000321298155525891;
0,000695317680773645;
0,00115000456099572;
0,00152356692975636;
0,00169098929815335;
0,00164257649315352;
0,00148006433898385;
0,00133691894012672;
0,00128640955179987;
0,00130635094442017;
0,00132065489103202;
0,00127603196415888;
0,00118756386931554;
0,00111777620110554;
0,00111257107209991;
0,00115401603770537;
0,00117414207697565;
0,00111967767241581;
0,00101140311054299;
0,000943239755904445;
0,00101508676635883;
0,00124966882990875;
0,00156036228719618;
0,00179925647564003;
0,0018522452248971;
0,00171084815630918;
0,00146849624804644;
0,00124750843926247;
0,00111503096429743;
0,00105090743195251;
0,000985753850430161;
0,000871050193583817;
0,000720694984268694;
0,000591824889766672;
0,000526335929392481;
0,000507877731462168;
0,000474511788101638;
0,000377733758211726;
0,000236487437214496;
0,000136236652113479;
0,000167773172617265;
0,000351600705166516;
0,000608795615542073;
0,000804821051535971;
0,000835972927169421;
0,000694539859115628;
0,00046529466967119;
0,000259120155199866;
0,000136748799331432;
7,97128897195882E-5;
2,49563044177146E-5;
-7,16210214030343E-5;
-0,000197570510535297;
-0,000301333369743751;
-0,000345195046579276;
-0,000344150387995639;
-0,000354384498917829;
-0,000419885564766559;
-0,000523680407578447;
-0,000588761106325825;
-0,00053339288828484;
-0,000339330311197905;
-7,79991155260674E-5;
0,000129125490555745;
0,000188477126000566;
9,30423543369464E-5;
-8,09210493303362E-5;
-0,000233730665712729;
-0,000310908489948373;
-0,000329235763008349;
-0,000345543827212116;
-0,000399570153158017;
-0,000480225094597235;
-0,000541318828223454;
-0,000549125992010564;
-0,000517224759388905;
-0,000496100110579565;
-0,000525246706385201;
-0,000589502964253213;
-0,000619961436128604;
-0,000543551014283033;
-0,000344074446101683;
-8,55396852260449E-5;
0,000123376286234722;
0,000199052751342872;
0,000135268889829828;
1,62094498209513E-7;
-0,000117287491005297;
-0,000168506567480461;
-0,00016850228238407;
-0,000167955207243266;
-0,000202260349078054;
-0,000261511586988061;
-0,000304567529097724;
-0,000301416647901487;
-0,000264143749215183;
-0,000237624786359629;
-0,00025691856720669;
-0,000308499216834493;
-0,000331138242223349;
-0,000259976316779337;
-8,06703162902982E-5;
0,000149996240895665;
0,000335713346490042;
0,000402469501219725;
0,000344866138865781;
0,000223323395889965;
0,000116639733268996;
6,78049269350738E-5;
6,35717053563452E-5;
5,91934573805917E-5;
2,3468583236231E-5;
-3,4789116640243E-5;
-7,92212763935608E-5;
-8,33247079529854E-5;
-5,77290671795475E-5;
-4,19408817222006E-5;
-6,67787314956183E-5;
-0,000120265669846476;
-0,00014847334597257;
-9,43430257673516E-5;
5,47175988701979E-5;
0,000248797971283586;
0,000403331659036108;
0,00045341408877846;
0,000394401829340094;
0,000279368040551053;
0,000177434887695429;
0,000126282079557863;
0,000114310832240178;
0,000102369815363128;
6,31969356225773E-5;
4,54012659055388E-6;
-4,1796980588836E-5;
-5,26571188839629E-5;
-3,73251247766042E-5;
-3,02702229003291E-5;
-5,8346287995677E-5;
-0,00011107746363941;
-0,000141457176236164;
-9,98118169549942E-5;
2,47734290046234E-5;
0,000188832445412379;
0,000318819759093648;
0,00035835855291135;
0,000303469875214262;
0,000200275415903536;
0,000108765797850285;
6,16006232207214E-5;
4,86995788757755E-5;
3,61323108825197E-5;
2,9984434449965E-7;
-5,20823910270494E-5;
-9,35103839256296E-5;
-0,000103988087030131;
-9,15646835338664E-5;
-8,60179334419428E-5;
-0,000110517640605759;
-0,000156018018726422;
-0,000182006704277378;
-0,000145728647632393;
-3,78475680618365E-5;
0,000104177958877144;
0,000217076065144702;
0,00025240826345706;
0,000206794592988869;
0,000119857560755744;
4,3065291281265E-5;
4,3938316416163E-6;
-4,82775321004574E-6;
-1,36753071222199E-5;
-4,23460720830369E-5;
-8,50910070626929E-5;
-0,000118406734366618;
-0,000125234986158266;
-0,000112475484261809;
-0,000105548731840247;
-0,000124205530352799;
-0,000160727205040792;
-0,000180621578129679;
-0,000147540172322452;
-5,35988854437283E-5;
6,93189979119811E-5;
0,000167461322585407;
0,000199739878848337;
0,000163329877340284;
9,1845951898224E-5;
2,88842763285814E-5;
-1,89690316717067E-6;
-7,85546257076733E-6;
-1,357501890172E-5;
-3,61050518664246E-5;
-7,0580399603457E-5;
-9,71780299368354E-5;
-0,000101536829937135;
-8,9485634605553E-5;
-8,242101567358E-5;
-9,69373641588806E-5;
-0,000126529863718342;
-0,000142235912034209;
-0,000113586817532964;
-3,40193108439049E-5;
0,00940315412813978;
0,0227823635806743;
0,0165531257770479;
0,00958376887251845;
0,0122609848380438;
0,00706570026134483;
0,0056490182596991;
0,00459216230539761;
0,000845325351837047;
0,00101855088237216;
-0,00123292667452064;
-0,00205660335094609;
-0,00287556808379348;
-0,00461235303391565;
-0,00494041145068953;
-0,00592128390797971;
-0,00603138065942966;
-0,0062859968852627;
-0,00707388624848592;
-0,0079359046286843;
-0,00927912836356069;
-0,0101053322614465;
-0,0103584898972577;
-0,00997325103745257;
-0,00912122928597038;
-0,00838697708926928;
-0,00780839075122727;
-0,0074399062170215;
-0,00703488189397215;
-0,00642135470927589;
-0,00570210681932562;
-0,00500383426382183;
-0,0045021720098674;
-0,00413260046378002;
-0,00370177654479188;
-0,00307510526380196;
-0,0022974338632043;
-0,00165342184812307;
-0,00142353130311103;
-0,00167575057760956;
-0,00216828399709153;
-0,00247547873470056;
-0,00227746538043777;
-0,00154803371252818;
-0,000555031871623164;
0,000351513133397735;
0,000981115412637629;
0,00138934968932057;
0,00177472400500865;
0,00227506848307926;
0,00285090083554201;
0,00334020503628738;
0,00362362704201464;
0,0037485348898272;
0,00389164055452794;
0,00419173554633661;
0,00459588221118397;
0,00486173777475107;
0,00473207142180633;
0,00414934718616396;
0,00333884102688053;
0,00268401442849984;
0,00248078093905274;
0,00275249054585529;
0,0032597380379502;
0,00368894816732174;
0,00386885562125613;
0,00385295883567986;
0,00382131763249139;
0,00390019892268961;
0,00405546643107582;
0,00414203142734705;
0,00405402296550533;
0,00383497614134799;
0,00364514889823734;
0,00361021774654367;
0,00368309826215259;
0,00364658366633728;
0,00327000754383919;
0,00250241156647158;
0,00154666445031952;
0,000747297135774901;
0,000369881619491102;
0,000435111124576152;
0,000728088665517262;
0,000967581262200375;
0,00100005816944486;
0,000873331450597967;
0,000748343466490259;
0,000737705383938734;
0,000810419570768283;
0,000836317235132413;
0,000720375054244445;
0,000501057712987671;
0,000320951897995391;
0,000291594844640437;
0,00037029159568286;
0,000362709942030016;
6,27274077416659E-5;
-0,000575476850009719;
-0,0107051105215162;
-0,0246495003092358;
-0,0186569832907398;
-0,0115807060880621;
-0,0139711861231585;
-0,00852362562414318;
-0,00700639262635369;
-0,00596494860679301;
-0,0022277006586066;
-0,00231961543574458;
7,99725587834619E-5;
0,00101903831339927;
0,00184786978629847;
0,00351774622444528;
0,00381011503195337;
0,00487093014266934;
0,00514367521449812;
0,00549530731860102;
0,0061572464530886;
0,00663504299588441;
0,00747260914680519;
0,00790447588935048;
0,0080536877494299;
0,00786794646969595;
0,00737238193675873;
0,00696029931268061;
0,00656496616657951;
0,00627253706064747;
0,00594461443404672;
0,00548473794758557;
0,00497408282735221;
0,00445077280561686;
0,00402572588625001;
0,00365995178169118;
0,00325595005570979;
0,00275396256449235;
0,00216957375620808;
0,00165595491092809;
0,0013542820735391;
0,00130148365753631;
0,00137710903870636;
0,00136158360057674;
0,00109342515105641;
0,000557907500399332;
-0,000106582351395315;
-0,000718854400751762;
-0,00118061284891187;
-0,0015192261438887;
-0,00183754257461593;
-0,0022066930139872;
-0,00260611616620757;
-0,00295165472075202;
-0,00318072055195559;
-0,00331798506704424;
-0,00345566141466428;
-0,00366660439161175;
-0,0039234680165859;
-0,00409923054798576;
-0,0040586857837726;
-0,00377123399248514;
-0,00335542240754329;
-0,00301385201607;
-0,0029035702628779;
-0,0030378514833834;
-0,0032905766796064;
-0,00349577205676122;
-0,00356260010181574;
-0,00351969865638258;
-0,0034633943518412;
-0,00346160794313075;
-0,00349663227150359;
-0,00349118515232102;
-0,00338873853320485;
-0,00321289368718215;
-0,0030501983935418;
-0,00296887360701851;
-0,00294406804477653;
-0,00285878802188854;
-0,00258827963850717;
-0,00210478809117073;
-0,00151834418176138;
-0,00101645608435854;
-0,000744291287953002;
-0,000713905664937871;
-0,000808627411671573;
-0,000875036160902514;
-0,000829145267179163;
-0,000697193238223761;
-0,000567709776294275;
-0,00050292018339834;
-0,000486055297108371;
-0,00044547994454429;
-0,000328707855119616;
-0,000156990462267587;
-9,41761676401023E-6;
5,18862303561469E-5;
5,04067443383235E-5;
9,42521814440503E-5;
0,000298546572676583;
0,000689265450796764;
0,00116595281044423;
0,00155721470131106;
0,0017306637032557;
0,0016760369500879;
0,00150099512107508;
0,00134672664871325;
0,00129070922600018;
0,00130948142558644;
0,0013226268210698;
0,00127384765842468;
0,00117907644111149;
0,00110432706821566;
0,00109803731566631;
0,00114126906056159;
0,00116231333839102;
0,00110498985706155;
0,000991203311437357;
0,000919926905489885;
0,000996392075721746;
0,00124451254400944;
0,00157306731940649;
0,00182636169091698;
0,00188431839747748;
0,00173799426738696;
0,001485602277579;
0,0012556890855404;
0,00111879160807168;
0,00105372767965958;
0,000987636492222594;
0,000869585119374274;
0,000714155767485985;
0,000581279075126038;
0,000514878980230671;
0,000497801894117053;
0,00046512662802917;
0,000366032838108925;
0,000220360232431285;
0,000117587301846844;
0,000152737076908303;
0,000347255900508275;
0,00061858348785264;
0,000826033449653867;
0,000861189826364197;
0,000715973215127008;
0,00047891279325465;
0,000265777901224926;
0,000139958034257984;
8,21840566115203E-5;
2,6685959507244E-5;
-7,25158595189837E-5;
-0,000202438888322411;
-0,000309352018094513;
-0,000353967223503281;
-0,000351901560043279;
-0,000361645780690092;
-0,000428974300793133;
-0,000536222204840477;
-0,000603293250574893;
-0,000545204479990321;
-0,000342987997113687;
-7,08495945926126E-5;
0,00014504320422044;
0,000207534641459648;
0,000109328269626117;
-7,0474438336699E-5;
-0,000228497846732117;
-0,000308259643838712;
-0,000327143251901341;
-0,000344016067177042;
-0,000400021414243742;
-0,000483668742668061;
-0,000547147744090321;
-0,000555562867696158;
-0,000522954082780011;
-0,000501511937475975;
-0,00053204793390969;
-0,000598889605246822;
-0,000630861356952667;
-0,000552514058859761;
-0,000347123106857508;
-8,07194663716162E-5;
0,000134615316196335;
0,000212663015979885;
0,000146995469836746;
7,7889517235688E-6;
-0,000113335469018715;
-0,000166375684076009;
-0,000166765696343788;
-0,000166625338277928;
-0,000202338574776924;
-0,000263715479948407;
-0,000308479574936792;
-0,000305803768569881;
-0,000268093808165573;
-0,000241404235498559;
-0,000261698626544282;
-0,000315098904503773;
-0,000338827876574138;
-0,000266411272964877;
-8,31499351932692E-5;
0,000152812334607855;
0,000342888246263926;
0,000411337012167705;
0,000352619526152116;
0,000228491947148942;
0,0001194746716333;
6,94837348305062E-5;
6,49977733755754E-5;
6,03512346331085E-5;
2,37169015772266E-5;
-3,59096786293597E-5;
-8,14578101862376E-5;
-8,59175083773401E-5;
-6,01169408316115E-5;
-4,42830416083279E-5;
-6,9781019304351E-5;
-0,00012441954546435;
-0,000153346277530547;
-9,85499750380182E-5;
5,27687554778893E-5;
0,000249913260516239;
0,0004070164665676;
0,000458196694453319;
0,000398728431889369;
0,000282413543617561;
0,000179302022090386;
0,000127565612084809;
0,000115463094961646;
0,000103372971632775;
6,37207886251997E-5;
4,34824293290217E-6;
-4,25929167749415E-5;
-5,37045461768028E-5;
-3,83647588488957E-5;
-3,13692329254644E-5;
-5,98106452922241E-5;
-0,000113117121950067;
-0,000143894477098691;
-0,000102085201998;
2,33044999977495E-5;
0,000188514165151309;
0,000319534099631124;
0,000359654560391546;
0,000304865164048773;
0,000201497752910258;
0,000109792697781817;
6,25308863911078E-5;
4,96016437162349E-5;
3,69868364130801E-5;
1,04192871213089E-6;
-5,14988174428975E-5;
-9,30932101372698E-5;
-0,000103730540849867;
-9,14639565200537E-5;
-8,60631754956095E-5;
-0,000110675556036673;
-0,000156259657862225;
-0,000182370187215594;
-0,00014635004543705;
-3,88927758024577E-5;
0,000102664310152212;
0,000215292071283233;
0,00025076355493199;
0,000205710743461606;
0,00011952956973572;
4,33667625306331E-5;
5,00738426101302E-6;
-4,15580048368061E-6;
-1,29651302740987E-5;
-4,14393601986846E-5;
-8,38735318091582E-5;
-0,000116986113307204;
-0,000123893882256431;
-0,000111425827664163;
-0,000104714542110966;
-0,000123269898063346;
-0,000159461402481404;
-0,000179243671235866;
-0,000146768439539099;
-5,42725100190159E-5;
6,68279682389221E-5;
0,000163611899222225;
0,000195655714038245;
0,000160183240760377;
9,02206130237638E-5;
2,85692401938597E-5;
-1,56240053937793E-6;
-7,39087110629224E-6;
-1,30007937309347E-5;
-3,50781373481245E-5;
-6,88537797876152E-5;
-9,49410102837124E-5;
-9,93101584534607E-5;
-8,76579598105727E-5;
-8,08629672746756E-5;
-9,50991138484861E-5;
-0,000124018565630873;
-0,000139416990155192;
-0,000111655725175924;
-3,4367327440649E-5;
6,64513031914515E-5;
0,000147114150273348;
0,00017432273117132;
0,000145844557799799;
8,89037611907431E-5;
3,87042669301698E-5;
1,42948376946599E-5;
9,73411830863531E-6;
5,27501237722681E-6;
-1,27309382739982E-5;
-4,03609732724071E-5;
-6,17635489614501E-5;
-6,5495482224085E-5;
-5,62185041366533E-5;
-5,09435344180989E-5;
-6,28136418724112E-5;
-8,66424537335585E-5;
-9,95196295176383E-5;
-7,74304406821157E-5;
-1,52656597289627E-5;
6,58923914127502E-5;
0,000130722540161827;
0,000152374844207442;
0,000129106682949128;
8,2893545942596E-5;
4,20715269622382E-5;
2,19322877296104E-5;
1,76880342374874E-5;
1,35083182014529E-5;
-1,51512056571826E-6;
-2,42248451461315E-5;
-4,19583863142175E-5;
-4,56041747411975E-5;
-3,88912746304082E-5;
-3,53480742753083E-5;
-4,53914117839667E-5;
-6,48833524916834E-5;
-7,56782567238592E-5;
-5,88189853462375E-5;
-1,03263205154287E-5;
5,31336744044594E-5;
0,000103750960273583;
0,000120460840430195;
0,000101955072403632;
6,54963768521318E-5;
3,32598812803859E-5;
1,71682890192041E-5;
1,34658239454768E-5;
9,82703617114149E-6;
-2,2069701722862E-6;
-2,01672386378922E-5;
-3,42464448216683E-5;
-3,74193127175147E-5;
-3,25829301396207E-5;
-3,01571009322354E-5;
-3,81277636880431E-5;
-5,32963434643145E-5;
-6,17705420385384E-5;
-4,91041746638324E-5;
-1,23248686097064E-5;
3,58363501786673E-5;
7,42575264430031E-5;
8,70209082712531E-5;
7,32007659102221E-5;
4,5864704505179E-5;
2,17085471835505E-5;
9,66047924940829E-6;
6,88095226811274E-6;
4,15530713194396E-6;
-4,80361397570603E-6;
-1,81396960841721E-5;
-2,85785432005754E-5;
-3,09442526222363E-5;
-2,73968146675194E-5;
-2,56038694797912E-5;
-3,14011374610076E-5;
-4,24227822826785E-5;
-4,85386251106879E-5;
-3,92890737595603E-5;
-1,25894560965706E-5;
2,2306062627252E-5;
5,01796640403608E-5;
5,96537278578613E-5;
5,01380844037076E-5;
3,10011187483833E-5;
1,41109260908664E-5;
5,75947758664621E-6;
3,91476947074658E-6;
2,09945389950526E-6;
-4,06417004206735E-6;
-1,32591392759762E-5;
-2,04362295069456E-5;
-2,20425505699236E-5;
-1,95898339114293E-5;
-1,83304921285382E-5;
-2,22148619721498E-5;
-2,9607382192289E-5;
-3,36733645323035E-5;
-2,74423566176945E-5;
-9,60407653716982E-6;
1,36310753294374E-5;
3,22086007368127E-5;
3,87182601944285E-5;
3,28621501344329E-5;
2,07787981321703E-5;
1,01243889656693E-5;
4,89314668995579E-6;
3,75826945123455E-6;
2,62779048647809E-6;
-1,21340718070048E-6;
-6,9177907532334E-6;
-1,13713488533406E-5;
-1,2431177535939E-5;
-1,10444886863847E-5;
-1,03654408520163E-5;
-1,27079579156684E-5;
-1,70704773023669E-5;
-1,94756653611049E-5;
-1,59756032721047E-5;
-5,92867891550022E-6;
7,09158947782135E-6;
1,7498941872144E-5;
2,13134994468088E-5;
1,84889778174005E-5;
1,23734115893667E-5;
6,98714256235811E-6;
4,3427750021954E-6;
3,72237240399734E-6;
3,08980094673492E-6;
1,16138708030719E-6;
-1,62004932361792E-6;
-3,80545471107349E-6;
-4,46368751364585E-6;
-4,056203935283E-6;
-3,9350772402175E-6;
-5,0103420104915E-6;
-6,82511518592981E-6;
-7,85181437177606E-6;
-6,73125777633325E-6;
-3,39286377384634E-6;
8,4749065084607E-7;
4,22488263272257E-6;
5,6902877196065E-6;
5,41105237893423E-6;
4,3525382227142E-6;
3,43368261487854E-6;
2,97836591272163E-6;
2,78768655364583E-6;
2,57538807810209E-6;
2,27473448589154E-6;
1,98356953091115E-6;
1,73600484306081E-6;
1,43458956539753E-6;
1,03040278064885E-6;
6,99234910907242E-7;
7,19780211069705E-7;
1,08670032758066E-6;
1,25427682002427E-6;
3,93341511918606E-7;
-1,9067482868771E-6;
-5,05449742434786E-6;
-7,59037776015421E-6;
-8,09314752985663E-6;
-6,2167593534901E-6;
-3,00271427551167E-6;
-1,41275535961347E-7;
1,27228500288774E-6;
1,47536067959453E-6;
1,65014399180439E-6;
2,74968382877811E-6;
4,58186513130235E-6;
5,99564591003241E-6;
6,03323330454956E-6;
4,99102982055543E-6;
4,32110176330898E-6;
5,29364688534743E-6;
7,51690262933872E-6;
8,71705231440662E-6;
6,24347652379582E-6;
-7,13451208715429E-7;
-9,97554578230117E-6;
-1,74050139413753E-5;
-1,95315196987339E-5;
-1,58620172208147E-5;
-9,1011275865476E-6;
-3,09843413148387E-6;
-1,22050937502978E-7;
4,26277689057078E-7;
9,40495778040469E-7;
3,21377622527867E-6;
6,81441880683632E-6;
9,61585602422887E-6;
9,95336889263738E-6;
8,40754723459115E-6;
7,47779907054322E-6;
9,246497901364E-6;
1,30045975642505E-5;
1,50642694179992E-5;
1,12870510779054E-5;
5,39073926607846E-7;
-1,37060617942205E-5;
-2,51281517724933E-5;
-2,85898976679478E-5;
-2,34798678744308E-5;
-1,38539519286125E-5;
-5,31314816050332E-6;
-1,07517672766542E-6;
-2,49204060864821E-7;
5,38132018616153E-7;
3,75763618889996E-6;
8,78370838440079E-6;
1,27038864606957E-5;
1,32852320317234E-5;
1,1337299571071E-5;
1,02000693390007E-5;
1,26062533905644E-5;
1,7592010703931E-5;
2,03388868926927E-5;
1,55214172276566E-5;
1,74881581396281E-6;
-1,64724261718019E-5;
-3,10863349721388E-5;
-3,56326927462964E-5;
-2,94074164557425E-5;
-1,75371181960176E-5;
-7,00745008165691E-6;
-1,7851206471209E-6;
-7,4809895595671E-7;
2,47732361863976E-7;
4,20496628504641E-6;
1,03451081485103E-5;
1,51398931385069E-5;
1,59124874989924E-5;
1,3651853408967E-5;
1,23532835419137E-5;
1,5254889990532E-5;
2,11939763696505E-5;
2,44750320208639E-5;
1,88546065158561E-5;
2,74509949015964E-6;
-1,85487877430259E-5;
-3,56343462765865E-5;
-4,1035673678321E-5;
-3,39790403521244E-5;
-2,04115542424841E-5;
-8,37652540492518E-6;
-2,41088951142765E-6;
-1,21613855216111E-6;
-6,32372444868217E-8;
4,45236545435104E-6;
1,14357772156237E-5;
1,6894194008708E-5;
1,7817369885879E-5;
1,53295937415518E-5;
1,39168851035202E-5;
1,71940690940762E-5;
2,38492495308819E-5;
2,75347994975878E-5;
2,13277880335592E-5;
3,49702745370695E-6;
-2,0062528122301E-5;
-3,89748347631705E-5;
-4,50202759862149E-5;
-3,73758711647922E-5;
-2,25879818335129E-5;
-9,46857666338708E-6;
-2,96691901719496E-6;
-1,65635467323064E-6;
-3,86943045204179E-7;
4,53331046854315E-6;
1,21253268951848E-5;
1,80651056014333E-5;
1,91063142590515E-5;
1,64697385400813E-5;
1,49872481414173E-5;
1,85371810497344E-5;
2,5702148489336E-5;
2,9680142287434E-5;
2,30783113717995E-5;
4,06861514741862E-6;
-2,10462954604717E-5;
-4,12170981538168E-5;
-4,77189782726744E-5;
-3,96975991799222E-5;
-2,41047908948301E-5;
-1,02681685495582E-5;
-3,41112597436908E-6;
-2,02111843155367E-6;
-6,7066753422244E-7;
4,51965262586647E-6;
1,25147442813033E-5;
1,87758262869243E-5;
1,99054177935532E-5;
1,71869368246671E-5;
1,56718346807563E-5;
1,94033770724799E-5;
2,68967711848608E-5;
3,10677561110262E-5;
2,42358681225204E-5;
4,51684803386101E-6;
-2,15375877946926E-5;
-4,24741347881911E-5;
-4,92698328231456E-5;
-4,10545477200227E-5;
-2,50175878061798E-5;
-1,07829597623298E-5;
-3,72850392632524E-6;
-2,29234894236696E-6;
-8,93463706339768E-7;
4,44856269536157E-6;
1,2666991460203E-5;
1,91088370144951E-5;
2,02987890306025E-5;
1,75536851469899E-5;
1,60356939733298E-5;
1,98680697303381E-5;
2,7531450850934E-5;
3,18075205383732E-5;
2,488505533053E-5;
4,85851990767379E-6;
-2,16076144908736E-5;
-4,28873448334602E-5;
-4,9837308413914E-5;
-4,15849566374828E-5;
-2,5413110576974E-5;
-1,10543761320087E-5;
-3,93857220277135E-6;
-2,48576164911801E-6;
-1,0673584545604E-6;
4,32419623717812E-6;
1,26113675721196E-5;
1,91128140767577E-5;
2,03379327279545E-5;
1,76120749510341E-5;
1,61153952615766E-5;
1,99788438746288E-5;
2,76764506433779E-5;
3,19818535853433E-5;
2,50863442563534E-5;
5,0927852900578E-6;
-2,13372642870088E-5;
-4,26012248071123E-5;
-4,95859633910046E-5;
-4,14279018712596E-5;
-2,53816170010522E-5;
-1,11295626767796E-5;
-4,06697261383964E-6;
-2,62222894179072E-6;
-1,20858582874593E-6;
4,14644512574657E-6;
1,23721155183375E-5;
1,88310014072679E-5;
2,00698075454408E-5;
1,74014647552941E-5;
1,59462263145629E-5;
1,97820780135732E-5;
2,73999086585734E-5;
3,16709251552996E-5;
2,49005489975295E-5;
5,22487315752941E-6;
-2,0794165603466E-5;
-4,17412629028809E-5;
-4,86592810079149E-5;
-4,07031597939363E-5;
-2,49978184861384E-5;
-1,10434173919153E-5;
-4,12861100174448E-6;
-2,71201370619167E-6;
-1,32292542387574E-6;
3,92447769506932E-6;
1,19808299515116E-5;
1,83124977496212E-5;
1,95470188499523E-5;
1,69675862519274E-5;
1,55702272382734E-5;
1,93299166884391E-5;
2,67737684846126E-5;
3,09575840715645E-5;
2,43927783251024E-5;
5,26908755851363E-6;
-2,00306063557414E-5;
-4,04127384792225E-5;
-4,71793017210342E-5;
-3,95116125419783E-5;
-2,43220152089315E-5;
-1,08204301787198E-5;
-4,13016210417026E-6;
-2,75791131745841E-6;
-1,40944501988491E-6;
3,67244796426242E-6;
1,14716740956025E-5;
1,7607012927452E-5;
1,88221335528959E-5;
1,63564648448752E-5;
1,50297553940179E-5;
1,86735333752643E-5;
2,58668083006626E-5;
2,99201659008193E-5;
2,36250177088017E-5;
5,24117541032857E-6;
-1,90913689012052E-5;
-3,87087115774327E-5;
-4,5254661443166E-5;
-3,79432439886211E-5;
-2,34079952696906E-5;
-1,04824512891649E-5;
-4,077722941935E-6;
-2,76279790589577E-6;
-1,46791442177379E-6;
3,40225821459765E-6;
1,08743506246013E-5;
1,67580554768055E-5;
1,79410806804133E-5;
1,56080137286135E-5;
1,43613025390294E-5;
1,78572313460965E-5;
2,47390364253473E-5;
2,862718077139E-5;
2,26510537518854E-5;
5,15339232876743E-6;
-1,80185512670411E-5;
-3,67146784643015E-5;
-4,29849776528164E-5;
-3,60811491026036E-5;
-2,2306605580404E-5;
-1,00518493738577E-5;
-3,97962057235385E-6;
-2,73212939418452E-6;
-1,50100314107655E-6;
3,12168752813648E-6;
1,02125714203602E-5;
1,58017302871169E-5;
1,69422176561636E-5;
1,47553275512715E-5;
1,35950198525804E-5;
1,6918220008835E-5;
2,34417594824378E-5;
2,71376350412629E-5;
2,15169343299793E-5;
5,01497864369327E-6;
-1,68511407086017E-5;
-3,45081459968398E-5;
-4,04603147452775E-5;
-3,40007541046068E-5;
-2,10646610272399E-5;
-9,55014729119588E-6;
-3,84485274340563E-6;
-2,67226146478207E-6;
-1,51249437904077E-6;
2,83631225313366E-6;
9,50613433412787E-6;
1,47689300295102E-5;
1,58585709997578E-5;
1,38269335299462E-5;
1,27569757939316E-5;
1,58889342505063E-5;
2,20199852500963E-5;
2,55034645308023E-5;
2,02633147919265E-5;
4,83427880776767E-6;
-1,56231981801732E-5;
-3,21570786673627E-5;
-3,7759718859362E-5;
-3,17682767961834E-5;
-1,97232621849319E-5;
-8,99621874855938E-6;
-3,6812616510189E-6;
-2,58866764664979E-6;
-1,50554638397805E-6;
2,55123740406216E-6;
8,77266788162669E-6;
1,36870763421609E-5;
1,47195155695753E-5;
1,2848347630895E-5;
1,18706040550922E-5;
1,47984365630864E-5;
2,05138354683737E-5;
2,37709173431406E-5;
1,8926652776331E-5;
4,61959779481215E-6;
-1,43634023343579E-5;
-2,97197653968279E-5;
-3,49512307710864E-5;
-2,94406997744126E-5;
-1,83176261716215E-5;
-8,40601104316303E-6;
-3,49523322524489E-6;
-2,48568732920904E-6;
-1,48250190713497E-6;
2,27128952423296E-6;
8,02787125706988E-6;
1,25803746024846E-5;
1,35509745507673E-5;
1,18421804038142E-5;
1,09567398869771E-5;
1,36724512952928E-5;
1,89586107074338E-5;
2,1980615384769E-5;
1,75391520593141E-5;
4,37884414789928E-6;
-1,30957929281149E-5;
-2,72458648018832E-5;
-3,20930431013344E-5;
-2,70668281398925E-5;
-1,68779342337758E-5;
-7,79320504903181E-6;
-3,29227447609985E-6;
-2,36709592474274E-6;
-1,4454392868779E-6;
2,00052865107553E-6;
7,28512888603756E-6;
1,14695177686373E-5;
1,23751373263396E-5;
1,08278077974656E-5;
1,00332596072269E-5;
1,25330575717458E-5;
1,73846031122962E-5;
2,01674302972215E-5;
1,61285313181578E-5;
4,11902910365762E-6;
-1,18406152296829E-5;
-2,4777520206421E-5;
-2,92346691815661E-5;
-2,46883025239369E-5;
-1,54300946860273E-5;
-7,16975048344827E-6;
-3,07742481578097E-6;
-2,23647912772474E-6;
-1,39650169575834E-6;
1,74201805226885E-6;
6,55540709252953E-6;
1,0371684396321E-5;
1,12104911128318E-5;
9,82138679753803E-6;
9,11509166423647E-6;
1,13987670833623E-5;
1,58172978189307E-5;
1,83607590140155E-5;
1,47182181841191E-5;
3,84619384683864E-6;
-1,06147468812182E-5;
-2,2350054342759E-5;
-2,64177137022873E-5;
-2,23402316326701E-5;
-1,39961059501305E-5;
-6,5460050395771E-6;
-2,85527646357971E-6;
-2,0972038756475E-6;
-1,33784934712504E-6;
1,4979577214482E-6;
5,84753385370007E-6;
9,30091811812892E-6;
1,00722148907387E-5;
8,83621210243635E-6;
8,21456717504594E-6;
1,02849331728459E-5;
1,42778779522897E-5;
1,65850882852906E-5;
1,33278149684589E-5;
3,56559341198144E-6;
-9,43188204620445E-6;
-1,99924568445862E-5;
-2,36764340000821E-5;
-2,00516056848907E-5;
-1,25942476980026E-5;
-5,93071232770439E-6;
-2,62984329197557E-6;
-1,95228234256186E-6;
-1,27148793044615E-6;
1,26993413674879E-6;
5,16854028662437E-6;
8,26855768851517E-6;
8,97263062071582E-6;
7,88311635384367E-6;
7,34177247662165E-6;
9,20415076247714E-6;
1,27837341332154E-5;
1,4860545542148E-5;
1,19735406794748E-5;
3,28184400926287E-6;
-8,30276730884829E-6;
-1,77279008592779E-5;
-2,10383567829509E-5;
-1,78458078273954E-5;
-1,12393419282992E-5;
-5,3310671208671E-6;
-2,40453849097498E-6;
-1,80431499398693E-6;
-1,19920769212888E-6;
1,05904211834921E-6;
4,52390534659238E-6;
7,28356013267648E-6;
7,92152272138645E-6;
6,97074578075125E-6;
6,5048061321335E-6;
8,16655011657352E-6;
1,13488467601315E-5;
1,32033399089365E-5;
1,06685609189871E-5;
2,99896880655839E-6;
-7,23551120747972E-6;
-1,55743537202816E-5;
-1,85249783063839E-5;
-1,574118526054E-5;
-9,9431088446847E-6;
-4,75286855536418E-6;
-2,18222787356782E-6;
-1,65554254659187E-6;
-1,12261224455891E-6;
8,65933913017523E-7;
3,91770213103762E-6;
6,35273110580983E-6;
6,92638280834854E-6;
6,10575842434448E-6;
5,70994656214973E-6;
7,18001400513909E-6;
9,98410722914047E-6;
1,16261224521862E-5;
9,42325005462395E-6;
2,72039846342468E-6;
-6,23594537030664E-6;
-1,35452099863383E-5;
-1,61524706749769E-5;
-1,37516409490565E-5;
-8,71454022426377E-6;
-4,20070104265855E-6;
-1,96531000271186E-6;
-1,50790009170049E-6;
-1,0431583841372E-6;
6,90851627218298E-7;
3,35274462047458E-6;
5,48094730999315E-6;
5,99264672194854E-6;
5,29302827911426E-6;
4,96183643517389E-6;
6,25041341587312E-6;
8,69763542096721E-6;
1,01383581778685E-5;
8,24547928683773E-6;
2,44899232939374E-6;
-5,30792784913486E-6;
-1,16498546625204E-5;
-1,39323295577809E-5;
-1,18871670639795E-5;
-7,560225831039E-6;
-3,67807938461287E-6;
-1,75577234052939E-6;
-1,36304504234487E-6;
-9,62160929475952E-7;
5,33676343898477E-7;
2,83073825980792E-6;
4,67139883134077E-6;
5,12394953877871E-6;
4,53586342720068E-6;
4,26367668489278E-6;
5,3818355388225E-6;
7,49511298053247E-6;
8,7467138294397E-6;
7,14090659063213E-6;
2,18709265486777E-6;
-4,45360388247432E-6;
-9,89417830948073E-6;
-1,18719740885019E-5;
-1,01543402198624E-5;
-6,48463404018946E-6;
-3,18755019292632E-6;
-1,55521247457044E-6;
-1,22237419255368E-6;
-8,80788530485796E-7;
3,94015147040797E-7;
2,35245811626328E-6;
3,92582913068475E-6;
4,3223714992568E-6;
3,83621601038011E-6;
3,61742710307341E-6;
4,57683607964573E-6;
6,38010721905357E-6;
7,45541465110623E-6;
6,11326146556876E-6;
1,93658193274545E-6;
-3,67365629966302E-6;
-8,2810585353574E-6;
-9,97528297989954E-6;
-8,55676069185886E-6;
-5,49038687419111E-6;
-2,73081636275997E-6;
-1,3648734852378E-6;
-1,08702323149881E-6;
-8,00056552588568E-7;
2,71250096727996E-7;
1,91788854439597E-6;
3,24474769218939E-6;
3,58867717067964E-6;
3,19488915986894E-6;
3,02397935548008E-6;
3,8366493439469E-6;
5,35436709729143E-6;
6,26659110342883E-6;
5,16460250341008E-6;
1,69892061304702E-6;
-2,96752617054477E-6;
-6,81080330757012E-6;
-8,24312112502977E-6;
-7,09549069035752E-6;
-4,57852335056198E-6;
-2,30883376323278E-6;
-1,1856729360747E-6;
-9,5790501708765E-7;
-7,20841796214976E-7;
1,64589066801485E-7;
1,52636316133475E-6;
2,627635787857E-6;
2,92250812175445E-6;
2,61170599886275E-6;
2,48332509768582E-6;
3,16138159919673E-6;
4,4180851084778E-6;
5,18057462038772E-6;
4,29555950035455E-6;
1,47520485643771E-6;
-2,33363787660272E-6;
-5,48157586643819E-6;
-6,67381870812304E-6;
-5,76945422612637E-6;
-3,74873557717174E-6;
-1,92192874595175E-6;
-1,0182500869717E-6;
-8,35717581210018E-7;
-6,43884131504546E-7;
7,31049822917764E-8;
1,17666876042399E-6;
2,07310840301127E-6;
2,32257996942943E-6;
2,08567422675382E-6;
1,99469099756544E-6;
2,5501952248205E-6;
3,5701544464128E-6;
4,19619129834024E-6;
3,50554655335517E-6;
1,26618733647085E-6;
-1,76958432332954E-6;
-4,28976971520261E-6;
-5,26361359216691E-6;
-4,57579430481264E-6;
-2,99959553372203E-6;
-1,56989001697342E-6;
-8,62994413410566E-7;
-7,20977120750509E-7;
-5,69800763687569E-7;
-4,22264704932737E-9;
8,67166157016537E-7;
1,57908328613793E-6;
1,7868419612398E-6;
1,61512873320792E-6;
1,55668106195507E-6;
2,00146605548209E-6;
2,80837834744522E-6;
3,31101236908069E-6;
2,79296558361413E-6;
1,07232621044512E-6;
-1,27230608998961E-6;
-3,23035321476297E-6;
-4,00704428882066E-6;
-3,51021354743515E-6;
-2,32875543918287E-6;
-1,25205843889437E-6;
-7,20085524749015E-7;
-6,1403249188925E-7;
-4,99091561207113E-7;
-6,84822219409114E-8;
5,95874047151954E-7;
1,14292411930334E-6;
1,31264066988112E-6;
1,19786884801056E-6;
1,16739190710658E-6;
1,51294127476271E-6;
2,12969502857827E-6;
2,52159465799015E-6;
2,1553916954431E-6;
8,93823632884837E-7;
-8,3824477907627E-7;
-2,2971781017045E-6;
-2,8973067010622E-6;
-2,56726502038071E-6;
-1,73313488982043E-6;
-9,67403192888783E-7;
-5,89507546368218E-7;
-5,15087418028478E-7;
-4,32153053371941E-7;
-1,20793318356662E-7;
3,60564645636383E-7;
7,61573472347142E-7;
8,96853483626656E-7;
8,31274293986673E-7;
8,2452754091251E-7;
1,08186921401723E-6;
1,53034891487219E-6;
1,8236938760881E-6;
1,58973763463471E-6;
7,30654301851775E-7;
-4,63478477666929E-7;
-1,48325131707421E-6;
-1,92657252079063E-6;
-1,74061422069136E-6;
-1,20907227546054E-6;
-7,14600503712431E-7;
-4,71097266184557E-7;
-4,24216401920803E-7;
-3,69280542483832E-7;
-1,62287488984654E-7;
1,58836066183888E-7;
4,31664563431824E-7;
5,36013050789283E-7;
5,1241927878456E-7;
5,25494739890864E-7;
7,0512083612353E-7;
1,00606300990268E-6;
1,21245128742718E-6;
1,09240652671636E-6;
5,82609642395265E-7;
-1,43837157213606E-7;
-7,8097384206237E-7;
-1,08627222047448E-6;
-1,02328303780706E-6;
-7,52481986217828E-7;
-4,92095505605151E-7;
-3,64550728495792E-7;
-3,41380039793552E-7;
-3,10679697567678E-7;
-1,94082067611379E-7;
-1,18246793857844E-8;
1,49623439975765E-7;
2,26415190630876E-7;
2,381556887555E-7;
2,67489601566152E-7;
3,79297180905597E-7;
5,52178967934075E-7;
6,82565016554264E-7;
6,59421446052512E-7;
4,49316521893806E-7;
1,24986684549581E-7;
-1,82354035834548E-7;
-3,67334818777236E-7;
-4,0784751253917E-7;
-3,5897212894869E-7;
-2,98156255755728E-7;
-2,69459050081219E-7;
-2,66444922816278E-7;
-2,5647745709928E-7;
-2,17275224066237E-7;
-1,5398411160319E-7;
-8,82443542170548E-8;
-3,57918105766762E-8;
5,2017298670875E-9;
4,7570098354883E-8;
1,00823142928858E-7;
1,63792833631738E-7;
2,28431151255465E-7;
2,86541929147494E-7;
3,30274003890864E-7;
3,47353490039078E-7;
3,20809517936981E-7;
2,39592992814824E-7;
1,13379935473131E-7;
-2,3963738746544E-8;
-1,30936871430708E-7;
-1,85329941536817E-7;
-1,9920453150042E-7;
-2,06730407755201E-7;
-2,32914814821531E-7;
-2,70216765322028E-7;
-2,85680344567665E-7;
-2,54519280890765E-7;
-1,8978983939689E-7;
-1,37277194514132E-7;
-1,33986965794123E-7;
-1,64146901241057E-7;
-1,55718541977105E-7;
-3,06371260952535E-8;
2,24871065991441E-7;
5,27603198695051E-7;
7,36775157035425E-7;
7,43965324512605E-7;
5,4819497791891E-7;
2,57219523726136E-7;
1,14917488729694E-8;
-1,11596001188341E-7;
-1,39375235298729E-7;
-1,61433765056981E-7;
-2,4200652984759E-7;
-3,6305641731558E-7;
-4,46408717861468E-7;
-4,33681842358087E-7;
-3,50175253892496E-7;
-2,90082300022684E-7;
-3,2883307747972E-7;
-4,36732205147687E-7;
-4,75721380961013E-7;
-2,9658987552306E-7;
1,32418021745788E-7;
6,6999250955368E-7;
1,07372948640506E-6;
1,15518560813242E-6;
9,04374752704682E-7;
4,89264185976777E-7;
1,31092532371865E-7;
-4,76444201058278E-8;
-8,66285867183063E-8;
-1,2052391412565E-7;
-2,4549034968619E-7;
-4,34979508303606E-7;
-5,74085810285044E-7;
-5,77128056769467E-7;
-4,7926347077853E-7;
-4,13844082929558E-7;
-4,87397707273522E-7;
-6,59022575427441E-7;
-7,37380049206822E-7;
-5,15797051727173E-7;
5,21621678670252E-8;
7,78643253805708E-7;
1,3396753153702E-6;
1,48247726678793E-6;
1,18956229973018E-6;
6,76800350029434E-7;
2,29834622532283E-7;
7,17312502582554E-9;
-4,05938711353478E-8;
-8,39003463704885E-8;
-2,44246839891599E-7;
-4,88363246369251E-7;
-6,72253797163682E-7;
-6,88601745612767E-7;
-5,80284090376028E-7;
-5,11497645732209E-7;
-6,13285439152154E-7;
-8,35977000681662E-7;
-9,46388116572059E-7;
-6,92673416974207E-7;
-1,66938260586012E-8;
8,57505929181249E-7;
1,54234796196368E-6;
1,73477925738726E-6;
1,41118880033852E-6;
8,24347078862511E-7;
3,09663129503215E-7;
5,35246074567972E-8;
-8,68169284890541E-10;
-5,14147790830105E-8;
-2,39084258105469E-7;
-5,25471356230097E-7;
-7,44311713052219E-7;
-7,71704649078726E-7;
-6,56344601712518E-7;
-5,85873672405502E-7;
-7,09982170016998E-7;
-9,72399452942108E-7;
-1,10826894153E-6;
-8,31517326680911E-7;
-7,49731742732016E-8;
9,10321352785244E-7;
1,68914195896157E-6;
1,92066108574823E-6;
1,57638829836835E-6;
9,3626095283878E-7;
3,72476702132953E-7;
9,20903974469206E-8;
3,29708836270651E-8;
-2,28940179973887E-8;
-2,30741853875056E-7;
-5,48440774751194E-7;
-7,93485338497886E-7;
-8,29862967334027E-7;
-7,10410503132314E-7;
-6,39681816789973E-7;
-7,80832468761117E-7;
-1,072897123237E-6;
-1,22832550034827E-6;
-9,3647513572023E-7;
-1,23509516363443E-7;
9,40609293269404E-7;
1,78706037647457E-6;
2,04826017207354E-6;
1,69195313543004E-6;
1,01670493767516E-6;
4,20108908799139E-7;
1,23547653881813E-7;
6,13604911515959E-8;
1,86325368628784E-9;
-2,1988917100068E-7;
-5,59267067989125E-7;
-8,22809104557852E-7;
-8,66309545323038E-7;
-7,45285634766982E-7;
-6,75488554639185E-7;
-8,29005345433747E-7;
-1,1418408903627E-6;
-1,31159671589065E-6;
-1,01150174097649E-6;
-1,63138642615336E-7;
9,5164455246748E-7;
1,84267819555673E-6;
2,12523324793901E-6;
1,76428764121932E-6;
1,0696177792139E-6;
4,54309912155777E-7;
1,48564659058617E-7;
8,47412649229444E-8;
2,30763593029114E-8;
-2,07123676548415E-7;
-5,59800680881809E-7;
-8,3511311736046E-7;
-8,84063054507635E-7;
-7,63592909776976E-7;
-6,95701706551018E-7;
-8,57481874050991E-7;
-1,18334746928629E-6;
-1,36283110871139E-6;
-1,060339347688E-6;
-1,94687601166928E-7;
9,46449317790052E-7;
1,86211005825138E-6;
2,15872204955255E-6;
1,79937644705958E-6;
1,09869448616187E-6;
4,76742394218696E-7;
1,67791856965153E-7;
1,03553677962943E-7;
4,09801349366659E-8;
-1,92976877784278E-7;
-5,51738866894103E-7;
-8,33011849573819E-7;
-8,85925128698893E-7;
-7,67770605544055E-7;
-7,02564363603769E-7;
-8,69045575333749E-7;
-1,20126069698148E-6;
-1,38646679587087E-6;
-1,08649596308043E-6;
-2,18960831715656E-7;
9,27790667742369E-7;
1,85100401384556E-6;
2,15533990841946E-6;
1,80277036055705E-6;
1,10737285940706E-6;
4,88966088748928E-7;
1,81857843782141E-7;
1,18232121184024E-7;
5,58147750693406E-8;
-1,77916121382089E-7;
-5,36629098009551E-7;
-8,18906509528327E-7;
-8,74472356879524E-7;
-7,60063240811145E-7;
-6,98147634527876E-7;
-8,66270801211548E-7;
-1,19913745038981E-6;
-1,38661852644054E-6;
-1,09323800694983E-6;
-2,36735141945546E-7;
8,981821180824E-7;
1,81452545268977E-6;
2,12115029153036E-6;
1,77957603205204E-6;
1,09882804746676E-6;
4,924334873321E-7;
1,91362686659556E-7;
1,29198450892863E-7;
6,78280844299637E-8;
-1,62343702531895E-7;
-5,15871264196617E-7;
-7,94978506414699E-7;
-8,52050437850052E-7;
-7,42523500473482E-7;
-6,84348218017154E-7;
-8,51517279621682E-7;
-1,18024588593605E-6;
-1,36706822339144E-6;
-1,08357718997644E-6;
-2,48758564489776E-7;
8,59884574199171E-7;
1,75737277097285E-6;
2,06168116320807E-6;
1,7344498161929E-6;
1,07596348245294E-6;
4,88489578828003E-7;
1,96878090953995E-7;
1,36861978020217E-7;
7,72670051165906E-8;
-1,46601723444394E-7;
-4,90713082527314E-7;
-7,63198938423512E-7;
-8,20787236264686E-7;
-7,17013379829374E-7;
-6,62893094213524E-7;
-8,26938903240344E-7;
-1,14756688934806E-6;
-1,33127110070741E-6;
-1,06027599570194E-6;
-2,55737684478639E-7;
8,14915027464532E-7;
1,68376977109635E-6;
1,98192340777932E-6;
1,67161204824429E-6;
1,04142184710447E-6;
4,78369194547035E-7;
1,98938930447185E-7;
1,41614621599011E-7;
8,43805232410399E-8;
-1,30982911779336E-7;
-4,62268207464105E-7;
-7,25327596661902E-7;
-7,82588900392473E-7;
-6,85204766170854E-7;
-6,35333343861091E-7;
-7,94478316659929E-7;
-1,10379423199545E-6;
-1,28235229074233E-6;
-1,0258460444526E-6;
-2,58341177863332E-7;
7,6506133611532E-7;
1,59749677504501E-6;
1,88634748999383E-6;
1,5948494463568E-6;
9,97585604698591E-7;
4,63194731629727E-7;
1,98043713011834E-7;
1,43824908295919E-7;
8,94061130992315E-8;
-1,15726669300727E-7;
-4,31513029690566E-7;
-6,82929212199587E-7;
-7,3915172708424E-7;
-6,48589939708472E-7;
-6,03062955477452E-7;
-7,55878914088858E-7;
-1,05134672122356E-6;
-1,22312265788034E-6;
-9,82549048432121E-7;
-2,57192558121622E-7;
7,11883593970565E-7;
1,50189566643269E-6;
1,77892577000537E-6;
1,50753539189932E-6;
9,46581562051669E-7;
4,43980599386919E-7;
1,94654458464167E-7;
1,43840593616379E-7;
9,25772874264441E-8;
-1,01027871500082E-7;
-3,99297101888756E-7;
-6,37375107524651E-7;
-6,91969770730045E-7;
-6,08486715755549E-7;
-5,67312535429467E-7;
-7,12685612605855E-7;
-9,92373697734468E-7;
-1,15608550006126E-6;
-9,32412784936766E-7;
-2,52870560358225E-7;
6,56737783269898E-7;
1,39990001105022E-6;
1,66315415531034E-6;
1,41264652047466E-6;
8,90298048970048E-7;
4,2163791168226E-7;
1,89198427508716E-7;
1,41989655077865E-7;
9,41203131520775E-8;
-8,70380504385439E-8;
-3,66351841139225E-7;
-5,89860346600367E-7;
-6,42352963572857E-7;
-5,66051544969553E-7;
-5,2916517666975E-7;
-6,66264363635385E-7;
-9,28770380052093E-7;
-1,08344809370337E-6;
-8,77235200190512E-7;
-2,45909483243036E-7;
6,00784299559446E-7;
1,29405547724045E-6;
1,54207937633702E-6;
1,31278562553954E-6;
8,303917167506E-7;
3,96975336350417E-7;
1,820638606766E-7;
1,38572107615637E-7;
9,42452932568565E-8;
-7,38742619518798E-8;
-3,33297299072833E-7;
-5,41410548961393E-7;
-5,91425387917197E-7;
-5,222828273233E-7;
-4,89564479660679E-7;
-6,17804344107045E-7;
-8,62194419796354E-7;
-1,00714657576137E-6;
-8,18595064420081E-7;
-2,36794762447118E-7;
5,45002693215102E-7;
1,18654933061514E-6;
1,41832927740342E-6;
1,21020223386702E-6;
7,6830512375689E-7;
3,70705076596484E-7;
1,73600213727278E-7;
1,33864921519261E-7;
9,31537428382772E-8;
-6,16200767123614E-8;
-3,00654928573784E-7;
-4,92896622867827E-7;
-5,40148994410274E-7;
-4,780365569899E-7;
-4,49316185891012E-7;
-5,68328013589999E-7;
-7,94074234868061E-7;
-9,28851530595505E-7;
-7,57868878956297E-7;
-2,25971321566901E-7;
4,90208343083893E-7;
1,07923152974364E-6;
1,29413972155444E-6;
1,10682136250501E-6;
7,05276836901848E-7;
3,43449385871669E-7;
1,64123496272193E-7;
1,28121163408624E-7;
9,10344102448166E-8;
-5,03294060854064E-8;
-2,6885175917447E-7;
-4,45051500361867E-7;
-4,89337988626647E-7;
-4,34037292847606E-7;
-4,09109836012921E-7;
-5,18712798845825E-7;
-7,25632328500989E-7;
-8,49996213257758E-7;
-6,96243192867993E-7;
-2,1383664619743E-7;
4,37066182485771E-7;
9,73646813885605E-7;
1,1713902212016E-6;
1,00426621378293E-6;
6,42359895478049E-7;
3,15743736771593E-7;
1,53913810531272E-7;
1,21569837464032E-7;
8,80604571132845E-8;
-4,0031063624061E-8;
-2,38230471563349E-7;
-3,98471816371757E-7;
-4,3965734472289E-7;
-3,90884280886969E-7;
-3,69519151202693E-7;
-4,69690621481615E-7;
-6,57896717294268E-7;
-7,71790730075022E-7;
-6,34724533781375E-7;
-2,00746627440263E-7;
3,86105639228179E-7;
8,71064598834712E-7;
1,05163218985048E-6;
9,03883104965231E-7;
5,80435139603749E-7;
2,88045148437043E-7;
1,43218480608412E-7;
1,14415737876651E-7;
8,43935969158967E-8;
-3,07332077954256E-8;
-2,09061017688112E-7;
-3,53640411378972E-7;
-3,91654313160449E-7;
-3,49071759281063E-7;
-3,31017488672337E-7;
-4,21869475228294E-7;
-5,91721163327407E-7;
-6,95239286626333E-7;
-5,74157314934952E-7;
-1,87015253850729E-7;
3,3773832725776E-7;
7,72497211611968E-7;
9,36116349683255E-7;
8,06767225797797E-7;
5,20225835928056E-7;
2,60740188396828E-7;
1,32255504753261E-7;
1,06841750278421E-7;
8,01793209644259E-8;
-2,24287475344386E-8;
-1,81547394525209E-7;
-3,10935452322472E-7;
-3,45759467383018E-7;
-3,08989389758986E-7;
-2,9398397597943E-7;
-3,75740034592389E-7;
-5,27795233408771E-7;
-6,21161958783492E-7;
-5,15238823760115E-7;
-1,72917221285708E-7;
2,9226567664402E-7;
6,78736409401083E-7;
8,25834508045042E-7;
7,13792223440529E-7;
4,6231733465525E-7;
2,34145923046564E-7;
1,21210804994441E-7;
9,90106639658878E-8;
7,55512110087912E-8;
-1,50915555002075E-8;
-1,55831020478981E-7;
-2,70638084911176E-7;
-3,02299464320702E-7;
-2,70940758618442E-7;
-2,58716411054916E-7;
-3,31690896412659E-7;
-4,66671036840284E-7;
-5,50211717748974E-7;
-4,58531338689021E-7;
-1,58692690091466E-7;
2,49896970003509E-7;
5,90369481015854E-7;
7,21534724952112E-7;
6,25626941075577E-7;
4,07163883116118E-7;
2,08519317374186E-7;
1,10242451739816E-7;
9,1061013185125E-8;
7,06275039704823E-8;
-8,68635201668868E-9;
-1,32005054598853E-7;
-2,32951975356073E-7;
-2,61516615226751E-7;
-2,35147074070906E-7;
-2,25438309244151E-7;
-2,9001926117287E-7;
-4,0876538361352E-7;
-4,82889656294739E-7;
-4,04476001832259E-7;
-1,44547428952361E-7;
2,10758276948477E-7;
5,07812747433243E-7;
6,23760834824398E-7;
5,42761664713556E-7;
3,55105749847827E-7;
1,84064697177012E-7;
9,94883064973237E-8;
8,31143977085017E-8;
6,55139823065103E-8;
-3,16497782520325E-9;
-1,10119437236972E-7;
-1,9800805026288E-7;
-2,23570209538736E-7;
-2,01764837090009E-7;
-1,94307859731025E-7;
-2,50934029583583E-7;
-3,54384693935499E-7;
-4,1956790611191E-7;
-3,5340494905667E-7;
-1,30651766552779E-7;
1,74909023877215E-7;
4,31325374185601E-7;
5,32866320798672E-7;
4,65531739940098E-7;
3,06390241349864E-7;
1,60934376207857E-7;
8,905548869483E-8;
7,52749534882146E-8;
6,03034896221562E-8;
1,52265818482707E-9;
-9,01846048433533E-8;
-1,65869742066228E-7;
-1,88551167468854E-7;
-1,70885777477697E-7;
-1,65424894097187E-7;
-2,14579326983374E-7;
-3,03736091419512E-7;
-3,60498587638236E-7;
-3,05555784493092E-7;
-1,17150475947761E-7;
1,42345658260374E-7;
3,61037218901426E-7;
4,49055395407457E-7;
3,94137489820384E-7;
2,61171393486297E-7;
1,39242537098013E-7;
7,90350990626149E-8;
6,76280301928367E-8;
5,5078467975929E-8;
5,43575905943286E-9;
-7,21807544177367E-8;
-1,36556896749134E-7;
-1,56498718581067E-7;
-1,42553382788938E-7;
-1,38843506656598E-7;
-1,81033493057326E-7;
-2,56938357956261E-7;
-3,0583579203445E-7;
-2,61085885858112E-7;
-1,04163170902928E-7;
1,13017795256332E-7;
2,96964918180336E-7;
3,72387754165468E-7;
3,28660654807675E-7;
2,19531356334566E-7;
1,19061473377534E-7;
6,94986647530847E-8;
6,02452747005177E-8;
4,99057732992361E-8;
8,6333811261951E-9;
-5,60613158183215E-8;
-1,1003578585149E-7;
-1,27395048702584E-7;
-1,16764764855783E-7;
-1,14573386092774E-7;
-1,50322815772695E-7;
-2,14036774217066E-7;
-2,55644391237463E-7;
-2,20075007891606E-7;
-9,17793326747761E-8;
8,68324746875168E-8;
2,39030169177292E-7;
3,02815307971406E-7;
2,69084333862995E-7;
1,81485360384667E-7;
1,00432119352612E-7;
6,04975903524482E-8;
5,31839765354059E-8;
4,48461525554734E-8;
1,11803676289472E-8;
-4,17585457944857E-8;
-8,62425181759818E-8;
-1,01184165354884E-7;
-9,34803994960832E-8;
-9,25905282130355E-8;
-1,22429715519292E-7;
-1,7501595334604E-7;
-2,09917132360994E-7;
-1,82545303236249E-7;
-8,00699762538545E-8;
6,3666794598263E-8;
1,87078302964873E-7;
2,40191018759853E-7;
2,15308362573733E-7;
1,46995647646291E-7;
8,33684631686835E-8;
5,2071081203815E-8;
4,6486645740514E-8;
3,99485069346458E-8;
1,3139758182173E-8;
-2,91902101013459E-8;
-6,50818237629946E-8;
-7,77800606240399E-8;
-7,26334085704791E-8;
-7,28419802244083E-8;
-9,72982206928487E-8;
-1,3980407727781E-7;
-1,6858189840346E-7;
-1,48466695579085E-7;
-6,90881955920484E-8;
4,3373819993694E-8;
1,4089330479523E-7;
1,84292309224774E-7;
1,67169336669571E-7;
1,15982408483781E-7;
6,78587578971834E-8;
4,42439634635282E-8;
4,01892462810563E-8;
3,52532752845573E-8;
1,45735432858825E-8;
-1,82595696281247E-8;
-4,64344012134247E-8;
-5,70657604413804E-8;
-5,41280143842259E-8;
-5,52489310702634E-8;
-7,48413939447878E-8;
-1,08287912303088E-7;
-1,31518687396568E-7;
-1,17764204057496E-7;
-5,88670510475012E-8;
2,57818764563748E-8;
1,00208373349392E-7;
1,348368978694E-7;
1,24443707676321E-7;
8,83252403801086E-8;
5,38721154788221E-8;
3,70278088422205E-8;
3,43120180249827E-8;
3,07895570976801E-8;
1,55421917370432E-8;
-8,86139113768685E-9;
-3,01627317107248E-8;
-3,8904926508832E-8;
-3,78539554988309E-8;
-3,97153671840156E-8;
-5,49474868142817E-8;
-8,03204915364096E-8;
-9,85632715022068E-8;
-9,03263916758144E-8;
-4,94251160517433E-8;
1,07108652383866E-8;
6,4718305534729E-8;
9,14901519254256E-8;
8,68686091462352E-8;
6,38775898803169E-8;
4,13599198997015E-8;
3,04262558718841E-8;
2,88703012362065E-8;
2,65820771985503E-8;
1,61068767144253E-8;
-8,85005617221304E-10;
-1,61209220482229E-8;
-2,31463660184785E-8;
-2,36834601816921E-8;
-2,61337829782618E-8;
-3,74884288276284E-8;
-5,57280601291303E-8;
-6,95219337545026E-8;
-6,60166697770088E-8;
-4,07698170581807E-8;
-2,02576352200725E-9;
3,40947384412447E-8;
5,38875311798366E-8;
5,41501876088249E-8;
4,24684303223272E-8;
3,02638494554334E-8;
2,44342782359158E-8;
2,38715039851005E-8;
2,26496409109364E-8;
1,63196109497584E-8;
5,78376208814355E-9;
-4,14583713815034E-9;
-9,62816959187706E-9;
-1,14809276885895E-8;
-1,4381529791798E-8;
-2,2318811207495E-8;
-3,43149915210602E-8;
-4,41775782740404E-8;
-4,467330038885E-8;
-3,28929835766707E-8;
-1,26248074740485E-8;
7,9906977426361E-9;
2,16386787253505E-8;
2,5969886177563E-8;
2,39158914039654E-8;
2,05137139033225E-8;
1,90362000250539E-8;
1,93117519253871E-8;
1,90017667082287E-8;
1,62360159916751E-8;
1,12594843759311E-8;
5,9203449531591E-9;
1,81671338568307E-9;
-1,10314402345905E-9;
-4,33227225982224E-9;
-9,28703278104968E-9;
-1,58726643197368E-8;
-2,2290521445709E-8;
-2,61224502453506E-8;
-2,578294194496E-8;
-2,12781571017689E-8;
-1,39530079995986E-8;
-5,66203695998723E-9;
1,99725296218769E-9;
8,02070456261654E-9;
1,20296080009572E-8;
1,42153009701914E-8;
1,51877239612445E-8;
1,56433855949226E-8;
1,5904252258368E-8;
1,56578690771018E-8;
1,42438523668929E-8;
1,13617777252399E-8;
7,59641903597531E-9;
4,14583715416101E-9;
1,76765450030985E-9;
-1,86345553997326E-10;
-3,61743898252931E-9;
-1,01778419455138E-8;
-1,94155366038647E-8;
-2,81742219815158E-8;
-3,2094299117154E-8;
-2,842293603772E-8;
-1,81035403177815E-8;
-5,41950981738446E-9;
4,72856358105894E-9;
9,94539824299961E-9;
1,14863721919001E-8;
1,25776012947671E-8;
1,53675238386224E-8;
1,90884606486075E-8;
2,09874300364745E-8;
1,91757649809137E-8;
1,47655115601702E-8;
1,1185544092011E-8;
1,10061302920348E-8;
1,29675770536464E-8;
1,20957092156062E-8;
3,35645435293534E-9;
-1,37622398983719E-8;
-3,35033482266092E-8;
-4,6790870633643E-8;
-4,70555049531793E-8;
-3,46726812093824E-8;
-1,66072805349576E-8;
-1,47381784181944E-9;
6,2019056587075E-9;
8,19297028085161E-9;
9,80065001920532E-9;
1,46703093581287E-8;
2,16609444364411E-8;
2,63112176310891E-8;
2,54280738306579E-8;
2,05485530440072E-8;
1,69188843686107E-8;
1,8588673771927E-8;
2,38092207739536E-8;
2,51035414332123E-8;
1,46748496768538E-8;
-8,78958460629246E-9;
-3,74418864630473E-8;
-5,83898070853186E-8;
-6,19622521241754E-8;
-4,80478921182875E-8;
-2,57487002624755E-8;
-6,66716523674397E-9;
2,95180888083129E-9;
5,29080420633531E-9;
7,30563186166079E-9;
1,38458065573101E-8;
2,34774221595113E-8;
3,03689162734027E-8;
3,02817731462233E-8;
2,50864189895204E-8;
2,14755452523604E-8;
2,46768532005092E-8;
3,25575593248241E-8;
3,56574629090765E-8;
2,39750942913047E-8;
-4,45871364920813E-9;
-4,01603480812281E-8;
-6,72288281232134E-8;
-7,35332739221429E-8;
-5,85525780638549E-8;
-3,3043438501117E-8;
-1,09398194106113E-8;
1,63183122096783E-10;
2,75730864703214E-9;
5,08541840670283E-9;
1,29314726315683E-8;
2,46344672953773E-8;
3,33073704115309E-8;
3,38970041525946E-8;
2,85175603746546E-8;
2,49784297027699E-8;
2,94232683380673E-8;
3,94269717289363E-8;
4,40032953073905E-8;
3,14472571034664E-8;
-7,30674218699252E-10;
-4,18188085303726E-8;
-7,36309095466304E-8;
-8,21445291390865E-8;
-6,6501329704974E-8;
-3,86858909501351E-8;
-1,43783147735686E-8;
-2,19610367396541E-9;
5,72844550256059E-10;
3,12688712061946E-9;
1,19525665070236E-8;
2,5225096862594E-8;
3,52682787093346E-8;
3,64201637306298E-8;
3,09716523959769E-8;
2,75507854444953E-8;
3,29783254061894E-8;
4,46227762194194E-8;
5,03780033098696E-8;
3,7281653024757E-8;
2,43837917153657E-9;
-4,2569485626969E-8;
-7,79012621076968E-8;
-8,81556303757976E-8;
-7,21979205399135E-8;
-4,2862734141493E-8;
-1,70679280080223E-8;
-4,161518080103E-9;
-1,28802010268326E-9;
1,41706594852389E-9;
1,09353763618611E-8;
2,53339491450596E-8;
3,63854441602496E-8;
3,7995505956146E-8;
3,25722394826516E-8;
2,93053244921628E-8;
3,54832669087054E-8;
4,83416637150164E-8;
5,5009448971742E-8;
4,16568378219957E-8;
5,09142869756156E-9;
-4,25490205671124E-8;
-8,03264455689801E-8;
-9,19002739087373E-8;
-7,59219010568107E-8;
-4,57503347104917E-8;
-1,90895250178801E-8;
-5,76695322280646E-9;
-2,84965532745502E-9;
-5,62697699595669E-11;
9,90499795787897E-9;
2,50379409521209E-8;
3,67762336299529E-8;
3,87519816191263E-8;
3,34347782979011E-8;
3,03497959580142E-8;
3,70722838096689E-8;
5,07673407718838E-8;
5,81118396470505E-8;
4,4747776106354E-8;
7,27116751130033E-9;
-4,18882493505371E-8;
-8,11726126897031E-8;
-9,36965525609217E-8;
-7,79448874684752E-8;
-4,75156102295489E-8;
-2,05213785111313E-8;
-7,04717178790083E-9;
-4,13591588714204E-9;
-1,31103999349966E-9;
8,87763335683777E-9;
2,44096720929998E-8;
3,65571949388099E-8;
3,88167531696098E-8;
3,36691237774484E-8;
3,07853005360702E-8;
3,78726213497922E-8;
5,2076591871313E-8;
5,98891104409513E-8;
4,67139713922562E-8;
9,02044685955653E-9;
-4,06991105964284E-8;
-8,06859026066643E-8;
-9,38361420620155E-8;
-7,8511771679613E-8;
-4,83160194442575E-8;
-2,1438299904149E-8;
-8,03350708235917E-9;
-5,17129976186778E-9;
-2,36239359059085E-9;
7,86966097850057E-9;
2,35136925447616E-8;
3,58314560675462E-8;
3,82996507513252E-8;
3,33728224086775E-8;
3,07030108812107E-8;
3,79993588184E-8;
5,24308926504137E-8;
6,05283174228316E-8;
4,77094395849592E-8;
1,03828668588601E-8;
-3,90895372125422E-8;
-7,90931633440607E-8;
-9,25866485674017E-8;
-7,78509528647505E-8;
-4,82958808337807E-8;
-2,19085956702162E-8;
-8,75921391181402E-9;
-5,9811708550974E-9;
-3,22426403008374E-9;
6,89518084859797E-9;
2,24068069880971E-8;
3,4692510183993E-8;
3,73025443660385E-8;
3,2636615802195E-8;
3,01894635724605E-8;
3,75573732592377E-8;
5,19771172127967E-8;
6,02050999251719E-8;
4,78749032252133E-8;
1,13987302680953E-8;
-3,71533096176627E-8;
-7,65992048892281E-8;
-9,01923184634077E-8;
-7,61717817712584E-8;
-4,7587754307698E-8;
-2,19971793564043E-8;
-9,25310259208863E-9;
-6,58815364309739E-9;
-3,9182429562505E-9;
5,96322990042565E-9;
2,1142424044498E-8;
3,32250833183437E-8;
3,5920917866809E-8;
3,15436944646838E-8;
2,93214150759791E-8;
3,66496075807248E-8;
5,08548254316827E-8;
5,90779255198865E-8;
4,73423069615329E-8;
1,21071288415199E-8;
-3,49731848198799E-8;
-7,33861985948737E-8;
-8,68752127846856E-8;
-7,36643615560531E-8;
-4,63129069972892E-8;
-2,17636638731636E-8;
-9,54607773920954E-9;
-7,01398004208806E-9;
-4,45493328726088E-9;
5,08219535541672E-9;
1,97640756522123E-8;
3,15050354801207E-8;
3,42369742515347E-8;
3,01692381588073E-8;
2,81697984070985E-8;
3,5360366100464E-8;
4,91869709142092E-8;
5,72936514978765E-8;
4,62293212442459E-8;
1,25454970438888E-8;
-3,26222899304276E-8;
-6,96199114003716E-8;
-8,28355977074739E-8;
-7,05019091392805E-8;
-4,45818347311524E-8;
-2,12609907795374E-8;
-9,66290553836179E-9;
-7,2816544343699E-9;
-4,85396239420329E-9;
4,25682183215411E-9;
1,83120523450524E-8;
2,96004789369265E-8;
3,23242051418848E-8;
2,8576236042265E-8;
2,67969675900784E-8;
3,37732115214368E-8;
4,70871572250723E-8;
5,49825097011077E-8;
4,46444057413883E-8;
1,27499206271718E-8;
-3,01663619956881E-8;
-6,54484766834465E-8;
-7,82481035766645E-8;
-6,6832673950991E-8;
-4,24917559653986E-8;
-2,05426749769922E-8;
-9,63201761148225E-9;
-7,41117746646432E-9;
-5,12967282224122E-9;
3,49415058742509E-9;
1,6821521584929E-8;
2,75695476632822E-8;
3,02510653344736E-8;
2,68263039475177E-8;
2,52590714756429E-8;
3,19576319677367E-8;
4,46531565372504E-8;
5,22634411531449E-8;
4,26872322687823E-8;
1,27532861152961E-8;
-2,76575469708011E-8;
-6,09989623168059E-8;
-7,32717406214767E-8;
-6,27949014267882E-8;
-4,01328368370694E-8;
-1,96501672207307E-8;
-9,47574622969293E-9;
-7,42310723982053E-9;
-5,29569406215748E-9;
2,79437097806046E-9;
1,53216175299479E-8;
2,54622529663445E-8;
2,80706048571957E-8;
2,49707789098741E-8;
2,36046637766221E-8;
2,99757810378105E-8;
4,1974659557375E-8;
4,92397857241214E-8;
4,04440398635741E-8;
1,25859354964129E-8;
-2,51453371664406E-8;
-5,63810241870404E-8;
-6,80394621970626E-8;
-5,85054357490967E-8;
-3,75794934164597E-8;
-1,8625186541348E-8;
-9,21395171975098E-9;
-7,33210825352993E-9;
-5,36762303627263E-9;
2,15969540178949E-9;
1,38357097492873E-8;
2,33231214482821E-8;
2,58353109437133E-8;
2,30520025195596E-8;
2,18771402634754E-8;
2,78855303832578E-8;
3,91291824429988E-8;
4,60037820801101E-8;
3,79913287399032E-8;
1,2276760225853E-8;
-2,26643038205913E-8;
-5,16904297866723E-8;
-6,26703593094451E-8;
-5,40685530682607E-8;
-3,49021441852741E-8;
-1,75007579304958E-8;
-8,86893336979717E-9;
-7,1583982280243E-9;
-5,35683117831122E-9;
1,58861618564664E-9;
1,23843405804008E-8;
2,11889017184508E-8;
2,35846580818943E-8;
2,11093710504407E-8;
2,0113403343517E-8;
2,57332499856096E-8;
3,61854390612207E-8;
4,26357917948308E-8;
3,5397763036178E-8;
1,18503720672528E-8;
-2,02508185355269E-8;
-4,70084593816217E-8;
-5,72653624938217E-8;
-4,95700089736334E-8;
-3,21571290081963E-8;
-1,63115107519415E-8;
-8,4552599784916E-9;
-6,9147805149414E-9;
-5,27759432107386E-9;
1,08117413548045E-9;
1,09830318381199E-8;
1,90906156703186E-8;
2,13567288200884E-8;
1,91757151987663E-8;
1,83443839206457E-8;
2,35583432471521E-8;
3,31991772818655E-8;
3,92062869926254E-8;
3,27245195121155E-8;
1,13311490799023E-8;
-1,79287827913321E-8;
-4,24020937542529E-8;
-5,19089197875575E-8;
-4,50875767882695E-8;
-2,93968814442346E-8;
-1,5083577503733E-8;
-7,99176858100396E-9;
-6,61526294509188E-9;
-5,13942028375596E-9;
6,35952567676638E-10;
9,64755758374885E-9;
1,7052938023067E-8;
1,91781164953235E-8;
1,72771042055293E-8;
1,65974395763367E-8;
2,13988060946537E-8;
3,02223802915504E-8;
3,57709599073395E-8;
3,00174149479886E-8;
1,07402369212787E-8;
-1,57194007523342E-8;
-3,79272092133325E-8;
-4,6669750892505E-8;
-4,06831977532858E-8;
-2,66612673026223E-8;
-1,38388658781013E-8;
-7,49199107630324E-9;
-6,27418288624489E-9;
-4,95495785224074E-9;
2,49080576396231E-10;
8,3841747519074E-9;
1,50976445471387E-8;
1,70757764459307E-8;
1,54356543539911E-8;
1,48944208573577E-8;
1,92811637396249E-8;
2,729400961776E-8;
3,23827402632662E-8;
2,73233833968317E-8;
1,00961153379163E-8;
-1,36355757353142E-8;
-3,3628539908872E-8;
-4,16071313250751E-8;
-3,64052457736112E-8;
-2,39867107994139E-8;
-1,26002151231201E-8;
-6,96696218766463E-9;
-5,89927515181082E-9;
-4,73206880334407E-9;
-8,19436768039504E-11;
7,20365523358671E-9;
1,32392414669584E-8;
1,50641356166751E-8;
1,36683642233521E-8;
1,32509875192544E-8;
1,72286211560819E-8;
2,445043320674E-8;
2,90799411457742E-8;
2,46746991970189E-8;
9,41582714321994E-9;
-1,16880526779717E-8;
-2,95394395996332E-8;
-3,67650176772171E-8;
-3,22974131985849E-8;
-2,14011210069464E-8;
-1,13808901209114E-8;
-6,42875786525202E-9;
-5,50344676703128E-9;
-4,47948163056937E-9;
-3,61329088596407E-10;
6,10645360856831E-9;
1,14891480521275E-8;
1,31620187095589E-8;
1,1990787332524E-8;
1,16831566166938E-8;
1,52614965838852E-8;
2,17154534311396E-8;
2,58959678078532E-8;
2,21059070595042E-8;
8,71419077910265E-9;
-9,88535089240254E-9;
-2,56847463892173E-8;
-3,21771734140245E-8;
-2,83908520861305E-8;
-1,89272018016545E-8;
-1,019673096021E-8;
-5,88698119476964E-9;
-5,09413215873527E-9;
-4,20536780237729E-9;
-5,90734408087027E-10;
5,09980873373768E-9;
9,85622621557609E-9;
1,13769964194141E-8;
1,04113603237659E-8;
1,02011663908385E-8;
1,33939824993987E-8;
1,91130011073059E-8;
2,28584867120391E-8;
1,96373741004253E-8;
8,00267943720631E-9;
-8,23129821256712E-9;
-2,20856225750028E-8;
-2,78701321874418E-8;
-2,47088061401871E-8;
-1,65834160044525E-8;
-9,05879507109609E-9;
-5,34853710003211E-9;
-4,67951290141835E-9;
-3,91690726418882E-9;
-7,78499632956519E-10;
4,17868470354129E-9;
8,34498619146618E-9;
9,71640491392117E-9;
8,937778235418E-9;
8,81201306021144E-9;
1,1635424203079E-8;
1,66579425841982E-8;
1,99848542573421E-8;
1,72882465462272E-8;
7,29474544380198E-9;
-6,72487895503735E-9;
-1,87508332918267E-8;
-2,38598024460468E-8;
-2,12688173782728E-8;
-1,43796284445192E-8;
-7,97408443635343E-9;
-4,82169857774771E-9;
-4,26415812295212E-9;
-3,61872681118471E-9;
-9,2413650295249E-10;
3,34866339003509E-9;
6,95832485245004E-9;
8,18471524101344E-9;
7,57313330575165E-9;
7,52018656150561E-9;
9,99576289879728E-9;
1,43610937800594E-8;
1,72906426523077E-8;
1,50732337492632E-8;
6,59588859760491E-9;
-5,3659766560259E-9;
-1,56865611720316E-8;
-2,01572248798074E-8;
-1,8080010493849E-8;
-1,23266696443488E-8;
-6,951833606694E-9;
-4,31004737883052E-9;
-3,85559255458256E-9;
-3,31799747121774E-9;
-1,03308058440748E-9;
2,60298363610026E-9;
5,69554931420564E-9;
6,78322936043148E-9;
6,32044211958557E-9;
6,32975451704474E-9;
8,47743810948777E-9;
1,22309093543089E-8;
1,47846881073959E-8;
1,30002009635029E-8;
5,91750883622275E-9;
-4,14904654712785E-9;
-1,28933661807401E-8;
-1,67640862563816E-8;
-1,51482824209387E-8;
-1,04300486523703E-8;
-5,99431085895492E-9;
-3,81829391997171E-9;
-3,45704773976629E-9;
-3,01675649476595E-9;
-1,10844515031891E-9;
1,94149331127274E-9;
4,55664642057219E-9;
5,5126659077283E-9;
5,18102778849363E-9;
5,24174067395322E-9;
7,08264326975494E-9;
1,02710163915414E-8;
1,24741347817625E-8;
1,10756705276482E-8;
5,26395150431877E-9;
-3,07081765436194E-9;
-1,03699157662139E-8;
-1,36812985472687E-8;
-1,24753200859627E-8;
-8,69014437706819E-9;
-5,10693713383254E-9;
-3,35411039526413E-9;
-3,07352176269603E-9;
-2,72270672370433E-9;
-1,15795186939228E-9;
1,35844560342696E-9;
3,53532309708781E-9;
4,36772619662523E-9;
4,15062395706034E-9;
4,25390416983117E-9;
5,81286560675911E-9;
8,4796461826877E-9;
1,03585042156427E-8;
9,30654629428427E-9;
4,63900153664356E-9;
-2,12484387033315E-9;
-8,10602720561692E-9;
-1,09020703801108E-8;
-1,00555948555962E-8;
-7,10771524946167E-9;
-4,28814730282379E-9;
-2,91329034177825E-9;
-2,70803728453538E-9;
-2,43660021783656E-9;
-1,18076691780385E-9;
8,52133442098814E-10;
2,63028299417843E-9;
3,34576042529185E-9;
3,22805496668347E-9;
3,36532188317415E-9;
4,66530253286097E-9;
6,85810213839994E-9;
8,43618306522951E-9;
7,68776188387791E-9;
4,04904399677688E-9;
-1,30119164500898E-9;
-6,09444813910241E-9;
-8,41766261109764E-9;
-7,88431727726253E-9;
-5,680029791287E-9;
-3,53983302572901E-9;
-2,50165676137457E-9;
-2,36121748046695E-9;
-2,15902015261789E-9;
-1,18173707572608E-9;
4,15575573714204E-10;
1,83552351843113E-9;
2,44340905487186E-9;
2,40856208896884E-9;
2,57117323479482E-9;
3,63586793436723E-9;
5,40005994984928E-9;
6,70389870219626E-9;
6,22110557421542E-9;
3,49550740576068E-9;
-5,94748732450868E-10;
-4,32272115646911E-9;
-6,21645306568338E-9;
-5,95235079759619E-9;
-4,39958265604274E-9;
-2,86048408248154E-9;
-2,12023525138985E-9;
-2,03523590188032E-9;
-1,8962946223233E-9;
-1,16537399746393E-9;
4,63756526055766E-11;
1,14342191920833E-9;
1,65160120775628E-9;
1,68811767005273E-9;
1,87009696146046E-9;
2,72139144505809E-9;
4,09966105412801E-9;
5,15590124508739E-9;
4,90236454142363E-9;
2,97926763728974E-9;
4,48686092128391E-12;
-2,77765725941346E-9;
-4,28448062749557E-9;
-4,24860636834447E-9;
-3,26517890417522E-9;
-2,25041165542773E-9;
-1,76899898442491E-9;
-1,73300084135713E-9;
-1,64733351100868E-9;
-1,13306243171513E-9;
-2,64273529652269E-10;
5,4679887002672E-10;
9,6487812820126E-10;
1,06037079500239E-9;
1,25545776505083E-9;
1,91526374896339E-9;
2,95134461833846E-9;
3,78462777266497E-9;
3,72531456768609E-9;
2,50242919640838E-9;
5,04605824020761E-10;
-1,44513719052352E-9;
-2,60462060329361E-9;
-2,76002573702002E-9;
