-0,00017525270188555;
-0,00032959039694331;
-0,000377447760924579;
-0,000320835548162672;
-0,000226708276582296;
-0,00016983365935102;
-0,000171994687531962;
-0,000187327245409294;
-0,000145117208451491;
-1,39360813155118E-5;
0,000166356104090711;
0,000311423073168281;
0,000356176012206153;
0,000303231766271783;
0,00021674741344064;
0,000167359531656773;
0,000174020903048674;
0,000190652791277725;
0,000148213047941071;
1,69623054013475E-5;
-0,000162866484049331;
-0,000307657675910141;
-0,000352803460132197;
-0,000300159342611195;
-0,000212318560517319;
-0,000159182880837363;
-0,000161165306673979;
-0,000175520262940603;
-0,000136301942205229;
-1,41839971093337E-5;
0,000153732409197157;
0,000288935637448288;
0,000330860958178959;
0,000281965495130316;
0,000201927437603643;
0,000156387528931369;
0,000162885709977306;
0,000178526364274574;
0,000139139261631922;
1,71340131974848E-5;
-0,000150069070703926;
-0,000284792765202867;
-0,000327039527914602;
-0,000278501936301818;
-0,000197213291737657;
-0,000147991111704085;
-0,000149808584594165;
-0,000163150097497861;
-0,000127013305350069;
-1,42516660888296E-5;
0,000140882841478601;
0,000265889405276615;
0,000304862134778806;
0,000260083589002877;
0,000186616352114077;
0,000144969996452289;
0,000151250132981415;
0,000165847013670226;
0,000129594705378536;
1,70966931288794E-5;
-0,000137125481115252;
-0,000261488611611864;
-0,000300718023590038;
-0,000256340160402405;
-0,000181728583690549;
-0,000136507337213187;
-0,000138171832428265;
-0,000150482807340507;
-0,000117456788755946;
-1,41611206690846E-5;
0,00012803534257792;
0,00024271162395516;
0,00027866673284524;
0,000237999564889387;
0,000171109890052657;
0,000133336998668093;
0,000139354614816174;
0,00015287720415033;
0,000119781872848278;
1,68724432524832E-5;
-0,000124258025008871;
-0,000238162547640501;
-0,000274315903894822;
-0,000234078927314175;
-0,000166149777800099;
-0,000124942689963399;
-0,00012646460207903;
-0,000137743894100578;
-0,000107806752627782;
-1,39314735947568E-5;
0,000115382495589304;
0,000219763925319627;
0,000252687825335565;
0,000216065202329751;
0,000155661372801215;
0,000121687355418416;
0,000127407454736522;
0,000139844245505124;
0,000109877647221488;
1,64859555935349E-5;
-0,000111648341547529;
-0,000215161130150082;
-0,000248230800052488;
-0,000212056142844985;
-0,000150714878813009;
-0,000113473101961056;
-0,000114861566102668;
-0,000125121599207713;
-9,82091279217575E-5;
-1,35794695699643E-5;
0,000103083967295193;
0,000197347087585042;
0,00022726961451056;
0,000194574511961917;
0,000140483822423128;
0,000110189605267973;
0,000115585667111193;
0,000126941251813899;
0,000100033328062594;
1,59620773290254E-5;
-9,94431185281755E-5;
-0,00019276844883351;
-0,000222790030413805;
-0,000190550619467653;
-0,000135620744823276;
-0,000102244421587854;
-0,000103507612376704;
-0,000112772213927287;
-8,87859016522673E-5;
-1,31215807907284E-5;
9,12676248839103E-5;
0,000175704675387662;
0,000202691764286348;
0,000173767023141236;
0,000125751612093362;
9,89826952308632E-5;
0,000104035765311611;
0,000114328236650496;
9,03749936778349E-5;
1,53238589553665E-5;
-8,77591708451801E-5;
-0,000171213617024273;
-0,000198258672974963;
-0,000169788943464437;
-0,000121028131663573;
-9,13763319629295E-5;
-9,25216592125069E-5;
-0,000100823995345078;
-7,96381440597228E-5;
-1,25746316287356E-5;
8,00321142320993E-5;
0,000155028154066474;
0,000179175265102199;
0,000153832648095804;
0,00011160375621548;
8,8178392067787E-5;
9,28762695430442E-5;
0,000102134901465611;
8,10055592488826E-5;
1,4592356953939E-5;
-7,6686705383203E-5;
-0,000150676442708405;
-0,000174845832855315;
-0,000149950618946606;
-0,000107065119107125;
-8,09646901919845E-5;
-8,19989187877751E-5;
-8,93795913395456E-5;
-7,08476299658678E-5;
-1,19551397516696E-5;
6,9450583200209E-5;
0,000135463024504275;
0,00015688922288446;
0,000134917462302196;
9,81481193337691E-5;
7,7864558496518E-5;
8,2201035186506E-5;
9,04641880977382E-5;
7,20075618432318E-5;
1,37871618615624E-5;
-6,62918418428343E-5;
-0,000131292340595803;
-0,000152710211251299;
-0,00013117259879717;
-9,38300225124665E-5;
-7,10834713837416E-5;
-7,20128370668237E-5;
-7,85181841510674E-5;
-6,24782657077432E-5;
-1,12786029081269E-5;
5,95742815058315E-5;
0,000117114674825046;
0,000135957308858099;
0,000117129151119021;
8,54653221776481E-5;
6,81081412343486E-5;
7,20822497245499E-5;
7,93954668909562E-5;
6,34455734736294E-5;
1,29266186214799E-5;
-5,66193183319316E-5;
-0,00011315735161047;
-0,000131965771140873;
-0,000113553998357157;
-8,13946054533035E-5;
-6,17870578294536E-5;
-6,26173864149384E-5;
-6,82979966117981E-5;
-5,45779099125653E-5;
-1,0559296718551E-5;
5,04355082227117E-5;
0,000100053494420904;
0,000116463436220908;
0,000100541740090101;
7,36120260210675E-5;
5,89575988091246E-5;
6,25728907648231E-5;
6,89871830317382E-5;
5,53681368356349E-5;
1,20276945635679E-5;
-4,76954169553166E-5;
-9,63332657360438E-5;
-0,00011268747217193;
-9,71609145675663E-5;
-6,98074494665252E-5;
-5,31127317787385E-5;
-5,3849539168951E-5;
-5,87589384072961E-5;
-4,71803839207412E-5;
-9,81035996196504E-6;
4,20501238500349E-5;
8,43194300874655E-5;
9,8456900238212E-5;
8,51998656414339E-5;
6,2623850737104E-5;
5,04450444569076E-5;
5,37089076160429E-5;
5,92792198752539E-5;
4,78094701987032E-5;
1,11057572523651E-5;
-3,95307723785631E-5;
-8,08524601655867E-5;
-9,49166802221702E-5;
-8,20309803863013E-5;
-5,90971406290387E-5;
-4,50830139029031E-5;
-4,57315920633583E-5;
-4,99250999448519E-5;
-4,03073379378312E-5;
-9,04385190001131E-6;
3,4419946919101E-5;
6,99263083747265E-5;
8,19572073482829E-5;
7,1122815302106E-5;
5,25181963860593E-5;
4,25883436237756E-5;
4,55113780416478E-5;
5,02952638638237E-5;
4,07912202473113E-5;
1,01745281039315E-5;
-3,21228451924424E-5;
-6,67223001316241E-5;
-7,86660914786456E-5;
-6,81774762400482E-5;
-4,92751246820981E-5;
-3,77077503317896E-5;
-3,82732253893215E-5;
-4,18069493883766E-5;
-3,3969883049599E-5;
-8,27071428073832E-6;
2,75350431460229E-5;
5,68659106819739E-5;
6,69586787489848E-5;
5,83083991515916E-5;
4,32969585639222E-5;
3,53931751295863E-5;
3,79886160781465E-5;
4,20450702366906E-5;
3,43241679518608E-5;
9,24612989751153E-6;
-2,54581198027099E-5;
-5,39290956717801E-5;
-6,39241975409933E-5;
-5,55930757213749E-5;
-4,03382827940923E-5;
-3,09859684091508E-5;
-3,14733404498132E-5;
-3,44033249257035E-5;
-2,81700649735416E-5;
-7,50070366357036E-6;
2,13758681316564E-5;
4,51117581121511E-5;
5,3434685464806E-5;
4,67365128841231E-5;
3,49490521967553E-5;
2,88549439300152E-5;
3,11381340788658E-5;
3,45265967796561E-5;
2,84098420706746E-5;
8,33116758681839E-6;
-1,951408704416E-5;
-4,24417266105826E-5;
-5,06593747682789E-5;
-4,42532734939803E-5;
-3,22713102671832E-5;
-2,49076011258347E-5;
-2,53217765004286E-5;
-2,77032811235947E-5;
-2,29022450009563E-5;
-6,74238817071078E-6;
1,5915175425528E-5;
3,46225123706928E-5;
4,13414690595728E-5;
3,63723573959686E-5;
2,74526818524703E-5;
2,29605129314898E-5;
2,49484226379617E-5;
2,77279266184367E-5;
2,30419623298771E-5;
7,43877250453365E-6;
-1,42610758530243E-5;
-3,22149556202219E-5;
-3,88236267850774E-5;
-3,41195285286239E-5;
-2,50489005697167E-5;
-1,94550960432874E-5;
-1,98009111436365E-5;
-2,1687809322911E-5;
-1,81543929758245E-5;
-6,00316984566565E-6;
1,11196941585602E-5;
2,53450110326773E-5;
3,0621573714016E-5;
2,71693290994781E-5;
2,0777387623296E-5;
1,76897538571089E-5;
1,94005409404063E-5;
2,16289973099884E-5;
1,8207752522869E-5;
6,57666693339183E-6;
-9,66389386186059E-6;
-2,31924197193601E-5;
-2,83559743895655E-5;
-2,5142129252558E-5;
-1,86377466026906E-5;
-1,46048760273352E-5;
-1,48871051415182E-5;
-1,63313982825789E-5;
-1,39092709395673E-5;
-5,28933759679289E-6;
6,95161904709268E-6;
1,72169844370332E-5;
2,12069106761073E-5;
1,90716014386965E-5;
1,4885866079241E-5;
1,30169448712415E-5;
1,44695710537675E-5;
1,62031769344455E-5;
1,38891313501269E-5;
5,75122399715454E-6;
-5,68328486465311E-6;
-1,53092925199817E-5;
-1,91854640327898E-5;
-1,72627255500733E-5;
-1,29983163110414E-5;
-1,03286471406328E-5;
-1,05520054399199E-5;
-1,16034328918277E-5;
-1,01454976266368E-5;
-4,60612083449154E-6;
3,36993424971127E-6;
1,01694600946514E-5;
1,30214851727428E-5;
1,20164384945853E-5;
9,73562308436615E-6;
8,91203961963371E-6;
1,01259190093435E-5;
1,14186841954546E-5;
1,0063802923926E-5;
4,96756262224805E-6;
-2,27718543893514E-6;
-8,49462230490274E-6;
-1,12338359960349E-5;
-1,04165844432898E-5;
-8,08642330452209E-6;
-6,59455235834374E-6;
-6,76369383251327E-6;
-7,46943137473642E-6;
-6,83848664398876E-6;
-3,95774469791599E-6;
3,31560514822593E-7;
4,1288802803227E-6;
5,98380054122017E-6;
5,93622938352199E-6;
5,28041399170645E-6;
5,34177813346434E-6;
6,33648440825562E-6;
7,23985863381805E-6;
6,70622531235839E-6;
4,22963243788925E-6;
5,98169724227887E-7;
-2,67337896715581E-6;
-4,41785085968616E-6;
-4,53455620069811E-6;
-3,85461252938954E-6;
-3,36819602023894E-6;
-3,48769726746519E-6;
-3,89214024869334E-6;
-3,96129107916361E-6;
-3,34748772277517E-6;
-2,2076452345414E-6;
-9,81061325440002E-7;
8,94135423616625E-9;
7,6025367635397E-7;
1,47152746525049E-6;
2,27069125532737E-6;
3,06568718469058E-6;
3,62827864830082E-6;
3,78848276252544E-6;
3,54032341494585E-6;
2,98730819980725E-6;
2,23177183752696E-6;
1,34868306554307E-6;
4,55195740076635E-7;
-2,53369756915217E-7;
-6,13529529146806E-7;
-6,87888803448716E-7;
-8,32500806016226E-7;
-1,48534194848819E-6;
-2,77776316668774E-6;
-4,29205080149098E-6;
-5,23784850176968E-6;
-4,98962632793421E-6;
-3,58377676012707E-6;
-1,74112844502885E-6;
-3,38055654340418E-7;
2,76363875002993E-7;
5,43738549152592E-7;
1,2810381991835E-6;
2,90155149369346E-6;
4,93472636696337E-6;
6,29896132358194E-6;
6,15317223420985E-6;
4,62573280923115E-6;
2,76783459323752E-6;
1,70636004439186E-6;
1,67275567506698E-6;
1,74952940888981E-6;
6,18905936233572E-7;
-2,25018529335295E-6;
-5,96554224687699E-6;
-8,71880469161201E-6;
-9,09853079709256E-6;
-7,16842692756282E-6;
-4,40807596351041E-6;
-2,52191524669989E-6;
-2,06945520236073E-6;
-2,05490645364803E-6;
-8,46609569988424E-7;
2,31436706209155E-6;
6,48421735779439E-6;
9,60582696015441E-6;
1,00827644286089E-5;
8,05007251336911E-6;
5,259665260198E-6;
3,62860657079511E-6;
3,63148005833471E-6;
3,89425114225012E-6;
2,3814165049702E-6;
-1,76564983377007E-6;
-7,27093883425839E-6;
-1,14999899324725E-5;
-1,24032199496393E-5;
-1,00654397665215E-5;
-6,57947996087635E-6;
-4,31832971773963E-6;
-4,00988890629241E-6;
-4,209012960516E-6;
-2,62534652157457E-6;
1,77904166030812E-6;
7,67832642898735E-6;
1,22284584861516E-5;
1,32231226512149E-5;
1,08001453365936E-5;
7,27215938614452E-6;
5,18998695924289E-6;
5,22519896492789E-6;
5,64162324111464E-6;
3,83209248367013E-6;
-1,32441558534134E-6;
-8,24952881535992E-6;
-1,36552822409537E-5;
-1,4986904709232E-5;
-1,23448317362907E-5;
-8,30448427365293E-6;
-5,76420541918641E-6;
-5,58264362557004E-6;
-5,95954116482513E-6;
-4,08596543635611E-6;
1,29517607514761E-6;
8,55792046003684E-6;
1,42405271519856E-5;
1,56574166767808E-5;
1,29459296985524E-5;
8,85412332880957E-6;
6,42646791792956E-6;
6,49003375202603E-6;
7,03076645826303E-6;
5,00037964248211E-6;
-9,26172487200579E-7;
-8,94069405516338E-6;
-1,52556523576913E-5;
-1,69297144064373E-5;
-1,40741625300173E-5;
-9,6306727333748E-6;
-6,89547456729793E-6;
-6,82454763754522E-6;
-7,34654488356817E-6;
-5,25875740308033E-6;
8,61785150102032E-7;
9,16184363768249E-6;
1,5712606499825E-5;
1,74655220766983E-5;
1,45547542246487E-5;
1,00526289878631E-5;
7,37283026812228E-6;
7,46093250757086E-6;
8,09954227586658E-6;
5,91493490343077E-6;
-5,70122434665379E-7;
-9,38163674448982E-6;
-1,63685947613366E-5;
-1,83080295033907E-5;
-1,53179546839605E-5;
-1,06036426422582E-5;
-7,74674444964474E-6;
-7,77117920982424E-6;
-8,40875656725958E-6;
-6,17317308680785E-6;
4,77385471384198E-7;
9,52666950927207E-6;
1,67116335741988E-5;
1,87233907035748E-5;
1,56907605484811E-5;
1,09126196357513E-5;
8,06236425735213E-6;
8,1713672515715E-6;
8,88423617529773E-6;
6,60336396749106E-6;
-2,55047086218439E-7;
-9,60717048117887E-6;
-1,70577027922473E-5;
-1,91939853154985E-5;
-1,61372548833808E-5;
-1,12666655310397E-5;
-8,35101999159902E-6;
-8,45656421502709E-6;
-9,18325908448435E-6;
-6,85755516580897E-6;
1,40085312257962E-7;
9,68652385833595E-6;
1,73005264837709E-5;
1,95025865365863E-5;
1,641448876967E-5;
1,14766103932236E-5;
8,52663055502203E-6;
8,65309918714236E-6;
9,41929959034684E-6;
7,09200231327791E-6;
2,0621697240048E-8;
-9,64960174577618E-6;
-1,73823805076395E-5;
-1,96551073353005E-5;
-1,65893200814644E-5;
-1,1660454502107E-5;
-8,7394921924091E-6;
-8,91294650946166E-6;
-9,70522562494776E-6;
-7,33891910451714E-6;
-1,52345469728967E-7;
9,67297662830331E-6;
1,75379176970408E-5;
1,98699637875432E-5;
1,67825940872697E-5;
1,17844737333155E-5;
8,79531320689368E-6;
8,93601541610258E-6;
9,73715776751277E-6;
7,4057629766794E-6;
2,58738094708425E-7;
-9,53864853579014E-6;
-1,73976464776213E-5;
-1,97540885523714E-5;
-1,6727399458691E-5;
-1,18229847582781E-5;
-8,941394850975E-6;
-9,17062323055063E-6;
-1,00077436307321E-5;
-7,64279726880268E-6;
-4,02394198248986E-7;
9,51498340013803E-6;
1,74779914147556E-5;
1,98874525558705E-5;
1,68476497701173E-5;
1,18732958918005E-5;
8,8960782927751E-6;
9,04800148805243E-6;
9,86809258500555E-6;
7,56801069565012E-6;
4,61378997617171E-7;
-9,30142162229286E-6;
-1,71540494100297E-5;
-1,9548655968368E-5;
-1,66006188461314E-5;
-1,17893968947554E-5;
-8,98389769881706E-6;
-9,2578286909031E-6;
-1,01216755137235E-5;
-7,79312304528667E-6;
-6,12750092074067E-7;
9,23888948514225E-6;
1,71704202766531E-5;
1,96119706926533E-5;
1,66580642452382E-5;
1,17772946430367E-5;
8,85452234043096E-6;
9,01487566836346E-6;
9,8401501610025E-6;
7,60049900501652E-6;
6,30792296016752E-7;
-8,9624529898424E-6;
-1,66976543761163E-5;
-1,9091546694733E-5;
-1,62539432316995E-5;
-1,15919535822001E-5;
-8,89205869453476E-6;
-9,20066964022743E-6;
-1,00755901196026E-5;
-7,81215188913556E-6;
-7,8623323708038E-7;
8,86845920777688E-6;
1,66603708018214E-5;
1,90954033429767E-5;
1,62580422711195E-5;
1,15277966173495E-5;
8,69413993293612E-6;
8,86035606244708E-6;
9,67911817159126E-6;
7,52331858114119E-6;
7,69345278157774E-7;
-8,54374382944922E-6;
-1,60701035416013E-5;
-1,84305510040927E-5;
-1,57282010264867E-5;
-1,12600423726594E-5;
-8,68880542889804E-6;
-9,02309608576959E-6;
-9,89572409424162E-6;
-7,7204189042144E-6;
-9,2574393432868E-7;
8,42494330747499E-6;
1,59885790640913E-5;
1,83846787536238E-5;
1,56876450095651E-5;
1,11532520263698E-5;
8,43632377137598E-6;
8,60606665077407E-6;
9,40851739222292E-6;
7,35488476977061E-6;
8,79477709667243E-7;
-8,06485748028171E-6;
-1,53087256823701E-5;
-1,76086257661246E-5;
-1,50601631753363E-5;
-1,08202145310641E-5;
-8,39495728744092E-6;
-8,74691704114126E-6;
-9,60599551472969E-6;
-7,53673840554165E-6;
-1,03422263504082E-6;
7,92717736772723E-6;
1,51914808558721E-5;
1,75218844989386E-5;
1,4982874949078E-5;
1,06792997037624E-5;
8,10040877776864E-6;
8,27156695598082E-6;
9,04964170482649E-6;
7,111955994347E-6;
9,63662471052524E-7;
-7,54302618910478E-6;
-1,44466970210818E-5;
-1,6664057654921E-5;
-1,42826800046857E-5;
-1,02962736792525E-5;
-8,02926851212149E-6;
-8,39182996466958E-6;
-9,22803015904799E-6;
-7,27820789525835E-6;
-1,11459421010236E-6;
7,39169540243407E-6;
1,4301376030398E-5;
1,65444549034993E-5;
1,41758179590925E-5;
1,01288478718479E-5;
7,70372224585953E-6;
7,87440809939965E-6;
8,62161679610051E-6;
6,80965954619592E-6;
1,0243669076467E-6;
-6,99327611093721E-6;
-1,35132316859601E-5;
-1,56306631608669E-5;
-1,34248339812717E-5;
-9,70936995977356E-6;
-7,60848930278651E-6;
-7,97548682902597E-6;
-8,78123568465394E-6;
-6,96024881246553E-6;
-1,1697425263483E-6;
6,83286486405971E-6;
1,33466355363396E-5;
1,54853744784651E-5;
1,32948187231995E-5;
9,52218976873199E-6;
7,26166461317639E-6;
7,43020990548416E-6;
8,14147452951672E-6;
6,46154771414127E-6;
1,06402700221223E-6;
-6,42856333011469E-6;
-1,25338024534315E-5;
-1,45380332454526E-5;
-1,25121379621465E-5;
-9,07813365700227E-6;
-7,14745916263366E-6;
-7,51356915131403E-6;
-8,28287749852026E-6;
-6,59665848407677E-6;
-1,20247372484495E-6;
6,26302377399309E-6;
1,23519288173289E-5;
1,43734315938039E-5;
1,23646775799064E-5;
8,87714085517837E-6;
6,78780179322771E-6;
6,95275350791579E-6;
7,62425667456214E-6;
6,07965565605859E-6;
1,08501280338525E-6;
-5,85993019209382E-6;
-1,15303824809896E-5;
-1,34117875058683E-5;
-1,15667464814028E-5;
-8,4188098746631E-6;
-6,65919972204098E-6;
-7,01988986571709E-6;
-7,74818113506509E-6;
-6,19968006037032E-6;
-1,2154953104433E-6;
5,69263164666223E-6;
1,13384634575852E-5;
1,32334839436066E-5;
1,14068675430811E-5;
8,20917827853461E-6;
6,29396888607757E-6;
6,45407596785816E-6;
7,08311760135508E-6;
5,67458033057933E-6;
1,08961405678136E-6;
-5,29664181354718E-6;
-1,05216908476085E-5;
-1,22738503343021E-5;
-1,06076804822851E-5;
-7,74541694891614E-6;
-6,15501983812901E-6;
-6,50649192783968E-6;
-7,19044856163517E-6;
-5,78007616153588E-6;
-1,21139064687168E-6;
5,13042557584311E-6;
1,03242469539357E-5;
1,20867340746164E-5;
1,04397668929166E-5;
7,5316008771729E-6;
5,7903780490034E-6;
5,94458560895399E-6;
6,52944202019008E-6;
5,25556037622089E-6;
1,08001723053125E-6;
-4,74635171991697E-6;
-9,52345188065357E-6;
-1,11427338077644E-5;
-9,65106041724836E-6;
-7,06990274192286E-6;
-5,644640554761E-6;
-5,98376726982994E-6;
-6,62117676110752E-6;
-5,34721918255441E-6;
-1,19260349907601E-6;
4,58356900349156E-6;
9,32434060884287E-6;
1,09510201799925E-5;
9,47889602034366E-6;
6,85569364031576E-6;
5,28573735066473E-6;
5,43317353913213E-6;
5,97297563428612E-6;
4,83056625399706E-6;
1,05829277421024E-6;
-4,21524610003099E-6;
-8,54866005568572E-6;
-1,00338273754208E-5;
-8,71035108505606E-6;
-6,40231296589143E-6;
-5,13629906479146E-6;
-5,46057362087792E-6;
-6,05018574246182E-6;
-4,90917387700821E-6;
-1,16142583081602E-6;
4,05780709919876E-6;
8,35112488326121E-6;
9,84110623474372E-6;
8,53716017915445E-6;
6,19088550039695E-6;
4,78736891949888E-6;
4,92733777520074E-6;
5,42194040288701E-6;
4,40638422895309E-6;
1,026381464121E-6;
-3,7081977252105E-6;
-7,60783148215078E-6;
-8,95968271237141E-6;
-7,79658879078177E-6;
-5,75094803260078E-6;
-4,6368848923441E-6;
-4,9443524558342E-6;
-5,48574804951465E-6;
-4,47280973132845E-6;
-1,11999281754918E-6;
3,55761392257302E-6;
7,41455637959848E-6;
8,76896760353158E-6;
7,62508356479273E-6;
5,54492219554718E-6;
4,30132697439284E-6;
4,43328990496803E-6;
4,88317371068094E-6;
3,98872507546688E-6;
9,8609040106933E-7;
-3,22890820473462E-6;
-6,70925332427515E-6;
-7,93029176533141E-6;
-6,91862795935214E-6;
-5,12253287289944E-6;
-4,15204654957539E-6;
-4,44125636268466E-6;
-4,93472533937903E-6;
-4,04387819566599E-6;
-1,07027054853966E-6;
3,0863346048596E-6;
6,52241970621988E-6;
7,74407386839392E-6;
6,75105029589411E-6;
4,92402139865679E-6;
3,83252005944497E-6;
3,95609081760502E-6;
4,36224654938596E-6;
3,58229865190036E-6;
9,39087641526664E-7;
-2,78004305740105E-6;
-5,85923763931817E-6;
-6,95336423944458E-6;
-6,08336015733183E-6;
-4,52237481728239E-6;
-3,68631906091265E-6;
-3,95626895465827E-6;
-4,40269080338443E-6;
-3,62711537850862E-6;
-1,01406068757811E-6;
2,64632291706167E-6;
5,68056655831371E-6;
6,77365388551128E-6;
5,9215280778202E-6;
4,33303542854293E-6;
3,38481889543116E-6;
3,49974605399523E-6;
3,86358887832855E-6;
3,19091870903263E-6;
8,86895989266524E-7;
-2,36336785178873E-6;
-5,06233892688329E-6;
-6,0345822126684E-6;
-5,29593591813529E-6;
-3,95451258149096E-6;
-3,24323916528922E-6;
-3,4933173164964E-6;
-3,89406437962541E-6;
-3,22634818644036E-6;
-9,52989275919443E-7;
2,2390716744163E-6;
4,89314945022322E-6;
5,86296613628283E-6;
5,14128399192087E-6;
3,77560136401923E-6;
2,96117488933786E-6;
3,06732824866398E-6;
3,39061484787173E-6;
2,81758920412554E-6;
8,30895867902261E-7;
-1,97986840856581E-6;
-4,32158656046269E-6;
-5,17785345297543E-6;
-4,55997786936919E-6;
-3,4218689431004E-6;
-2,82544790162159E-6;
-3,05538965018424E-6;
-3,41222819438196E-6;
-2,84457028582696E-6;
-8,88524665948857E-7;
1,86532481080448E-6;
4,16283645695641E-6;
5,0155368173875E-6;
4,41359850066562E-6;
3,25428654404633E-6;
2,56372435870564E-6;
2,66108354256879E-6;
2,94583436115603E-6;
2,46459002399123E-6;
7,72324468425776E-7;
-1,62986213297012E-6;
-3,63868276285415E-6;
-4,38554241839744E-6;
-3,87776989531093E-6;
-2,92638595167835E-6;
-2,43480596914463E-6;
-2,64464356871554E-6;
-2,95964753951128E-6;
-2,48404018900541E-6;
-8,21970649722988E-7;
1,52520105549989E-6;
3,49101770247874E-6;
4,23339234673503E-6;
3,74045652987859E-6;
2,77071933137068E-6;
2,19388608203642E-6;
2,28252945182825E-6;
2,53095727579281E-6;
2,13356215736642E-6;
7,12285274962756E-7;
-1,31311177986149E-6;
-3,01420037976666E-6;
-3,65868242152908E-6;
-3,25044669366567E-6;
-2,46916154920059E-6;
-2,0724896189408E-6;
-2,2625067101963E-6;
-2,5379871151692E-6;
-2,14636867889574E-6;
-7,54471831452909E-7;
1,2182882760902E-6;
2,87799442940416E-6;
3,51727821228706E-6;
3,12272871938872E-6;
2,32573088587454E-6;
1,85246315943866E-6;
1,93255009514255E-6;
2,14700906389663E-6;
1,82558276088553E-6;
6,51743596620414E-7;
-1,02890927713497E-6;
-2,44775952343994E-6;
-2,99719124384293E-6;
-2,678162740334E-6;
-2,05056315031764E-6;
-1,73908237671294E-6;
-1,90977490646062E-6;
-2,14821081969527E-6;
-1,83259410434825E-6;
-6,87027721535557E-7;
9,43736167760665E-7;
2,32315055258883E-6;
2,86685468469181E-6;
2,5603435549101E-6;
1,91945449616882E-6;
1,53972078117717E-6;
1,61148944059462E-6;
1,79441334510169E-6;
1,54124278531498E-6;
5,91539634446201E-7;
-7,76176407665588E-7;
-1,9381826262857E-6;
-2,40003965666344E-6;
-2,16025021912601E-6;
-1,67034210912662E-6;
-1,43466335220704E-6;
-1,5867056041752E-6;
-1,79068152221146E-6;
-1,54326040188813E-6;
-6,20493576778344E-7;
7,00351371428461E-7;
1,82511580570661E-6;
2,28087573605783E-6;
2,05243573393292E-6;
1,55145449796937E-6;
1,25548291529263E-6;
1,31922806480982E-6;
1,47309391221996E-6;
1,28071546732992E-6;
5,32388709056266E-7;
-5,53532229281465E-7;
-1,48364932031432E-6;
-1,86543043803599E-6;
-1,69536174537051E-6;
-1,32774466568705E-6;
-1,15888965675818E-6;
-1,29309284204614E-6;
-1,46525340424846E-6;
-1,27849143844113E-6;
-5,55593994641765E-7;
4,86662059723593E-7;
1,38190753749343E-6;
1,7573637408831E-6;
1,59749636478576E-6;
1,2208118834157E-6;
9,9919119164696E-7;
1,05525847044561E-6;
1,18254136464007E-6;
1,04381824641692E-6;
4,74899980277453E-7;
-3,59371948608023E-7;
-1,08183169394967E-6;
-1,39094885253312E-6;
-1,28160130852983E-6;
-1,02159508984109E-6;
-9,11065991723767E-7;
-1,02835157896493E-6;
-1,17135319993869E-6;
-1,03804735236744E-6;
-4,92926733790245E-7;
3,00990623929454E-7;
9,9106317199372E-7;
1,29375139849205E-6;
1,19348961554615E-6;
9,26219944991608E-7;
7,69982600425991E-7;
8,18762592897516E-7;
9,21905301458617E-7;
8,30070793624707E-7;
4,19570199696661E-7;
-1,91923335429457E-7;
-7,30000301993902E-7;
-9,73695079794407E-7;
-9,1664183371198E-7;
-7,50383745406592E-7;
-6,90209943921309E-7;
-7,91582482866664E-7;
-9,08057668062353E-7;
-8,21394175645237E-7;
-4,32979152414832E-7;
1,41512616315442E-7;
6,49747644980128E-7;
8,87015256660437E-7;
8,37978790877847E-7;
6,66069115587247E-7;
5,66750662366896E-7;
6,08663541654277E-7;
6,90049866407164E-7;
6,38753705863125E-7;
3,66800888782564E-7;
-4,93031520894248E-8;
-4,25138800212045E-7;
-6,10408113762501E-7;
-5,97828280417126E-7;
-5,1234786111719E-7;
-4,95118872508142E-7;
-5,81638482452473E-7;
-6,7416106019242E-7;
-6,27754283471147E-7;
-3,76135902533436E-7;
6,31042249144444E-9;
3,54865814363497E-7;
5,33798121387819E-7;
5,28218698399203E-7;
4,38514115062489E-7;
3,88198417163238E-7;
4,23684583373035E-7;
4,85615379130878E-7;
4,68950167957207E-7;
3,16905245663092E-7;
7,04365624050915E-8;
-1,64038281101225E-7;
-2,97574004778866E-7;
-3,22264337679146E-7;
-3,05529644759572E-7;
-3,24413595698286E-7;
-3,97175456599718E-7;
-4,68243139915349E-7;
-4,56155477824844E-7;
-3,22680491158806E-7;
-1,06585155036207E-7;
1,03143740572134E-7;
2,30509266061279E-7;
2,61248424990525E-7;
2,41542738345089E-7;
2,32886131914094E-7;
2,62403741973168E-7;
3,07082346576575E-7;
3,19592646863819E-7;
2,70112855140515E-7;
1,69267808919335E-7;
5,66344318761256E-8;
-3,1516703745871E-8;
-8,69058658691684E-8;
-1,27842581355476E-7;
-1,76593307665396E-7;
-2,36708248350625E-7;
-2,88713493898391E-7;
-3,05472066115707E-7;
-2,72816423886139E-7;
-1,99155970686174E-7;
-1,08789035560379E-7;
-2,6582450967357E-8;
3,39687823573844E-8;
7,3026177913392E-8;
9,92771988326317E-8;
1,23291599326735E-7;
1,52805673446575E-7;
1,8950170196453E-7;
2,26582135561812E-7;
2,49152000584258E-7;
2,4026023515138E-7;
1,91525137960407E-7;
1,11384229754462E-7;
2,28799738543529E-8;
-5,00742004667677E-8;
-9,86486748481425E-8;
-1,33867822770974E-7;
-1,74473484257631E-7;
-2,2667161423222E-7;
-2,73362076477759E-7;
-2,84337471896961E-7;
-2,41274125602265E-7;
-1,56789993039059E-7;
-6,92252513949451E-8;
-1,42269439332978E-8;
4,75226637013328E-9;
2,10684463324636E-8;
7,74178423439524E-8;
1,8640957835962E-7;
3,12016985976987E-7;
3,90208736206176E-7;
3,75323237970171E-7;
2,75766481833798E-7;
1,48841546094782E-7;
5,67760283800001E-8;
1,8647127679506E-8;
-1,93002028811655E-9;
-6,1847572431403E-8;
-1,84306937771057E-7;
-3,31119599417169E-7;
-4,26884667192374E-7;
-4,17359632226128E-7;
-3,14209288085551E-7;
-1,87424649905611E-7;
-1,09250383148486E-7;
-9,48441305723924E-8;
-8,98895147229168E-8;
-1,79637511692471E-8;
1,49629216428205E-7;
3,59722148957683E-7;
5,09795247365083E-7;
5,23605498471448E-7;
4,09379093790636E-7;
2,52247206287336E-7;
1,4560706874968E-7;
1,16857505228904E-7;
1,08915809836247E-7;
3,3761078765915E-8;
-1,45724591990736E-7;
-3,74274633077927E-7;
-5,39743959151458E-7;
-5,5857598163244E-7;
-4,41434015456684E-7;
-2,83771164634158E-7;
-1,87419187622499E-7;
-1,77130104126607E-7;
-1,81837654850659E-7;
-9,79743656797802E-8;
1,16233357418923E-7;
3,94056127945698E-7;
6,0223692204644E-7;
6,40010592114239E-7;
5,15294495506443E-7;
3,35262354302762E-7;
2,18058271141429E-7;
1,9765929153661E-7;
2,00488149373134E-7;
1,1372922122176E-7;
-1,10876973517635E-7;
-4,04589174375615E-7;
-6,26122379916205E-7;
-6,68561715201166E-7;
-5,41540135683861E-7;
-3,6042125419836E-7;
-2,50336205866313E-7;
-2,4372366874174E-7;
-2,56528544169409E-7;
-1,63946884056433E-7;
8,61651047176876E-8;
4,16711134479718E-7;
6,70626503407717E-7;
7,28047020822488E-7;
5,9648697502033E-7;
4,0000051625196E-7;
2,75736054132624E-7;
2,62702748550018E-7;
2,74585514436597E-7;
1,79430426737593E-7;
-7,96773060327555E-8;
-4,2373116868656E-7;
-6,89092187824471E-7;
-7,50813382369881E-7;
-6,1749076426201E-7;
-4,19466716600063E-7;
-2,99566986341688E-7;
-2,96203903174801E-7;
-3,15674211431397E-7;
-2,17192310582754E-7;
5,93386853815649E-8;
4,29277173187137E-7;
7,17900179306832E-7;
7,91066520895796E-7;
6,55806844047129E-7;
4,48492524452613E-7;
3,2020150912699E-7;
3,13600305374377E-7;
3,32965539989692E-7;
2,32219129004256E-7;
-5,20015131017372E-8;
-4,33258793287652E-7;
-7,31566178531184E-7;
-8,08662015515614E-7;
-6,72118876246775E-7;
-4,62910979646098E-7;
-3,36610935396458E-7;
-3,3609307859754E-7;
-3,60934519781857E-7;
-2,58995030324516E-7;
3,56310977535103E-8;
4,33231773169914E-7;
7,4682605087552E-7;
8,32234488500548E-7;
6,95953215746076E-7;
4,82674237673243E-7;
3,52949018165846E-7;
3,51901436537299E-7;
3,77323906500533E-7;
2,73413644499578E-7;
-2,76976296673012E-8;
-4,34618566157294E-7;
-7,56279870416098E-7;
-8,45250042365756E-7;
-7,0810360120419E-7;
-4,92658823985587E-7;
-3,62907305851825E-7;
-3,64848539878678E-7;
-3,93894421050158E-7;
-2,90589219638918E-7;
1,49034639406522E-8;
4,29942030883761E-7;
7,5998702790668E-7;
8,54520396266168E-7;
7,19468141240403E-7;
5,0437399493568E-7;
3,75400085907944E-7;
3,79087427307481E-7;
4,0928227128035E-7;
3,04282755015304E-7;
-6,59153169888334E-9;
-4,29141758475721E-7;
-7,65782918483867E-7;
-8,63517297088722E-7;
-7,27960171936349E-7;
-5,10502504325497E-7;
-3,79812019102685E-7;
-3,83848970947445E-7;
-4,16058447501443E-7;
-3,13157923811872E-7;
-3,00682491424299E-9;
4,20656279765009E-7;
7,59776739198304E-7;
8,60684548195175E-7;
7,28715532050222E-7;
5,15300447755373E-7;
3,88893836212178E-7;
3,96557352058062E-7;
4,30374141220044E-7;
3,26034001944034E-7;
1,15051149453152E-8;
-4,18044465310851E-7;
-7,62431066915117E-7;
-8,66190287032701E-7;
-7,34028358184976E-7;
-5,1811577611045E-7;
-3,88596244668247E-7;
-3,94391910070482E-7;
-4,28844058336751E-7;
-3,2781856420788E-7;
-1,82716440902722E-8;
4,06509385972884E-7;
7,48390856456172E-7;
8,53270893656007E-7;
7,25887365162437E-7;
5,17044606559559E-7;
3,94681176739025E-7;
4,05623929357231E-7;
4,42045621742419E-7;
3,39816628908442E-7;
2,67968015835092E-8;
-4,02424068287007E-7;
-7,48383032150663E-7;
-8,55779137764414E-7;
-7,28461504084461E-7;
-5,17042860535419E-7;
-3,9044209108846E-7;
-3,97683008432907E-7;
-4,33570874767941E-7;
-3,35624133543876E-7;
-3,10787626676503E-8;
3,88518778659092E-7;
7,2783072025594E-7;
8,34605063372208E-7;
7,12990118386853E-7;
5,11068601945972E-7;
3,93920394499351E-7;
4,07507210733189E-7;
4,45637680180114E-7;
3,4670183797009E-7;
3,94919091242787E-8;
-3,83269091844468E-7;
-7,25601405521959E-7;
-8,34573081593546E-7;
-7,13236866425595E-7;
-5,08709663843372E-7;
-3,8644349889292E-7;
-3,94841298341876E-7;
-4,31461260794058E-7;
-3,37550553149001E-7;
-4,16136814904826E-8;
3,67596034932423E-7;
6,99904576069563E-7;
8,06797934956195E-7;
6,91850764386545E-7;
4,98710169566488E-7;
3,87676964927222E-7;
4,03331612695892E-7;
4,42392509930652E-7;
3,4768921169528E-7;
4,98053840548856E-8;
-3,61453116775237E-7;
-6,95854203222223E-7;
-8,04643824042485E-7;
-6,90148212877563E-7;
-4,94413746319838E-7;
-3,77593863689359E-7;
-3,86888077706674E-7;
-4,2364027317471E-7;
-3,3450385250959E-7;
-5,00704795224001E-8;
3,44541869599465E-7;
6,66234440194623E-7;
7,71751087142877E-7;
6,64116307863296E-7;
4,81180734356181E-7;
3,7692284062481E-7;
3,94130299529823E-7;
4,33453041786179E-7;
3,43698599659024E-7;
5,79477654188E-8;
-3,37748196460275E-7;
-6,60723648175599E-7;
-7,6785546700229E-7;
-6,60810570970313E-7;
-4,75325987181122E-7;
-3,64802484962318E-7;
-3,74755577201634E-7;
-4,11128063224884E-7;
-3,27312755513683E-7;
-5,66399721744217E-8;
3,20060582936913E-7;
6,28258372229369E-7;
7,31157152839929E-7;
6,31263630346216E-7;
4,59570569978598E-7;
3,62536805336609E-7;
3,80836471850358E-7;
4,19852888219285E-7;
3,35578172530094E-7;
6,41319717940359E-8;
-3,12828082769491E-7;
-6,21608904998707E-7;
-7,25865391351911E-7;
-6,26667493554117E-7;
-4,52495788521987E-7;
-3,48884820396258E-7;
-3,59284015347354E-7;
-3,94851823404969E-7;
-3,16736707894172E-7;
-6,15097411991122E-8;
2,94760716495826E-7;
5,87242070672519E-7;
6,86516523251671E-7;
5,94603468505507E-7;
4,34851633936101E-7;
3,45308610598298E-7;
3,64297323156187E-7;
4,0253190834633E-7;
3,24093663392139E-7;
6,85624004221193E-8;
-2,87272122373587E-7;
-5,79743071370228E-7;
-6,80136419102068E-7;
-5,8899459328595E-7;
-4,26859478825341E-7;
-3,30571028699776E-7;
-3,4122801340714E-7;
-3,75641442762815E-7;
-3,03455897360133E-7;
-6,48646153321718E-8;
2,69161419565699E-7;
5,44289699212406E-7;
6,39141370057131E-7;
5,55285543394487E-7;
4,07881706136326E-7;
3,25942114159811E-7;
3,4526570388793E-7;
3,82324611294948E-7;
3,09938202892274E-7;
7,1440782418073E-8;
-2,61573237353242E-7;
-5,36193176203155E-7;
-6,31946933936304E-7;
-5,48913777538391E-7;
-3,99238696110505E-7;
-3,1050590286995E-7;
-3,21255312423492E-7;
-3,54236086544709E-7;
-2,88083737788892E-7;
-6,68807140837661E-8;
2,43701013424172E-7;
5,0035321162687E-7;
5,90171622126341E-7;
5,14315422672733E-7;
3,79415358649408E-7;
3,05054703183438E-7;
3,24410518868983E-7;
3,59980213316598E-7;
2,9373137403676E-7;
7,29549531281135E-8;
-2,36147206764646E-7;
-4,91878500638764E-7;
-5,82401751254567E-7;
-5,07398606389992E-7;
-3,70353694502525E-7;
-2,89257570691022E-7;
-2,99954844229027E-7;
-3,3128457364873E-7;
-2,71162841971567E-7;
-6,77276082988047E-8;
2,1874337061107E-7;
4,5624111069843E-7;
5,40581512810956E-7;
4,72554709764855E-7;
3,50104954079487E-7;
2,83191001382205E-7;
3,02318033910089E-7;
3,36153694163594E-7;
2,76023608299744E-7;
7,32868236730328E-8;
-2,1133217823332E-7;
-4,47577207178082E-7;
-5,32447031306668E-7;
-4,65285261960733E-7;
-3,4082382865957E-7;
-2,67317691701413E-7;
-2,77840439354052E-7;
-3,0735729476152E-7;
-2,53173318651172E-7;
-6,75632572704298E-8;
1,94587011529539E-7;
4,12633157431957E-7;
4,91196193529778E-7;
4,30738884237857E-7;
3,20507789171513E-7;
2,6081749930601E-7;
2,79499761945799E-7;
3,11417593357261E-7;
2,5729964595249E-7;
7,26058917934136E-8;
-1,87407009669294E-7;
-4,03941812058738E-7;
-4,82877991938262E-7;
-4,23279493468014E-7;
-3,11178824782098E-7;
-2,45110965289413E-7;
-2,5535451437631E-7;
-2,82947843117706E-7;
-2,34534559102642E-7;
-6,65394028595481E-8;
1,71463101481234E-7;
3,70090074099775E-7;
4,4270359911351E-7;
3,89481071674363E-7;
2,91096510515087E-7;
2,38336316433419E-7;
2,56394258121588E-7;
2,862631605753E-7;
2,37977558416018E-7;
7,10686961210038E-8;
-1,64587989904787E-7;
-3,61505141937255E-7;
-4,34356275157854E-7;
-3,81974983654243E-7;
-2,81862654127206E-7;
-2,22994381312604E-7;
-2,32872281954807E-7;
-2,58472065892395E-7;
-2,15602724170636E-7;
-6,47928116123049E-8;
1,49554005953317E-7;
3,29066570258242E-7;
3,95668803157592E-7;
3,49290714216177E-7;
2,62262493143829E-7;
2,16083331632495E-7;
2,33373943035962E-7;
2,61112484471553E-7;
2,1842163721938E-7;
6,88234868840073E-8;
-1,43037884500084E-7;
-3,20698987279387E-7;
-3,87419462907663E-7;
-3,41855960511428E-7;
-2,53243687603155E-7;
-2,01267893254192E-7;
-2,10710853369376E-7;
-2,34285818355991E-7;
-1,96693193182979E-7;
-6,24549877272913E-8;
1,28992908629804E-7;
2,89915179427623E-7;
3,50537780766535E-7;
3,10577948667926E-7;
2,34329963884E-7;
1,94338283581072E-7;
2,10748410577425E-7;
2,36318096253316E-7;
1,98941183733959E-7;
6,60039967950836E-8;
-1,22875343729839E-7;
-2,81854620019845E-7;
-3,42492119142634E-7;
-3,03310962275309E-7;
-2,25620764771159E-7;
-1,80178477156074E-7;
-1,89132052307919E-7;
-2,10681341899725E-7;
-1,78057772870425E-7;
-5,96413747084703E-8;
1,09867356988084E-7;
2,5290749986524E-7;
3,07659222997763E-7;
2,73661493899492E-7;
2,07549971119366E-7;
1,73330118951739E-7;
1,88777328808703E-7;
2,12169506829121E-7;
1,79792132069934E-7;
6,27314222269998E-8;
-1,04176630122667E-7;
-2,45224396066315E-7;
-2,99904609855078E-7;
-2,66644000936662E-7;
-1,99230611087021E-7;
-1,59921725166235E-7;
-1,68344239601841E-7;
-1,87897651018611E-7;
-1,59913776817905E-7;
-5,6458995883977E-8;
9,22331426470585E-8;
2,18241545136186E-7;
2,67292712221217E-7;
2,38786097190149E-7;
1,82126612367968E-7;
1,53237562048456E-7;
1,67663181824029E-7;
1,88905703233923E-7;
1,61188968044373E-7;
5,91178069461386E-8;
-8,69842117576787E-8;
-2,10986412986782E-7;
-2,59894802119916E-7;
-2,32079374976802E-7;
-1,74250916873783E-7;
-1,40654099643407E-7;
-1,48518010543135E-7;
-1,66122492254175E-7;
-1,42434622600704E-7;
-5,30057840029162E-8;
7,61090848898961E-8;
1,86039421539018E-7;
2,29615919034831E-7;
2,06125096082829E-7;
1,58202342848947E-7;
1,34200776970321E-7;
1,4756890145295E-7;
1,66710568020707E-7;
1,4330294103816E-7;
5,52588085044526E-8;
-7,13116252390568E-8;
-1,79252268881376E-7;
-2,22626522021211E-7;
-1,99776225684849E-7;
-1,50812749153287E-7;
-1,2248731083838E-7;
-1,29774796232215E-7;
-1,45500462902568E-7;
-1,2575527318888E-7;
-4,93631718495949E-8;
6,14942221820261E-8;
1,56375072810063E-7;
1,94740119492314E-7;
1,7579094601896E-7;
1,3587755121357E-7;
1,16318946376763E-7;
1,28612753271954E-7;
1,45723249217372E-7;
1,26268104377214E-7;
5,12443357939006E-8;
-5,71437600359036E-8;
-1,50078044158463E-7;
-1,88194937102593E-7;
-1,69835733138676E-7;
-1,2900452037125E-7;
-1,05504542268562E-7;
-1,1220678974906E-7;
-1,26133889543636E-7;
-1,09979714029094E-7;
-4,56111544526663E-8;
4,83572167229235E-8;
1,2926804611727E-7;
1,62717284040359E-7;
1,47845330220756E-7;
1,1521680547596E-7;
9,96631831397046E-8;
1,10882286644709E-7;
1,26048408278751E-7;
1,10184754632175E-7;
4,71476059441192E-8;
-4,44486300570362E-8;
-1,23476538954192E-7;
-1,56641241974257E-7;
-1,42306005818878E-7;
-1,08875022717209E-7;
-8,97562584129511E-8;
-9,58730353446574E-8;
-1,08097144377797E-7;
-9,51847501640012E-8;
-4,18128586339591E-8;
3,66563037860316E-8;
1,0470100472419E-7;
1,33550213908543E-7;
1,22305793590061E-7;
9,62466805120019E-8;
8,42699759197185E-8;
9,44296327938696E-8;
1,07750498175549E-7;
9,51257457470321E-8;
4,30395868142176E-8;
-3,31752229942925E-8;
-9,94173614125738E-8;
-1,27954169360577E-7;
-1,17196068536038E-7;
-9,04421610888936E-8;
-7,52673944079514E-8;
-8,08072744957942E-8;
-9,14286822600247E-8;
-8,14179898780175E-8;
-3,8025877735411E-8;
2,63306313901164E-8;
8,26174500289991E-8;
1,0719660900089E-7;
9,9149352623121E-8;
7,89665090843013E-8;
7,01576628228529E-8;
7,92814513786933E-8;
9,08673801498894E-8;
8,11390085750051E-8;
3,89725057137492E-8;
-2,32604594799808E-8;
-7,78379963694964E-8;
-1,02085926844018E-7;
-9,44743861223885E-8;
-7,36954542941925E-8;
-6,20402907314854E-8;
-6,7015937752124E-8;
-7,61433536085356E-8;
-6,87078330332694E-8;
-3,42983742682489E-8;
1,73124180354772E-8;
6,29390540635199E-8;
8,35824591294018E-8;
7,83247204629923E-8;
6,33497804459386E-8;
5,73182801795923E-8;
6,54456174731429E-8;
7,54104501086177E-8;
6,82446547932036E-8;
3,49950465205851E-8;
-1,46299925176242E-8;
-5,86512787998662E-8;
-7,89539901107978E-8;
-7,40822165232687E-8;
-5,8603265297049E-8;
-5,00626979192068E-8;
-5,44930821991132E-8;
-6,22348387330012E-8;
-5,70620090411897E-8;
-3,06724192883091E-8;
9,51961434697114E-9;
4,55595585242919E-8;
6,26059181367833E-8;
5,97548481315647E-8;
4,93532725754739E-8;
4,57321914228837E-8;
5,29041208402661E-8;
6,13676007797795E-8;
5,64524387804224E-8;
3,11470978923184E-8;
-7,20311625350183E-9;
-4,17453735079166E-8;
-5,84476585505546E-8;
-5,59354515474967E-8;
-4,51140836814583E-8;
-3,93008281281855E-8;
-4,32086135670714E-8;
-4,96792964336747E-8;
-4,64731853436902E-8;
-2,71776565152981E-8;
2,86925794807747E-9;
3,03566701719978E-8;
4,41407710187718E-8;
4,33414334199055E-8;
3,69149048926526E-8;
3,53620474849856E-8;
4,16289699273723E-8;
4,87087797099941E-8;
4,57475200548976E-8;
2,74612881948848E-8;
-8,94956995416081E-10;
-2,69972212625088E-8;
-4,04371525517152E-8;
-3,99331128785757E-8;
-3,31620348823689E-8;
-2,97126622607626E-8;
-3,31245246139982E-8;
-3,84347881323405E-8;
-3,69214432867496E-8;
-2,38442503141974E-8;
-2,7253091287371E-9;
1,72015131910333E-8;
2,80489665823545E-8;
2,89717871875555E-8;
2,5960674239659E-8;
2,61577314200326E-8;
3,15742679938364E-8;
3,73934972279214E-8;
3,61087724872643E-8;
2,39615726475464E-8;
4,38471734899301E-9;
-1,4271056985649E-8;
-2,47791038135668E-8;
-2,59560130647749E-8;
-2,26700985758685E-8;
-2,12473646193078E-8;
-2,41916303377239E-8;
-2,84488748117935E-8;
-2,83725096526856E-8;
-2,06917404967005E-8;
-7,35390802361836E-9;
5,95077669080495E-9;
1,41761997945523E-8;
1,65222403589142E-8;
1,64093395704064E-8;
1,80636496833369E-8;
2,26863076051369E-8;
2,73636581961363E-8;
2,74989124149229E-8;
2,06664882792692E-8;
8,72547928223801E-9;
-3,42176591547294E-9;
-1,13186441644356E-8;
-1,38799279693319E-8;
-1,35526492093718E-8;
-1,38417823826202E-8;
-1,63490702384901E-8;
-1,96634717186936E-8;
-2,07886146362637E-8;
-1,77331641473339E-8;
-1,11053989308895E-8;
-3,54275216500572E-9;
2,3623379616948E-9;
5,85943369291071E-9;
8,16963361785436E-9;
1,1017212269022E-8;
1,490538115164E-8;
1,85552916913074E-8;
1,98758114640158E-8;
1,75906204788792E-8;
1,22166056733578E-8;
5,69920669634834E-9;
1,0759389493224E-10;
-3,56901047785481E-9;
-5,71757822953037E-9;
-7,43319359733434E-9;
-9,53524495943853E-9;
-1,20072011542642E-8;
-1,41187580060073E-8;
-1,49805776688853E-8;
-1,40683541810079E-8;
-1,14267274306118E-8;
-7,55586424706932E-9;
-3,15149427827062E-9;
1,14726505496517E-9;
4,94839353543487E-9;
8,1633564497457E-9;
1,0896366336639E-8;
1,31864837088637E-8;
1,47405386653251E-8;
1,49429084147855E-8;
1,3237869056975E-8;
9,66688072566588E-9;
5,11586176095929E-9;
9,28763655452473E-10;
-1,95051068746514E-9;
-3,6784493936096E-9;
-5,40758168423052E-9;
-8,31301091465089E-9;
-1,24404485730669E-8;
-1,6328115682732E-8;
-1,78482688636215E-8;
-1,57415890513179E-8;
-1,06495717429186E-8;
-4,75222508867867E-9;
-2,11516505718219E-10;
2,38696241405882E-9;
4,31006595786656E-9;
7,37657002439566E-9;
1,21224222407164E-8;
1,69932039579558E-8;
1,93443838421496E-8;
1,75212400116275E-8;
1,23114332468497E-8;
6,48558098001336E-9;
2,67637518579729E-9;
1,28877313213861E-9;
2,11633855489666E-10;
-3,31307683284856E-9;
-1,01145109686543E-8;
-1,79652363707253E-8;
-2,29531706030947E-8;
-2,23619404718269E-8;
-1,67718946678595E-8;
-9,62698010364629E-9;
-4,53758005307953E-9;
-2,49441635052059E-9;
-1,28103641067992E-9;
2,38859792268504E-9;
9,73554701833924E-9;
1,84447659319649E-8;
2,41650088255743E-8;
2,38373146566269E-8;
1,81557611454833E-8;
1,10472557599513E-8;
6,51953538004614E-9;
5,44199018712838E-9;
4,92913844481415E-9;
9,39342389757005E-10;
-8,00015506512541E-9;
-1,90580019064165E-8;
-2,68812142980718E-8;
-2,75716061096455E-8;
-2,16537255985691E-8;
-1,35732547304697E-8;
-8,10235693340705E-9;
-6,55839925666899E-9;
-5,95850548413045E-9;
-1,84142640077579E-9;
7,57560726805834E-9;
1,93764815801141E-8;
2,78375020832691E-8;
2,87727715467185E-8;
2,27851296744762E-8;
1,47105089137002E-8;
9,65207542879301E-9;
8,85258295549661E-9;
8,82165881138629E-9;
4,50229711423663E-9;
-6,09746510427532E-9;
-1,96806166518818E-8;
-2,97670291605402E-8;
-3,15273096560704E-8;
-2,54267148447186E-8;
-1,66838729998427E-8;
-1,09762590054032E-8;
-9,87658715845145E-9;
-9,80388607054056E-9;
-5,37253969166738E-9;
5,64130085122613E-9;
1,98581409137221E-8;
3,04952189357135E-8;
3,24812058367631E-8;
2,63301895793276E-8;
1,75680599755558E-8;
1,21413480657408E-8;
1,1589978695192E-8;
1,19674116922741E-8;
7,43888019959029E-9;
-4,39625132993527E-9;
-1,98997498032568E-8;
-3,17417108593819E-8;
-3,43775845451497E-8;
-2,82147906376007E-8;
-1,90505114401754E-8;
-1,32320816172363E-8;
-1,25214368427704E-8;
-1,28949519964092E-8;
-8,26920261879616E-9;
3,92127103220062E-9;
1,99590093378147E-8;
3,22676396058461E-8;
3,51087522077922E-8;
2,89164806613214E-8;
1,97093955915975E-8;
1,40561727430335E-8;
1,37248991905337E-8;
1,44411796785918E-8;
9,80461175582351E-9;
-2,8924923343191E-9;
-1,97804744923512E-8;
-3,29222568399666E-8;
-3,62569074668806E-8;
-3,01391206721357E-8;
-2,07590280647799E-8;
-1,49344571741881E-8;
-1,45644759540654E-8;
-1,53082308563707E-8;
-1,05882547871511E-8;
2,4076218848884E-9;
1,97375378465936E-8;
3,32724167324271E-8;
3,67942775289475E-8;
3,06609310033188E-8;
2,12203664999459E-8;
1,54633116612181E-8;
1,5321977723603E-8;
1,63157277402077E-8;
1,16594684539328E-8;
-1,57470172159017E-9;
-1,93786567757364E-8;
-3,34235344632197E-8;
-3,73018044783905E-8;
-3,13137845498523E-8;
-2,18911398844269E-8;
-1,6149718136618E-8;
-1,60730637590978E-8;
-1,71204297686291E-8;
-1,23928136477235E-8;
1,08990218748856E-9;
1,92520170473222E-8;
3,36209822801605E-8;
3,76660100132879E-8;
3,16761524112127E-8;
2,21806933393192E-8;
1,64231907681558E-8;
1,64472419929926E-8;
1,76607850042138E-8;
1,30574146268286E-8;
-4,33776341364482E-10;
-1,87484949059714E-8;
-3,33481035248066E-8;
-3,76286719029011E-8;
-3,18416073224459E-8;
-2,25244805809678E-8;
-1,69390722713796E-8;
-1,71122918600959E-8;
-1,84003240923173E-8;
-1,37376583771783E-8;
-4,40826486965463E-11;
1,85539162446349E-8;
3,34158828746842E-8;
3,78447484184055E-8;
3,20661762907582E-8;
2,26662959143756E-8;
1,69946584592175E-8;
1,71585988236595E-8;
1,85423896038871E-8;
1,4052582071202E-8;
5,41648947219971E-10;
-1,7935532098821E-8;
-3,27917341353367E-8;
-3,73531487716818E-8;
-3,18215982434558E-8;
-2,27301438484512E-8;
-1,73589049616972E-8;
-1,77428538697697E-8;
-1,92170749814755E-8;
-1,46775634795548E-8;
-1,00658174579153E-9;
1,76885448553788E-8;
3,27517176351001E-8;
3,74423200067198E-8;
3,19271746219728E-8;
2,27457288241911E-8;
1,7231890009288E-8;
1,75141253963383E-8;
1,90225827913468E-8;
1,46937003471594E-8;
1,36361198405786E-9;
-1,69840982400314E-8;
-3,18440077609973E-8;
-3,65759615221632E-8;
-3,13417823367658E-8;
-2,25751991173583E-8;
-1,74645688872132E-8;
-1,80204599883084E-8;
-1,96318704613058E-8;
-1,52648981030949E-8;
-1,8103883465017E-9;
1,66958698674528E-8;
3,1711560673492E-8;
3,65578152102397E-8;
3,13475095337976E-8;
2,24846590798141E-8;
1,71843836471671E-8;
1,75642444640597E-8;
1,91582155663724E-8;
1,50300443793421E-8;
2,04452251314013E-9;
-1,59310730363636E-8;
-3,05808424017427E-8;
-3,53910898983956E-8;
-3,04861691272278E-8;
-2,21205039781806E-8;
-1,73025366437006E-8;
-1,79980442514661E-8;
-1,97033413482304E-8;
-1,55445316344967E-8;
-2,46861027889728E-9;
1,56133096833691E-8;
3,03748219809359E-8;
3,5282732575044E-8;
3,040693177841E-8;
2,19428517729394E-8;
1,69004940760488E-8;
1,73582039964238E-8;
1,90021286016313E-8;
1,51030790925552E-8;
2,59478045077756E-9;
-1,48088532933998E-8;
-2,90728041028225E-8;
-3,38822549448631E-8;
-2,93259041319605E-8;
-2,14203068404802E-8;
-1,69210824409214E-8;
-1,77249536103032E-8;
-1,94861353641222E-8;
-1,55639845816785E-8;
-2,99435494706391E-9;
1,44706652475804E-8;
2,88073709458412E-8;
3,3700089348016E-8;
2,91781041357291E-8;
2,11718994318934E-8;
1,64214305877761E-8;
1,69415761152119E-8;
1,86049245180385E-8;
1,49545732630003E-8;
3,02805343942757E-9;
-1,36451336507435E-8;
-2,73823453769349E-8;
-3,21247075543605E-8;
-2,7929169930552E-8;
-2,05258876743971E-8;
-1,63590588571462E-8;
-1,72429423876496E-8;
-1,90291214788314E-8;
-1,53634532349676E-8;
-3,40024424029459E-9;
0,00933344734196116;
0,0226297568989158;
0,0163727691610333;
0,00943312390316229;
0,0121694120086734;
0,00702618311646426;
0,00563483347952108;
0,00458272806209299;
0,000840514712176583;
0,00103239572791122;
-0,00119045196117949;
-0,00199197822324371;
-0,00280716712087913;
-0,00455370767483527;
-0,00488734447973533;
-0,00585591636420356;
-0,00594123386956391;
-0,0061825067003808;
-0,00699359165139959;
-0,00792070724744242;
-0,00934887588127741;
-0,0102428634896276;
-0,0105184694947359;
-0,0101084970352892;
-0,00920764553221675;
-0,00843028177454399;
-0,00783041854592879;
-0,00745745424246594;
-0,00704803913949404;
-0,00641867347976769;
-0,00567546492488453;
-0,00495851094147058;
-0,00445310953449166;
-0,00409079206508978;
-0,00366384419141092;
-0,00302658227796753;
-0,00222824836149912;
-0,00157284664463222;
-0,0013610909117114;
-0,0016652494784658;
-0,00222571448267841;
-0,00258703847014189;
-0,00240673452007443;
-0,00165716034208769;
-0,000624716067202194;
0,000316683874236289;
0,000963678314319531;
0,00137588524730131;
0,00176514528491573;
0,00227846567066341;
0,00287370169824928;
0,00337818731990203;
0,00366491629245719;
0,00378440272002036;
0,00392473054660544;
0,00423343411655228;
0,00465408820827807;
0,00492911283893894;
0,00478538231091159;
0,00416205188291418;
0,00329840390904754;
0,00260122629070225;
0,00238407239820351;
0,00267135703941088;
0,00320918732504004;
0,00366540881923495;
0,00385878215122335;
0,00384596006037318;
0,0038173178651707;
0,00390619269042251;
0,00407638028604976;
0,00417460016372236;
0,00408912434982319;
0,00386591746402789;
0,00367393496441744;
0,00364550636016166;
0,00373086977026742;
0,00370124062353013;
0,00331393587084207;
0,00251555076609603;
0,00151957306023807;
0,000688108191906025;
0,000299944962971275;
0,000376517064141813;
0,000692050413921045;
0,000951444686030238;
0,000993768196534217;
0,000869197874453423;
0,00074631672816529;
0,000742939666967688;
0,00082652796733791;
0,000860897001579215;
0,000746753803937701;
0,000524357532813839;
0,000342627305027749;
0,000317906790441569;
0,000405539504982273;
0,000402845838794586;
9,51073995597941E-5;
-0,000565185008744473;
-0,0107236088574837;
-0,0246909862856897;
-0,0187063332011639;
-0,0116223404061083;
-0,0139972246350011;
-0,00853591157208054;
-0,007011909333707;
-0,00596900954256429;
-0,00223032862782772;
-0,0023172680025464;
8,97591994691324E-5;
0,00103462008110923;
0,00186472339081173;
0,00353258519756395;
0,00382391343311158;
0,00488785225035357;
0,00516655056476374;
0,00552144273735109;
0,0061783413751602;
0,00664176865820099;
0,00746065537822775;
0,00787761161659339;
0,00802160541583479;
0,00784054719802518;
0,0073546372924105;
0,00695106627622495;
0,00655992884574839;
0,00626844398071123;
0,00594146118951909;
0,00548466183072175;
0,00497854477530626;
0,00445878237084019;
0,00403461936726356;
0,00366781801166565;
0,0032633423566722;
0,00276322490447809;
0,00218225889875946;
0,00167053761613078;
0,00136621376167398;
0,00130575675543276;
0,00137147696709603;
0,0013480573242183;
0,00107700783302695;
0,000543599105852316;
-0,000116322966797576;
-0,000724573788674221;
-0,00118433709149172;
-0,00152243820698278;
-0,00184023555513332;
-0,00220794101005707;
-0,00260532326458489;
-0,00294925404641164;
-0,0031777841007543;
-0,00331524789709201;
-0,00345293299423757;
-0,00366310132142788;
-0,00391873193310996;
-0,00409378963558143;
-0,00405388326349827;
-0,00376838703774296;
-0,00335501561749316;
-0,00301537309390998;
-0,00290601323065809;
-0,00304039284423004;
-0,00329289932673041;
-0,00349791834790503;
-0,00356465227525526;
-0,00352163912328861;
-0,00346520768862049;
-0,00346339663079623;
-0,00349853425376963;
-0,00349316167729291;
-0,00339051395663058;
-0,00321420755497037;
-0,00305116610912821;
-0,00297002932425727;
-0,00294587638377372;
-0,00286093473505345;
-0,00258940376260172;
-0,00210309511778698;
-0,00151283209666874;
-0,00100787004153904;
-0,00073498298194986;
-0,000706558832489318;
-0,000804723136065679;
-0,000874195211780417;
-0,000829821955512552;
-0,00069811375171945;
-0,00056885107145161;
-0,000505243622697552;
-0,000490310965762536;
-0,000451234392964535;
-0,000334560546684154;
-0,000161850071340582;
-1,36526577159621E-5;
4,66472191836351E-5;
4,29335798932272E-5;
8,55603932434618E-5;
0,000292243011497505;
0,000689727096449304;
0,0011754164242468;
0,00157389783071411;
0,00174944083343625;
0,00169132792898663;
0,00150983407864776;
0,00134983886999872;
0,00129097996223146;
0,00130921759130087;
0,0013218577173242;
0,00127090679375207;
0,00117271172420777;
0,00109529567190476;
0,00108866123095364;
0,00113331989213771;
0,00115521655441957;
0,00109622437499103;
0,000978915404593259;
0,000905704219856513;
0,000985670338335593;
0,00124376992929847;
0,00158554567512263;
0,00184943959588822;
0,00191062444563815;
0,00175960420386058;
0,00149834840659393;
0,00126057367454631;
0,00111977786460604;
0,00105395304357589;
0,000987134457824058;
0,000866122165772417;
0,000706076467712198;
0,000569599478262533;
0,000502658162163057;
0,000487355104530064;
0,000455715021888977;
0,000354424001275521;
0,000204204181244181;
9,89268169748951E-5;
0,00013846063871898;
0,000345509001353256;
0,000633405679792934;
0,000854141935294245;
0,000893441239300262;
0,000742595069574052;
0,000494789514511209;
0,000272126646005654;
0,000141585145713902;
8,28756909422866E-5;
2,64778030064528E-5;
-7,63007271543854E-5;
-0,000211770921047946;
-0,000323014420632286;
-0,000368328917910714;
-0,00036422596070922;
-0,000372798807628481;
-0,000442737723104531;
-0,000555328492614959;
-0,000625348946945109;
-0,000562204190457404;
-0,000345506237337901;
-5,42342871247046E-5;
0,000177006107282946;
0,000244352240621915;
0,000139821829212118;
-5,2141841037108E-5;
-0,000220948971824955;
-0,000306053521612639;
-0,000326006357875261;
-0,000343911993313;
-0,000403960320618227;
-0,000493857359377955;
-0,000562219821099691;
-0,000571461534115154;
-0,000536629653481154;
-0,000513924159368315;
-0,000547384136994873;
-0,000620163692981931;
-0,000655421439089642;
-0,000571534898383458;
-0,000350241844275606;
-6,28352990849611E-5;
0,000169353089157985;
0,000252785244075577;
0,000180307733933082;
2,79333538694955E-5;
-0,000104869486751517;
-0,000163695964206215;
-0,000165253217262457;
-0,000166244001075339;
-0,000206334527556515;
-0,000274462169435835;
-0,000324506181081328;
-0,000322755992424339;
-0,000282703866230294;
-0,000254696378591033;
-0,000278139355253314;
-0,000337894741527963;
-0,000365149321011736;
-0,000286873726644757;
-8,6753560434284E-5;
0,000171473363591379;
0,000379423464968998;
0,000453627581903834;
0,000387797055705244;
0,00024985296918408;
0,00012857927605502;
7,25152969906491E-5;
6,67971188524332E-5;
6,09533391284866E-5;
1,97244889169936E-5;
-4,69760746618947E-5;
-9,80618408116862E-5;
-0,000103519204323165;
-7,53131145519453E-5;
-5,81370020112402E-5;
-8,69286180520651E-5;
-0,00014818278077483;
-0,000180788277305644;
-0,000119952998563425;
4,8780662831845E-5;
0,000268925982272513;
0,000444503904137304;
0,00050167293216639;
0,000434946852761023;
0,000304476981594177;
0,000188805474036187;
0,000130845573216088;
0,000117475417939453;
0,000104150805740249;
5,97889315323148E-5;
-6,82645839012618E-6;
-5,94422302456567E-5;
-7,15991081564936E-5;
-5,38372337340511E-5;
-4,55001931029893E-5;
-7,73109533127918E-5;
-0,000137358022434583;
-0,000171892109378933;
-0,000123982977248474;
1,90346456552095E-5;
0,000207530700136268;
0,000357265343731754;
0,000403489247014498;
0,000341431458618134;
0,000223834786089996;
0,000119500030361902;
6,5980369356217E-5;
5,17731238354921E-5;
3,7911060759342E-5;
-2,77182264821739E-6;
-6,25927733149528E-5;
-0,000109895852211794;
-0,000121604991959759;
-0,000106939340201861;
-0,000100218863290297;
-0,000128217364453737;
-0,000180551894714351;
-0,000210433213228509;
-0,000168353135929971;
-4,33456250165167E-5;
0,000121401521207346;
0,000252677912391163;
0,000294265460135486;
0,000242045289253592;
0,000141782033790502;
5,31159272195305E-5;
8,5614646693557E-6;
-1,86945884738887E-6;
-1,19185901547976E-5;
-4,50863399215682E-5;
-9,47277886060858E-5;
-0,000133496758741293;
-0,000141485146769553;
-0,00012667407069356;
-0,000118682482241214;
-0,000140591325539836;
-0,000183446696157554;
-0,000206960172898669;
-0,000168548819407427;
-5,88227461434675E-5;
8,50527458535862E-5;
0,000200163373892801;
0,000238249609432165;
0,000195802123699631;
0,000112087319546;
3,82210207089123E-5;
2,03719693856339E-6;
-5,03182450180094E-6;
-1,18574212004865E-5;
-3,8523667965043E-5;
-7,93424010672934E-5;
-0,000110962116237481;
-0,000116405597447015;
-0,000102493130432874;
-9,44712372960226E-5;
-0,000111987184870969;
-0,000147404267406265;
-0,000166449717965481;
-0,000132944336521001;
-3,89440807337289E-5;
0,00941740767677316;
0,0228121612754132;
0,0165882745629282;
0,00961344593536876;
0,0122795264407411;
0,00707430726109383;
0,00565270337380327;
0,00459483605458274;
0,000846989144949984;
0,00101644018782577;
-0,00124082638608905;
-0,00206909227949676;
-0,00288906368787381;
-0,004624174438686;
-0,00495138030423514;
-0,00593499861471926;
-0,00605041072646923;
-0,00630808527679173;
-0,0070915862771606;
-0,00794051299186105;
-0,0092663248367055;
-0,0100784002747411;
-0,0103266646207993;
-0,00994634297163296;
-0,0091043772991855;
-0,00837910318534761;
-0,00780496466341915;
-0,00743739367237601;
-0,00703328414773592;
-0,00642317411802781;
-0,00570916777400763;
-0,00501505627016871;
-0,00451432151571021;
-0,00414325727542505;
-0,00371168149377211;
-0,00308750472836446;
-0,00231464652446556;
-0,00167341443217879;
-0,00143959167314433;
-0,00168003171233264;
-0,00215688343629162;
-0,00245133807113324;
-0,00224888395212476;
-0,00152383273759619;
-0,00053983686335183;
0,000358661306051395;
0,000984277319306715;
0,00139169336470454;
0,00177624587770477;
0,00227352170841546;
0,00284464636696095;
0,00333020767457125;
0,00361278132293669;
0,00373900777943164;
0,00388276959256534;
0,00418061590345825;
0,00458043854525932;
0,00484378652778465;
0,00471761287174954;
0,00414539848340126;
0,00334889910222719;
0,00270546698697016;
0,0025062324044469;
0,00277407540214091;
0,00327332713106951;
0,00369538691612557;
0,00387175243128905;
0,00385512921252375;
0,00382275603615649;
0,00389890477855098;
0,00404997938392787;
0,00413320531576951;
0,00404442658498255;
0,00382653313130238;
0,00363727198300179;
0,00360032995291705;
0,00366935783397982;
0,00363059917440938;
0,00325709666815211;
0,0024987956054858;
0,00155545077856917;
0,000766187365340305;
0,000392343947811442;
0,000454193812990733;
0,00074013757873149;
0,000973334143768362;
0,00100269253522925;
0,000875326881474408;
0,000749692792138668;
0,000736643027004843;
0,000805655750560406;
0,000828600431140556;
0,000711964164242091;
0,000493644855852848;
0,000314021225700093;
0,000282881051513692;
0,000358174996950025;
0,000348601762336904;
5,12970749531877E-5;
-0,000578763982893933;
-0,0106975177525581;
-0,024633029656605;
-0,0186373488134631;
-0,0115639940527155;
-0,0139606003239628;
-0,00851852931282213;
-0,00700401508413747;
-0,00596312739273301;
-0,00222644425071025;
-0,00232046722528296;
7,58841376173692E-5;
0,00101236262638535;
0,00184057359333769;
0,0035113033552802;
0,00380407688693199;
0,00486332503656386;
0,00513309270956169;
0,00548297297571355;
0,0061472195532142;
0,0066320772140879;
0,00747909157511837;
0,00791868181155694;
0,0080706704352321;
0,00788243217557364;
0,00738159008812259;
0,00696477277600251;
0,00656709495961937;
0,00627418681989033;
0,00594577567720806;
0,00548407555159378;
0,00497061967650644;
0,00444506584072555;
0,00401946883442237;
0,00365441441781924;
0,00325074655654809;
0,00274739552188788;
0,00216042824042872;
0,00164528329955421;
0,00134557420533562;
0,00129882881571345;
0,00138256730139278;
0,00137368749290307;
0,0011079419219453;
0,000570319857813151;
-9,86605444325565E-5;
-0,000714966793181395;
-0,00117872273433215;
-0,00151774335591323;
-0,00183647731715255;
-0,00220718678720446;
-0,00260900532645697;
-0,002956467790668;
-0,00318601688137971;
-0,00332268406971393;
-0,00346009079105477;
-0,00367220742215933;
-0,00393127843149532;
-0,00410835618853236;
-0,0040661639584611;
-0,00377359066912043;
-0,00335090095811846;
-0,0030036832658511;
-0,0028913280120529;
-0,00302735444550809;
-0,00328384631369429;
-0,00349243106883627;
-0,00356093702473562;
-0,00351837692867817;
-0,00346242464547272;
-0,00346195317917514;
-0,00349899889690181;
-0,00349518007229045;
-0,0033931538005208;
-0,00321682272308486;
-0,00305391551125271;
-0,00297358848994908;
-0,00295064780480612;
-0,00286648754168661;
-0,0025946203537732;
-0,00210686123359818;
-0,00151467253262369;
-0,00100805453778585;
-0,000734130322249439;
-0,000705163967309705;
-0,000802991923675726;
-0,000872201214023016;
-0,000827696398197613;
-0,000696025514048958;
-0,000566834104069493;
-0,000503136067625393;
-0,000487950222986702;
-0,000448732115213885;
-0,000332321595400652;
-0,000160217975277967;
-1,24845641261466E-5;
4,79831964397704E-5;
4,49525275620997E-5;
8,78580378782493E-5;
0,000293249937471709;
0,000687459805064024;
0,00116886007982467;
0,00156401539542144;
0,00173893533950537;
0,00168318260004588;
0,00150563230774985;
0,00134909670190023;
0,00129195755027335;
0,00131050309324096;
0,00132341089471625;
0,00127374300510783;
0,00117760367162131;
0,00110174365108295;
0,00109514683642522;
0,00113867557563718;
0,00115983516934835;
0,00110182310036595;
0,000986770475291736;
0,000914718352098994;
0,00099204647758614;
0,00124295735870319;
0,0015752930098878;
0,00183172411294839;
0,00189088879981801;
0,00174370029599173;
0,00148933637314509;
0,00125763529195071;
0,00111985358642664;
0,00105461190544469;
0,000988332172181173;
0,00086957475955138;
0,000713057429621443;
0,000579292681479106;
0,000512635702532538;
0,000495776721795331;
0,000463177318842509;
0,000363528473772223;
0,000216846886010809;
0,000113447050655641;
0,000149251061104163;
0,000345933502983423;
0,000620206962726048;
0,000830114640572219;
0,000866241124927061;
0,000720391384803219;
0,000481836503829093;
0,000267340665374083;
0,000140848138662397;
8,29399167365688E-5;
2,72970805550032E-5;
-7,24475912314953E-5;
-0,000203208273217022;
-0,000310810160992393;
-0,000355636394168365;
-0,000353421690103511;
-0,000363124048117102;
-0,000430887681412907;
-0,000538914593771354;
-0,000606478724147835;
-0,000547919757635268;
-0,000344095599526775;
-6,97530295438031E-5;
0,000147993275231568;
0,00021124133724035;
0,000112604255988315;
-6,82718270887481E-5;
-0,000227279225332707;
-0,000307526896161359;
-0,000326506394963683;
-0,000343485171356806;
-0,000399888867975946;
-0,000484152092224814;
-0,000548142921591553;
-0,00055672747924812;
-0,000524029469954473;
-0,000502574385582808;
-0,000533438640710783;
-0,000600855348112589;
-0,000633200814486904;
-0,000554544001404057;
-0,00034803395527764;
-8,0079033110238E-5;
0,000136576374825063;
0,000215190676887958;
0,000149267743562466;
9,35560550478174E-6;
-0,000112423164799246;
-0,000165785926285536;
-0,000166238354191536;
-0,000166169955572748;
-0,000202154769026738;
-0,000263952928376982;
-0,000309073191985229;
-0,00030652937757915;
-0,0002687813904142;
-0,00024210311947007;
-0,000262631395128539;
-0,00031642742847329;
-0,000340424540211931;
-0,00026783720428028;
-8,38818823766651E-5;
0,000153062577045377;
0,00034399362911572;
0,000412841326816007;
0,000354018524912091;
0,000229503100837451;
0,000120116722235013;
6,99445548529042E-5;
6,54250809536357E-5;
6,07360922226543E-5;
2,39402748135538E-5;
-3,5938428841868E-5;
-8,17071170534875E-5;
-8,62653773987129E-5;
-6,04700142891634E-5;
-4,4667373625287E-5;
-7,03166628423655E-5;
-0,000125194909741554;
-0,000154297265105631;
-9,94486527500315E-5;
5,21982443255886E-5;
0,000249834214710655;
0,000407390215370362;
0,000458822826046902;
0,00039937599021035;
0,000282944577478969;
0,000179707900952071;
0,000127911100310536;
0,000115799719598968;
0,000103692463641874;
6,39733353208482E-5;
4,49399526151074E-6;
-4,25508509210159E-5;
-5,37314458758071E-5;
-3,8432793074614E-5;
-3,14846033176954E-5;
-6,00058195569538E-5;
-0,000113417685953738;
-0,000144290402157958;
-0,000102528476566145;
2,28785050555941E-5;
0,000188161615256921;
0,000319290662828279;
0,000359536747332301;
0,000304874147949598;
0,000201618711823735;
0,000109994346326673;
6,27740908895563E-5;
4,98567138669958E-5;
3,72462119294556E-5;
1,31450368453742E-6;
-5,12097338083015E-5;
-9,28083207946208E-5;
-0,000103488655893344;
-9,12925037840417E-5;
-8,59516523224607E-5;
-0,000110582617287491;
-0,000156157887944817;
-0,000182294929755712;
-0,000146404636600034;
-3,91904922554674E-5;
0,000102088927837848;
0,000214536203271587;
0,000250024945219016;
0,000205184884927007;
0,000119305034449568;
4,33938761719422E-5;
5,16070684219779E-6;
-3,97346673061412E-6;
-1,2760613031547E-5;
-4,11547039375106E-5;
-8,34692897582209E-5;
-0,000116502560256035;
-0,000123430790569499;
-0,000111056490685726;
-0,000104414631201412;
-0,000122936856543203;
-0,000159023789076177;
-0,000178774268999601;
-0,000146495830034026;
-5,44573966458838E-5;
6,60753958532486E-5;
0,000162438702974697;
0,000194408385378222;
0,000159217124001176;
8,97096545734406E-5;
2,84492216615742E-5;
-1,48725918530096E-6;
-7,27282472416394E-6;
-1,28459271330961E-5;
-3,47882216718433E-5;
-6,83596237778034E-5;
-9,42986333086968E-5;
-9,86688949276074E-5;
-8,71284360368592E-5;
-8,04096379294436E-5;
-9,45696416265897E-5;
-0,000123305640946866;
-0,00013862365311098;
-0,00011111213335825;
-3,44539705336306E-5;
6,55622946551529E-5;
0,000145609272908156;
0,000172667867739209;
0,00014452373595464;
8,8159986840305E-5;
3,84622014531615E-5;
1,43027404104371E-5;
9,79589626276685E-6;
5,38532023656751E-6;
-1,24415365594758E-5;
-3,9799327966672E-5;
-6,09979923155536E-5;
-6,4714648686814E-5;
-5,55626743268907E-5;
-5,03682904224143E-5;
-6,21271562369702E-5;
-8,57088940822718E-5;
-9,84658409733879E-5;
-7,66668804997859E-5;
-1,52677224319124E-5;
6,49030122073432E-5;
0,000128962456644097;
0,000150403042681672;
0,000127507924875483;
8,19652248607649E-5;
4,17302070114363E-5;
2,18831166493737E-5;
1,77011029623789E-5;
1,35790038526075E-5;
-1,23103335126492E-6;
-2,3615438028588E-5;
-4,11012565674155E-5;
-4,47180988837864E-5;
-3,81393282722638E-5;
-3,46790580147463E-5;
-4,45831921268997E-5;
-6,37781416355005E-5;
-7,44209629541878E-5;
-5,78813816219101E-5;
-1,02565037285983E-5;
5,20755285634268E-5;
0,000101803358043848;
0,00011825251848797;
0,000100146670486381;
6,44266092476267E-5;
3,28398545271159E-5;
1,70714120713025E-5;
1,34372459247208E-5;
9,86283660664428E-6;
-1,93210645324476E-6;
-1,9527250246774E-5;
-3,33255088168271E-5;
-3,64582448836902E-5;
-3,17615295883109E-5;
-2,9419236350597E-5;
-3,72291241997542E-5;
-5,20629976437887E-5;
-6,03603933441727E-5;
-4,8033537507966E-5;
-1,21948955175487E-5;
3,47368476445798E-5;
7,21817532694381E-5;
8,46467982274058E-5;
7,12429314333726E-5;
4,46916437309717E-5;
2,12281890381434E-5;
9,52446228054136E-6;
6,81728344548819E-6;
4,16073238382424E-6;
-4,54108436844482E-6;
-1,74839231130351E-5;
-2,76179441216112E-5;
-2,99345897700762E-5;
-2,65292853661929E-5;
-2,48190248350709E-5;
-3,043961506433E-5;
-4,10996110008035E-5;
-4,70202746188853E-5;
-3,81217093669958E-5;
-1,24100687166504E-5;
2,11886928143796E-5;
4,80272232074038E-5;
5,71754326649139E-5;
4,8083397690243E-5;
2,97582221363232E-5;
1,35865247423982E-5;
5,59210294466688E-6;
3,82204371371402E-6;
2,07875439169319E-6;
-3,81635730545927E-6;
-1,26001639701936E-5;
-1,94567325808653E-5;
-2,10070788033024E-5;
-1,86963632248284E-5;
-1,75176595574666E-5;
-2,12144364991072E-5;
-2,8227787181014E-5;
-3,20858013424055E-5;
-2,62101129886532E-5;
-9,38504175648596E-6;
0,0093459497567713;
0,0226597535029059;
0,0164089261164859;
0,00946385221551095;
0,0121888868999714;
0,00703573758839079;
0,00563951855141955;
0,00458635205644424;
0,000843085040061198;
0,00103141031853451;
-0,0011967056536618;
-0,00200234324340671;
-0,00281852626918057;
-0,0045638236670984;
-0,00489686592805857;
-0,00586758999024184;
-0,00595688053580664;
-0,00620034090019853;
-0,00700828281013082;
-0,00792638235750174;
-0,00934289321628906;
-0,0102275697554792;
-0,0104997212959563;
-0,010092152919621;
-0,00919659079045398;
-0,00842388107249843;
-0,0078263012056777;
-0,0074538839269283;
-0,00704502476292514;
-0,00641730196734358;
-0,00567643807557575;
-0,00496132544397157;
-0,0044565132299745;
-0,00409392738372427;
-0,00366693858211838;
-0,00303055842114996;
-0,00223364736838645;
-0,00157905103429684;
-0,0013665247882106;
-0,00166836562364239;
-0,00222594266500667;
-0,00258498072365446;
-0,00240357555119119;
-0,00165387240344918;
-0,0006216757350998;
0,000319525393907227;
0,000966419535133125;
0,00137850771556751;
0,00176763081514585;
0,00228093205391092;
0,00287630798302196;
0,00338088673551518;
0,00366738524419394;
0,00378633420541601;
0,00392625553898431;
0,00423517314821018;
0,00465658259271186;
0,00493199616346935;
0,00478706571654122;
0,00416043791818614;
0,00329231776556788;
0,00259153244695763;
0,0023735131971768;
0,00266306604315967;
0,00320489657474081;
0,00366467882220197;
0,00385981052325577;
0,00384726114740341;
0,00381886692380307;
0,00390911534798937;
0,00408155522784773;
0,00418152192307712;
0,004096155319785;
0,00387177985748682;
0,00367905737404854;
0,00365179211182266;
0,00373975882532511;
0,00371154819080943;
0,00332144518406769;
0,00251513993577106;
0,00150861821853916;
0,00066868384735355;
0,000278037882665245;
0,000358651699046723;
0,000681699917366421;
0,00094776862719935;
0,00099339974235796;
0,000869444434711846;
0,000747147801961989;
0,00074630788961058;
0,000833901723463774;
0,000871394075575538;
0,000757659627404729;
0,000533598862300281;
0,000350874343850643;
0,000328108409122749;
0,000419866887099337;
0,000419445733743327;
0,000107622197757862;
-0,000564338895868785;
-0,0107382357128649;
-0,024718033757501;
-0,0187371883724027;
-0,0116477353256874;
-0,014012277686813;
-0,0085417849642122;
-0,00701322974882504;
-0,00596944076399691;
-0,00222990567091048;
-0,00231337401356988;
9,90655947939505E-5;
0,00104815460498459;
0,00187890922373017;
0,00354471266606205;
0,00383484475983498;
0,00490136893138708;
0,00518540509414766;
0,0055432494164096;
0,00619504134024434;
0,00664382426862925;
0,00744332491137949;
0,00784471777811584;
0,00798383269672842;
0,00780932632972057;
0,00733596035130544;
0,00694352100503582;
0,00655790273253218;
0,00626751426883781;
0,0059415902824727;
0,00548898572063906;
0,00498937405010491;
0,00447469832210322;
0,0040513758664444;
0,0036822120105803;
0,0032763845090178;
0,00277933970522545;
0,00220464685306524;
0,00169640271437417;
0,00138618907447488;
0,00130880444644557;
0,00135213548772187;
0,0013107355176631;
0,00103396807480754;
0,000507917883617621;
-0,000137808363260221;
-0,000733461784581678;
-0,00118698217160084;
-0,00152383325574358;
-0,00184041889391104;
-0,00220338630700252;
-0,00259344281944703;
-0,00293164090960956;
-0,00315918243938849;
-0,0032992271718262;
-0,00343837270558435;
-0,00364510201345126;
-0,00389376320477014;
-0,00406494969257141;
-0,00403149905884943;
-0,00376459492843676;
-0,00337580431023848;
-0,00305591022850036;
-0,00295289467684118;
-0,00307935313604358;
-0,00331649049095935;
-0,00350786911036547;
-0,00356784450953316;
-0,00352346976321764;
-0,0034657144614265;
-0,00345877658512814;
-0,0034860039675883;
-0,00347443601490771;
-0,00337068481105612;
-0,00319709945423802;
-0,00303558284086949;
-0,00295074427496092;
-0,00291913319090934;
-0,00283003920321127;
-0,00256533783980448;
-0,00209874164418082;
-0,00153453805317355;
-0,00105052184314026;
-0,000784416462131332;
-0,000747719354508045;
-0,000829757537423834;
-0,000884914218556532;
-0,000833447883899426;
-0,000700302960288908;
-0,000569639810217385;
-0,000500651755328468;
-0,000477430551066919;
-0,000431856590426125;
-0,000313994310757249;
-0,000144078248970046;
2,56688999413065E-6;
6,6739657041301E-5;
7,07907815288139E-5;
0,000117751005461599;
0,000317394858249564;
0,000694516408245829;
0,00115328465568719;
0,00153011675852364;
0,00169860417618799;
0,0016489333272746;
0,00148396184252945;
0,00133863771414734;
0,00128704841695676;
0,00130676460570889;
0,0013208491852111;
0,0012754141982769;
0,00118570604943533;
0,00111494860708741;
0,00110955927493194;
0,00115140518264213;
0,00117175158413907;
0,00111672233736686;
0,00100732599370432;
0,000938541044847027;
0,00101139836858905;
0,00124888683493806;
0,00156340751184075;
0,00180537133631724;
0,00185936668309355;
0,00171680143962568;
0,0014721557064903;
0,00124913437790532;
0,00111564891169116;
0,00105131507403151;
0,000985956065102924;
0,000870493010918001;
0,000718978208954899;
0,000589199960917726;
0,000523535063725198;
0,000505446442561769;
0,000472282012795204;
0,00037497411413992;
0,000232679072883685;
0,000131844896212041;
0,00016431682393044;
0,000350844849853457;
0,000611598994741214;
0,000810482514536238;
0,000842577976295656;
0,000700069316044594;
0,000468702370172232;
0,000260645513193064;
0,000137341050347227;
8,01103992170689E-5;
2,51630453386658E-5;
-7,21186356429582E-5;
-0,000199143685413333;
-0,000303750137259704;
-0,000347778472458676;
-0,000346396026535618;
-0,000356447498939545;
-0,000422441700935689;
-0,000527209194714186;
-0,000592833155857379;
-0,000536606014376456;
-0,000340054481059654;
-7,54397583421358E-5;
0,000134324801740599;
0,000194554032030869;
9,81371227266487E-5;
-7,77730126354027E-5;
-0,000232311017975453;
-0,00031034567410368;
-0,000328851795453337;
-0,000345335577518532;
-0,000400010018056916;
-0,000481654700630584;
-0,000543525913522599;
-0,000551489716463808;
-0,000519282351364267;
-0,0004979936648192;
-0,000527595690642494;
-0,000592747074445998;
-0,000623707612456862;
-0,000546514927371033;
-0,00034476257299336;
-8,32224901826924E-5;
0,000128112906284979;
0,000204599375810012;
0,000139926146750299;
3,04754224912044E-6;
-0,000115976404751513;
-0,000167975990064849;
-0,000168134621837216;
-0,000167748108271816;
-0,000202644926691832;
-0,000262799815585177;
-0,0003065667601368;
-0,000303561998411898;
-0,000266014026013758;
-0,00023934909966574;
-0,000259060310213495;
-0,000311458429118389;
-0,000334557983265288;
-0,000262689465091161;
-8,13191222684263E-5;
0,000152076471469142;
0,00033999361168207;
0,000407491759383218;
0,00034908983070489;
0,000225947546783345;
0,000117841357039812;
6,83012866477754E-5;
6,39208794369687E-5;
5,93970961029657E-5;
2,31363322606553E-5;
-3,59399339539646E-5;
-8,10172519756111E-5;
-8,5255993230079E-5;
-5,94153663016066E-5;
-4,34985668991871E-5;
-6,87161266703153E-5;
-0,000122943859774915;
-0,000151570805984954;
-9,68076095220858E-5;
5,41104303245327E-5;
0,000250649141710747;
0,000407167559687461;
0,000457924551395898;
0,00039820151369212;
0,000281735696900458;
0,000178527801838373;
0,000126742977800274;
0,000114639869695603;
0,000102568015538805;
6,29136918689708E-5;
3,52134004005447E-6;
-4,33965494955037E-5;
-5,43810798780868E-5;
-3,88329189134174E-5;
-3,16658760970598E-5;
-6,00846812195603E-5;
-0,000113481878517228;
-0,000144240405608252;
-0,000102033156914487;
2,42093612775698E-5;
0,000190464597166266;
0,000322227835765894;
0,000362375176483177;
0,000306859672424729;
0,000202394263021633;
0,000109752136805805;
6,20254480407264E-5;
4,90073080402316E-5;
3,63234157785582E-5;
6,20397379508725E-8;
-5,29756327882505E-5;
-9,49221733000851E-5;
-0,000105513398849364;
-9,2901149972814E-5;
-8,72577396624019E-5;
-0,000112064363988679;
-0,00015815863924012;
-0,000184486909164092;
-0,000147714613457305;
-3,83678205411022E-5;
0,000105602769355247;
0,000220076427060812;
0,000255953250537487;
0,000209792237882448;
0,000121737588378846;
4,39483250822243E-5;
4,78253059314681E-6;
-4,54207365752958E-6;
-1,34926575303441E-5;
-4,2542154966035E-5;
-8,58660109867291E-5;
-0,00011964072928434;
-0,000126571814593459;
-0,000113649121164809;
-0,000106640117794162;
-0,000125569470325024;
-0,000162616154557975;
-0,000182812448615473;
-0,000149300662046877;
-5,40752542778755E-5;
7,05493331873634E-5;
0,000170076759828595;
0,0002028386640975;
0,000165955881540287;
9,34989404949757E-5;
2,96681827705923E-5;
-1,54391535585454E-6;
-7,59220210578749E-6;
-1,34019054075324E-5;
-3,62631851490105E-5;
-7,12450437655174E-5;
-9,82452028523555E-5;
-0,000102696435651378;
-9,05059236223841E-5;
-8,33723479487702E-5;
-9,81285856242013E-5;
-0,000128180892028244;
-0,000144153031965634;
-0,00011513329437953;
-3,44522842895224E-5;
7,07696072829998E-5;
0,000154888974116718;
0,000183068853097021;
0,000152949594164256;
9,30321138826498E-5;
4,02225941929851E-5;
1,45192182833022E-5;
9,69305451391597E-6;
4,98801542557919E-6;
-1,39654424647554E-5;
-4,30497083977325E-5;
-6,55626799808625E-5;
-6,94255516440197E-5;
-5,9548823700651E-5;
-5,39067516330631E-5;
-6,64126084308012E-5;
-9,15914112631861E-5;
-0,000105168882914168;
-8,16546669031477E-5;
-1,55916178510066E-5;
7,06424721466745E-5;
0,00013947739249551;
0,000162300736893144;
0,000137223809106471;
8,76745612089042E-5;
4,39205479343478E-5;
2,23277438303756E-5;
1,77838652640625E-5;
1,33231889932963E-5;
-2,77110367361528E-6;
-2,71220175936641E-5;
-4,61158084063799E-5;
-4,99322622382348E-5;
-4,25775735999636E-5;
-3,86493975029908E-5;
-4,94168815023403E-5;
-7,04220232681577E-5;
-8,2014152676227E-5;
-6,36119577990296E-5;
-1,08544498385455E-5;
5,81718788957161E-5;
0,000113196297706589;
0,000131229260256745;
0,000110802223089846;
7,07560682385177E-5;
3,5361226908048E-5;
1,77038572331437E-5;
1,36776713449849E-5;
9,73273158990441E-6;
-3,45999821043005E-6;
-2,31945747319628E-5;
-3,86418247107712E-5;
-4,20168306401866E-5;
-3,65134289923487E-5;
-3,36938912178068E-5;
-4,24529716904381E-5;
-5,92504248373463E-5;
-6,85925124599323E-5;
-5,43077331483252E-5;
-1,30187438954675E-5;
4,10392020956313E-5;
8,4141818795564E-5;
9,83380601535447E-5;
8,2531842368615E-5;
5,14509802602689E-5;
2,39933687560433E-5;
1,03085724259157E-5;
7,18998765950499E-6;
4,14156595892148E-6;
-6,03300414679081E-6;
-2,12295205945281E-5;
-3,31074272290965E-5;
-3,56993734940627E-5;
-3,14741097360147E-5;
-2,92864862771381E-5;
-3,59153027935997E-5;
-4,8639996645729E-5;
-5,56713473084667E-5;
-4,47644679153099E-5;
-1,34157853206364E-5;
2,75681562738219E-5;
6,02862351394751E-5;
7,12658343121416E-5;
5,97400396314649E-5;
3,67818017498174E-5;
1,65187348259792E-5;
6,49513251369048E-6;
4,30355675858679E-6;
2,15623478195683E-6;
-5,2532388968505E-6;
-1,63541751388835E-5;
-2,5009501899686E-5;
-2,68595978896977E-5;
-2,37304451011308E-5;
-2,20819378928057E-5;
-2,682262652145E-5;
-3,59565130812469E-5;
-4,09655784099001E-5;
-3,30694503595037E-5;
-1,05330074352294E-5;
1,8863347057489E-5;
4,23527896126615E-5;
5,0408434151146E-5;
4,25524346579532E-5;
2,66400613700951E-5;
1,26023591404952E-5;
5,69376978187423E-6;
4,21062230079498E-6;
2,74523847072803E-6;
-2,34918432070711E-6;
-9,97039376840104E-6;
-1,59140971189003E-5;
-1,72294405764111E-5;
-1,51778357332654E-5;
-1,4120430053824E-5;
-1,73282493080807E-5;
-2,34398027532265E-5;
-2,67984015677548E-5;
-2,16515281453967E-5;
-6,93359664101929E-6;
1,22200250706148E-5;
2,75256588830246E-5;
3,28989822999836E-5;
2,81133235234197E-5;
1,82185587332134E-5;
9,48975497754937E-6;
5,18822023292226E-6;
4,22353495937492E-6;
3,25850696896746E-6;
8,87261635523475E-8;
-4,59117518583686E-6;
-8,25558317071785E-6;
-9,17598550471536E-6;
-8,12336962718906E-6;
-7,63890962420162E-6;
-9,57504959940038E-6;
-1,31206928039189E-5;
-1,50964589278083E-5;
-1,23689149138656E-5;
-4,45008426154026E-6;
5,81191279434276E-6;
1,40061912943659E-5;
1,70196882791952E-5;
1,48412579877154E-5;
1,01007575681644E-5;
5,92233276732492E-6;
3,850961469951E-6;
3,32443513923912E-6;
2,78657827916091E-6;
1,27236320161635E-6;
-8,74681918119403E-7;
-2,57092777070749E-6;
-3,13676281068886E-6;
-2,92217594168788E-6;
-2,90830329806587E-6;
-3,73299763340283E-6;
-5,05735139674227E-6;
-5,8222060565149E-6;
-5,13335706741763E-6;
-2,99533476572876E-6;
-3,01768439262467E-7;
1,84221802478354E-6;
2,8572694574236E-6;
2,91480469215424E-6;
2,58226431017947E-6;
2,30118834725385E-6;
2,15671122288078E-6;
2,03596958210992E-6;
1,89571314634133E-6;
1,82245027688382E-6;
1,86102483601714E-6;
1,87210302140148E-6;
1,64678502815231E-6;
1,19191694299341E-6;
8,46312377734992E-7;
9,98462108198384E-7;
1,58746533456252E-6;
1,88193495507887E-6;
8,8728096417059E-7;
-1,81510185116037E-6;
-5,47107779464456E-6;
-8,40237169529662E-6;
-9,05740500919292E-6;
-7,11227543431862E-6;
-3,73264328871269E-6;
-7,28616691696702E-7;
7,61035949733331E-7;
1,00039983948853E-6;
1,21297325858669E-6;
2,36447254739131E-6;
4,24938782665692E-6;
5,70658201215313E-6;
5,78587812029545E-6;
4,79220124475357E-6;
4,16436981933916E-6;
5,1449148799311E-6;
7,33960950285257E-6;
8,52850132659921E-6;
6,148987190911E-6;
-5,59864070857087E-7;
-9,47664073434324E-6;
-1,66170947188974E-5;
-1,86666125077025E-5;
-1,51761132232969E-5;
-8,74353977919584E-6;
-3,03725105231429E-6;
-2,04631429651512E-7;
3,29371132334706E-7;
8,30671160283109E-7;
2,98728003332885E-6;
6,38746364945152E-6;
9,03149841503418E-6;
9,36195329625923E-6;
7,92838501367874E-6;
7,06962057670833E-6;
8,72566517539356E-6;
1,22294674112821E-5;
1,41468485813545E-5;
1,06384270558629E-5;
6,66006978274841E-7;
-1,25362727315518E-5;
-2,31111998287399E-5;
-2,63146109764248E-5;
-2,15969581757745E-5;
-1,27159736172678E-5;
-4,84208696078022E-6;
-9,36494359170075E-7;
-1,72908920642362E-7;
5,54125562453869E-7;
3,51309060285029E-6;
8,12591823045799E-6;
1,17197801305699E-5;
1,22509517741709E-5;
1,04653245718999E-5;
9,42127318236685E-6;
1,16150829806496E-5;
1,61614223329603E-5;
1,86590768169489E-5;
1,42541531603079E-5;
1,68966676595872E-6;
-1,49166914518409E-5;
-2,8224342303343E-5;
-3,23595023695344E-5;
-2,66943844404545E-5;
-1,59017081926626E-5;
-6,33414245313734E-6;
-1,59187000411716E-6;
-6,51012216686488E-7;
2,51440645114738E-7;
3,83727993242794E-6;
9,39786183413367E-6;
1,37354848899674E-5;
1,44284040543029E-5;
1,23755668327421E-5;
1,1193398706643E-5;
1,38081831035298E-5;
1,91650831216023E-5;
2,21167428092554E-5;
1,70289948351177E-5;
2,4782316701211E-6;
-1,67389060063244E-5;
-3,21460906272922E-5;
-3,70073985060783E-5;
-3,0636646752611E-5;
-1,84034604079875E-5;
-7,5579428920396E-6;
-2,18366145660301E-6;
-1,10688572788939E-6;
-6,89111199666099E-8;
3,99235034003278E-6;
1,02694797438554E-5;
1,5171570379427E-5;
1,59949832962159E-5;
1,37532976809299E-5;
1,24777263909731E-5;
1,54125984931635E-5;
2,13768322060131E-5;
2,46726493299565E-5;
1,90930325978232E-5;
3,09390277838791E-6;
-1,80301820397092E-5;
-3,49745693666143E-5;
-4,0377643769521E-5;
-3,35123723823021E-5;
-2,02527174211252E-5;
-8,49483217954125E-6;
-2,66839293008515E-6;
-1,49190565870916E-6;
-3,53599268875515E-7;
4,04937480154754E-6;
1,08388679442139E-5;
1,61466936272494E-5;
1,70718897650674E-5;
1,47088787156803E-5;
1,33777487539527E-5;
1,65425441343514E-5;
2,2933966618616E-5;
2,64756361242101E-5;
2,05696776051478E-5;
3,59201847760543E-6;
-1,88235436694307E-5;
-3,68133619217714E-5;
-4,25971814040867E-5;
-3,54224979215898E-5;
-2,14991883377061E-5;
-9,14969261863674E-6;
-3,02983073476014E-6;
-1,78708298965789E-6;
-5,81095914873883E-7;
4,04493477476029E-6;
1,11666199844865E-5;
1,67395518243413E-5;
1,77391316367354E-5;
1,53112065953538E-5;
1,3955164763215E-5;
1,72692591375409E-5;
2,3929064193616E-5;
2,76289181084183E-5;
2,15381713091374E-5;
3,98789467405532E-6;
-1,91865512756044E-5;
-3,77960677674552E-5;
-4,38212282260459E-5;
-3,64974172593875E-5;
-2,22246592481441E-5;
-9,56156990667647E-6;
-3,28638828481186E-6;
-2,00730525927081E-6;
-7,62875407521003E-7;
3,98276018120695E-6;
1,12801202348299E-5;
1,69957252651003E-5;
1,80448412602626E-5;
1,55993967361954E-5;
1,42437660044766E-5;
1,76368563604558E-5;
2,44275867629547E-5;
2,82093535664181E-5;
2,2054486728042E-5;
4,27936347769642E-6;
-1,9197182552594E-5;
-3,80608355032505E-5;
-4,42067768061365E-5;
-3,68697590744389E-5;
-2,25152846086724E-5;
-9,77560470508151E-6;
-3,46274323498052E-6;
-2,17269938697073E-6;
-9,14648528390754E-7;
3,86246488381795E-6;
1,12021106522344E-5;
1,6955983257753E-5;
1,80332674052173E-5;
1,5610405237012E-5;
1,42765785080438E-5;
1,76888780331085E-5;
2,44937504133971E-5;
2,82925513615047E-5;
2,21757201305111E-5;
4,470495128518E-6;
-1,89208185353252E-5;
-3,77281200117813E-5;
-4,38912637553275E-5;
-3,66541196593948E-5;
-2,24424452963211E-5;
-9,82502835331569E-6;
-3,57296233669373E-6;
-2,29286194333205E-6;
-1,04170666496939E-6;
3,69306173673122E-6;
1,09630555221717E-5;
1,6667510557499E-5;
1,77548916418375E-5;
1,53880723180684E-5;
1,40938540307366E-5;
1,74752058842558E-5;
2,41963633120889E-5;
2,79577055742385E-5;
2,19639638625582E-5;
4,5745758113797E-6;
-1,84080838209895E-5;
-3,68993366293447E-5;
-4,29920397988813E-5;
-3,59473312450332E-5;
-2,20638091714144E-5;
-9,73297192777413E-6;
-3,62299343830418E-6;
-2,36999919209006E-6;
-1,14266938855772E-6;
3,48865546622377E-6;
1,05963077260635E-5;
1,61785903303628E-5;
1,72606867801168E-5;
1,49769874592489E-5;
1,37365719984737E-5;
1,70452673829242E-5;
2,36017750449699E-5;
2,7280308125307E-5;
2,14788274682251E-5;
4,60647327072096E-6;
-1,77026142136094E-5;
-3,56647203180656E-5;
-4,16142623468257E-5;
-3,48363430185642E-5;
-2,14311555400477E-5;
-9,52020933804051E-6;
-3,6183212086668E-6;
-2,406469375996E-6;
-1,21689279480107E-6;
3,26118948298807E-6;
1,013104492599E-5;
1,55317438660913E-5;
1,65954472855021E-5;
1,44160261569322E-5;
1,32402217368298E-5;
1,64420730835784E-5;
2,27681847104559E-5;
2,63267424941369E-5;
2,07722896288113E-5;
4,57769524145121E-6;
-1,68458098579021E-5;
-3,41078500490288E-5;
-3,98551299234807E-5;
-3,34021007223041E-5;
-2,05938695382065E-5;
-9,20827987818678E-6;
-3,56675671775449E-6;
-2,40728182835552E-6;
-1,26667301745465E-6;
3,01855798931813E-6;
9,59069606795901E-6;
1,47624613655398E-5;
1,57968022203353E-5;
1,37376007772657E-5;
1,26342657282299E-5;
1,57019375061186E-5;
2,17456488461474E-5;
2,5154523849575E-5;
1,98890864484567E-5;
4,49685354778931E-6;
-1,58763366168332E-5;
-3,23051009113346E-5;
-3,7803209976178E-5;
-3,17186585090064E-5;
-1,95977896830314E-5;
-8,81810127463005E-6;
-3,47688017030071E-6;
-2,37841122022637E-6;
-1,2954574946574E-6;
2,76651116841757E-6;
8,99498338202248E-6;
1,39013400312624E-5;
1,48973915787876E-5;
1,2969859440548E-5;
1,19443733462935E-5;
1,48567522546031E-5;
2,05784018461824E-5;
2,38146528094612E-5;
1,88690053296895E-5;
4,37177221160009E-6;
-1,48282650799382E-5;
-3,0323982201419E-5;
-3,55368458095168E-5;
-2,98515263580255E-5;
-1,84834529680655E-5;
-8,36813905574427E-6;
-3,35619613812801E-6;
-2,32500823676501E-6;
-1,30610781334863E-6;
2,51037330601268E-6;
8,36163344347194E-6;
1,29757889416382E-5;
1,39265067144781E-5;
1,21381973160681E-5;
1,11938183686383E-5;
1,39353353342702E-5;
1,93061990505311E-5;
2,23529141301465E-5;
1,77480209420935E-5;
4,21034007358067E-6;
-1,37305553650404E-5;
-2,8222898499888E-5;
-3,31240468004176E-5;
-2,78575577893084E-5;
-1,72858785399669E-5;
-7,87409550699267E-6;
-3,2108315542144E-6;
-2,25114882022364E-6;
-1,30070415551941E-6;
2,25522431519075E-6;
7,70658898187779E-6;
1,2010230174639E-5;
1,29102372968053E-5;
1,12653268670193E-5;
1,04034767940089E-5;
1,29634205439171E-5;
1,79643358708994E-5;
2,0809878442514E-5;
1,65581747499874E-5;
4,02013639907057E-6;
-1,26077433767354E-5;
-2,60520985131925E-5;
-3,06235440591207E-5;
-2,57858999116178E-5;
-1,60353495274845E-5;
-7,34955749907329E-6;
-3,04609837685021E-6;
-2,16039720742685E-6;
-1,28109611183304E-6;
2,00540972383415E-6;
7,0435911923803E-6;
1,10257564349444E-5;
1,18711388843989E-5;
1,0370902590192E-5;
9,59143734130915E-6;
1,19633076173669E-5;
1,65833883268894E-5;
1,92207066185788E-5;
1,5327305153097E-5;
3,80792812136003E-6;
-1,14807552776281E-5;
-2,38547050267122E-5;
-2,80858509111295E-5;
-2,36789373279444E-5;
-1,47581254958629E-5;
-6,80650485267971E-6;
-2,86690688105441E-6;
-2,056167740069E-6;
-1,24923736192479E-6;
1,76428405275811E-6;
6,38406065118341E-6;
1,00401010781143E-5;
1,08282363418754E-5;
9,47151357856528E-6;
8,77298557395015E-6;
1,09539121700843E-5;
1,51893674534227E-5;
1,76153659365748E-5;
1,40791898241237E-5;
3,5795866600145E-6;
-1,03672805103924E-5;
-2,16673348295027E-5;
-2,55539502409165E-5;
-2,15728408614422E-5;
-1,34767701618645E-5;
-6,25543018413109E-6;
-2,67776920025861E-6;
-1,94170547281434E-6;
-1,2071208146711E-6;
1,53435705470632E-6;
5,73734320393592E-6;
9,06798470322699E-6;
9,7973822508314E-6;
8,58100506285265E-6;
7,96091493276227E-6;
9,95112424754243E-6;
1,38041846408564E-5;
1,60191458192917E-5;
1,28339696653339E-5;
3,3402571977053E-6;
-9,28193776059171E-6;
-1,95205072454803E-5;
-2,30637665905445E-5;
-1,9497923966724E-5;
-1,2210290029679E-5;
-5,70529544649781E-6;
-2,48267019823699E-6;
-1,81993508536038E-6;
-1,15661847845455E-6;
1,31752089994721E-6;
5,11104066114481E-6;
8,12150752309456E-6;
8,79166283365853E-6;
7,71084495164091E-6;
7,16586480891925E-6;
8,96818999900877E-6;
1,24461084442225E-5;
1,44531558667901E-5;
1,1608555249006E-5;
3,09450960155096E-6;
-8,23645972939744E-6;
-1,74391069425474E-5;
-2,06447174268949E-5;
-1,74790776200443E-5;
-1,09743619056148E-5;
-5,16358246767798E-6;
-2,28502772323831E-6;
-1,69340663223931E-6;
-1,09941666481808E-6;
1,11517548331473E-6;
4,51123780114457E-6;
7,21045529794867E-6;
7,82170825719159E-6;
6,87038688173291E-6;
6,39654903078105E-6;
8,01597342599517E-6;
1,11301143103798E-5;
1,29347226392002E-5;
1,04169184118324E-5;
2,84636484368496E-6;
-7,23999366887883E-6;
-1,54429405713592E-5;
-1,83203463691116E-5;
-1,55363009823917E-5;
-9,78166175376204E-6;
-4,63643575484594E-6;
-2,08774529492002E-6;
-1,56433401367167E-6;
-1,03703587369943E-6;
9,28274745570228E-7;
3,94263197705273E-6;
6,34249634313654E-6;
6,89589698607082E-6;
6,06703861831386E-6;
5,65991126073575E-6;
7,10315502497729E-6;
9,86817441593162E-6;
1,14777202416844E-5;
9,27033334096698E-6;
2,59929334385005E-6;
-6,29942969962837E-6;
-1,35473149384059E-5;
-1,61089764808339E-5;
-1,36852421454907E-5;
-8,64219737535782E-6;
-4,12882518543627E-6;
-1,89329786628122E-6;
-1,43465529846493E-6;
-9,70871418426719E-7;
7,57338400975782E-7;
3,40866246483284E-6;
5,52340235676496E-6;
6,0205869930339E-6;
5,30645343006405E-6;
4,96128431049232E-6;
6,23643614028325E-6;
8,66954290878247E-6;
1,00928994779854E-5;
8,17762777233124E-6;
2,3562321623022E-6;
-5,41968481762352E-6;
-1,17635651307197E-5;
-1,4024310545846E-5;
-1,19376962011879E-5;
-7,5636179278725E-6;
-3,64467378229604E-6;
-1,70376177347307E-6;
-1,306055897408E-6;
-9,02200524951099E-7;
6,02529502749295E-7;
2,91166430901665E-6;
4,75725228171665E-6;
5,20033831045414E-6;
4,59272614903068E-6;
4,30457291553354E-6;
5,4207579089208E-6;
7,54106641792114E-6;
8,78824957773801E-6;
7,14545379776561E-6;
2,11962993406368E-6;
-4,60395278071051E-6;
-1,00995346988E-5;
-1,20759803509902E-5;
-1,03020524353089E-5;
-6,55147230993399E-6;
-3,18696541901669E-6;
-1,52084713962337E-6;
-1,1799709185407E-6;
-8,32168434407701E-7;
4,6370575084031E-7;
2,45302119020493E-6;
4,04667693301231E-6;
4,43815668657804E-6;
3,9285984025663E-6;
3,69244392351067E-6;
4,65953295121154E-6;
6,48748420191008E-6;
7,56933354770665E-6;
6,17855439148325E-6;
1,89149279428808E-6;
-3,85393636231181E-6;
-8,56002435725795E-6;
-1,02700651831703E-5;
-8,78372062342939E-6;
-5,60946207640452E-6;
-2,75784027785565E-6;
-1,34591863848095E-6;
-1,05759504891488E-6;
-7,61785920427722E-7;
3,40487087002524E-7;
2,03330998463002E-6;
3,39304813475643E-6;
3,73570767082109E-6;
3,3156466947501E-6;
3,12648692844373E-6;
3,9548453846172E-6;
5,5117095449361E-6;
6,43960977131789E-6;
5,28000488848704E-6;
1,67343558829925E-6;
-3,17005915877329E-6;
-7,14722121544397E-6;
-8,60957840844657E-6;
-7,385535207973E-6;
-4,73969175858962E-6;
-2,35870349466847E-6;
-1,18003249484584E-6;
-9,39909645729784E-7;
-6,91936375032223E-7;
2,32305032028538E-7;
1,65243070912115E-6;
2,79667792315055E-6;
3,09351178223219E-6;
2,75444955867576E-6;
2,60737343614594E-6;
3,30763497605129E-6;
4,61507633427373E-6;
5,40071241438928E-6;
4,45143188083613E-6;
1,46670939329087E-6;
-2,55167818701738E-6;
-5,86108942241065E-6;
-7,0949230086698E-6;
-6,10813618374508E-6;
-3,94289099589608E-6;
-1,9903158539935E-6;
-1,02397001299564E-6;
-8,27693201002978E-7;
-6,23376448810633E-7;
1,38432838769313E-7;
1,30970659894547E-6;
2,25697845112179E-6;
2,5111205576701E-6;
2,24473297888058E-6;
2,134986763969E-6;
2,71786447687357E-6;
3,79757367322145E-6;
4,45272962137485E-6;
3,69322736594206E-6;
1,27223935979224E-6;
-1,99726904235367E-6;
-4,69974121808184E-6;
-5,72432078819089E-6;
-4,95031438404555E-6;
-3,21863285930779E-6;
-1,65289970985703E-6;
-8,78266529596046E-7;
-7,21548486959127E-7;
-5,56755506764822E-7;
5,8031750083173E-8;
1,00400119299447E-6;
1,77262059086294E-6;
1,98728135777429E-6;
1,78552071093972E-6;
1,70855382651494E-6;
2,18467824560634E-6;
3,05806685679558E-6;
3,59444536441342E-6;
3,00473387941373E-6;
1,09066204765977E-6;
-1,50459861288092E-6;
-3,65977257502171E-6;
-4,49419038594276E-6;
-3,90933773040122E-6;
-2,56552506594375E-6;
-1,34620729942662E-6;
-7,43248194219387E-7;
-6,21915151603227E-7;
-4,92609047355748E-7;
-9,82318061839092E-9;
7,33802677949418E-7;
1,34167186815768E-6;
1,52008715016614E-6;
1,37525820211042E-6;
1,32676378266289E-6;
1,70655285155462E-6;
2,39449130356766E-6;
2,82356581388458E-6;
2,38442391093054E-6;
9,22356367610624E-7;
-1,07086960121536E-6;
-2,73655013641532E-6;
-3,39948985348948E-6;
-2,98122722585945E-6;
-1,98138860936769E-6;
-1,0696106537682E-6;
-6,19051139344824E-7;
-5,29093397031359E-7;
-4,31376178308362E-7;
-6,61067875784399E-8;
4,97312269931193E-7;
9,6172956034008E-7;
1,10711406588008E-6;
1,01193213040069E-6;
9,8787559987022E-7;
1,2814200891261E-6;
1,80403351166641E-6;
2,1369298282006E-6;
1,83006146721594E-6;
7,6747895595014E-7;
-6,92863342237175E-7;
-1,92449090157975E-6;
-2,4340337531144E-6;
-2,16102325850029E-6;
-1,46340762645489E-6;
-8,22162997458855E-7;
-5,05653251432578E-7;
-4,43250338618647E-7;
-3,73400599523095E-7;
-1,11823061219428E-7;
2,92522922420499E-7;
6,30031167703823E-7;
7,45540212445055E-7;
6,93176405752779E-7;
6,89810104045525E-7;
9,0678556167778E-7;
1,28329319152046E-6;
1,53069195610571E-6;
1,33884640363234E-6;
6,2599858585695E-7;
-3,67051576511699E-7;
-1,21729580565627E-6;
-1,59076717322196E-6;
-1,4430208861403E-6;
-1,00828229734348E-6;
-6,02660317145212E-7;
-4,02896448203853E-7;
-3,64447349491039E-7;
-3,18940461602906E-7;
-1,47981507707806E-7;
1,17280950763771E-7;
3,43555838082288E-7;
4,32252886058546E-7;
4,16360286433416E-7;
4,30237875657272E-7;
5,79843395307235E-7;
8,28430086355755E-7;
1,00048920326149E-6;
9,07546047014491E-7;
4,9771559248681E-7;
-8,97041122747468E-8;
-6,08156204950604E-7;
-8,62009619002855E-7;
-8,20959730485278E-7;
-6,12345925749332E-7;
-4,09708538543791E-7;
-3,10505409922134E-7;
-2,92645763482147E-7;
-2,68177531862698E-7;
-1,75582710064539E-7;
-3,06630595029804E-8;
9,91081630328366E-8;
1,63938791618753E-7;
1,78670297505381E-7;
2,06652516028843E-7;
2,97551422850211E-7;
4,35277931818298E-7;
5,41579198711851E-7;
5,32602185731099E-7;
3,82294817991474E-7;
1,43023368153694E-7;
-8,99413591789497E-8;
-2,39667230033442E-7;
-2,88218054422152E-7;
-2,71683360035837E-7;
-2,41762911250697E-7;
-2,28114468235513E-7;
-2,27727313711465E-7;
-2,21224091688703E-7;
-1,95598068122146E-7;
-1,53592442604107E-7;
-1,06604235769583E-7;
-6,28307950463387E-8;
-2,28146108122608E-8;
1,64348704737261E-8;
5,67239809416991E-8;
9,94707498552764E-8;
1,489787664141E-7;
2,10242715308073E-7;
2,79289210425503E-7;
3,3500768147983E-7;
3,44641119437268E-7;
2,84575740875165E-7;
1,62039065956939E-7;
1,77787799727532E-8;
-9,71814747709263E-8;
-1,55285481793358E-7;
-1,69502074763953E-7;
-1,78128039923453E-7;
-2,08963697369694E-7;
-2,53792736528658E-7;
-2,76901988144536E-7;
-2,51530673573012E-7;
-1,91068706358541E-7;
-1,43091524060296E-7;
-1,45903229050709E-7;
-1,83472891274093E-7;
-1,82436479278974E-7;
-6,34382840337751E-8;
1,88160587958569E-7;
4,90101290934679E-7;
7,02922214596704E-7;
7,19108832572751E-7;
5,36725528982825E-7;
2,60185490799834E-7;
2,57465096015455E-8;
-9,15168880958745E-8;
-1,17726803911984E-7;
-1,38889591590824E-7;
-2,16570745441475E-7;
-3,33514436389526E-7;
-4,1508835458931E-7;
-4,05629905637432E-7;
-3,29065939283968E-7;
-2,7461051604895E-7;
-3,13612862153683E-7;
-4,18060931808236E-7;
-4,57829360444357E-7;
-2,92406141950316E-7;
1,08299735660256E-7;
6,12077615188463E-7;
9,92147586428043E-7;
1,07225265563906E-6;
8,4272171984342E-7;
4,59682269623979E-7;
1,28753519045588E-7;
-3,62698854064834E-8;
-7,21097568299067E-8;
-1,03454045181762E-7;
-2,19253293926137E-7;
-3,9494693076186E-7;
-5,24395683602289E-7;
-5,28531114732568E-7;
-4,39732246283613E-7;
-3,80773413939756E-7;
-4,49657234937381E-7;
-6,0876495407486E-7;
-6,82324429463733E-7;
-4,80610106953779E-7;
3,90436651756749E-8;
7,04577238217954E-7;
1,21938903083708E-6;
1,35215604967356E-6;
1,08678031559781E-6;
6,20358410270701E-7;
2,13578440293453E-7;
1,10253998787131E-8;
-3,23273050814265E-8;
-7,17334894648054E-8;
-2,1778950709877E-7;
-4,40188947976944E-7;
-6,07954509046705E-7;
-6,23540987550034E-7;
-5,25913952664026E-7;
-4,64167937347991E-7;
-5,57213897131325E-7;
-7,59957586485988E-7;
-8,60945034955386E-7;
-6,31941297956038E-7;
-2,03038625705869E-8;
7,7108964961048E-7;
1,39146979429492E-6;
1,56670150979521E-6;
1,27545340775877E-6;
7,46194779884832E-7;
2,8193318789889E-7;
5,09594114724926E-8;
1,97262826354495E-9;
-4,36027747239766E-8;
-2,12895775165779E-7;
-4,71242091919177E-7;
-6,68760588573247E-7;
-6,93833642721005E-7;
-5,9035389552313E-7;
-5,27290318931347E-7;
-6,39357121924056E-7;
-8,75868593632517E-7;
-9,98552453191638E-7;
-7,50187157440352E-7;
-7,04666375374568E-8;
8,14913192043354E-7;
1,51490502434677E-6;
1,72343578248997E-6;
1,41502053165632E-6;
8,41027723665525E-7;
3,35487546476571E-7;
8,41246425322357E-8;
3,11611969136594E-8;
-1,89095381908639E-8;
-2,05225103073438E-7;
-4,89984903950589E-7;
-7,0965364988992E-7;
-7,42425706993935E-7;
-6,35660627555073E-7;
-5,72523092477292E-7;
-6,99024132599372E-7;
-9,60547900353746E-7;
-1,09980665841188E-6;
-8,38985578392268E-7;
-1,12172833603151E-7;
8,39145038913214E-7;
1,59585464562109E-6;
1,82951623082392E-6;
1,51145487044476E-6;
9,08513457020597E-7;
3,7584896154642E-7;
1,11114549017566E-7;
5,56173513051062E-8;
2,5181451135175E-9;
-1,95368379527053E-7;
-4,98178387384377E-7;
-7,3330354234921E-7;
-7,72154579898821E-7;
-6,64297663799161E-7;
-6,02120699013843E-7;
-7,38997374424165E-7;
-1,01783421109913E-6;
-1,16913144979418E-6;
-9,01808187360986E-7;
-1,4615212414026E-7;
8,46666733738104E-7;
1,64009511919395E-6;
1,89166626348286E-6;
1,57037709680242E-6;
9,52110335826168E-7;
4,04556465775478E-7;
1,32514442808671E-7;
7,57274561266077E-8;
2,08715986882254E-8;
-1,83853956047327E-7;
-4,97443734781482E-7;
-7,42193733588845E-7;
-7,85677941522123E-7;
-6,78568178193902E-7;
-6,18196784616412E-7;
-7,61898955120785E-7;
-1,05133920059065E-6;
-1,21068977525316E-6;
-9,41935297884395E-7;
-1,73126476056282E-7;
8,40130174185331E-7;
1,65299175504155E-6;
1,91615252310276E-6;
1,59703555543357E-6;
9,75056154937487E-7;
4,23064514945681E-7;
1,48892292236031E-7;
9,18740643511702E-8;
3,63528432389557E-8;
-1,71149119780383E-7;
-4,89274142984773E-7;
-7,38619023760097E-7;
-7,85447207385889E-7;
-6,8060937227665E-7;
-6,22716838173285E-7;
-7,70160745354325E-7;
-1,06442769136227E-6;
-1,22836960716623E-6;
-9,62436189084137E-7;
-1,9379716010302E-7;
8,21964525228541E-7;
1,63949387658405E-6;
1,90876377199746E-6;
1,59629470871216E-6;
9,80363540211511E-7;
4,32734713806424E-7;
1,6079678519842E-7;
1,04437055501881E-7;
4,91726280507059E-8;
-1,57662977743844E-7;
-4,75025711403093E-7;
-7,2468303224887E-7;
-7,73719450354967E-7;
-6,72386794702933E-7;
-6,17494071160216E-7;
-7,66036645646903E-7;
-1,06021407474E-6;
-1,22577099153042E-6;
-9,66167016640831E-7;
-2,08842433598873E-7;
7,94370602713756E-7;
1,60412638552447E-6;
1,87481286606891E-6;
1,5726205645095E-6;
9,70807183579008E-7;
4,3484041340295E-7;
1,68752867812149E-7;
1,13784134589426E-7;
5,95445462368724E-8;
-1,43750191426785E-7;
-4,55923064626931E-7;
-7,02295904129626E-7;
-7,52550092979265E-7;
-6,55696944887378E-7;
-6,04187891642279E-7;
-7,51593534304447E-7;
-1,0415524250654E-6;
-1,20619593418513E-6;
-9,55761696913269E-7;
-2,1891138390673E-7;
7,59326922542006E-7;
1,55098967049235E-6;
1,8191268790817E-6;
1,53008284726423E-6;
9,48925053442571E-7;
4,30555930471931E-7;
1,73256847663096E-7;
1,20270022367855E-7;
6,7684380501097E-8;
-1,2971391219503E-7;
-4,33059635343617E-7;
-6,73177202269973E-7;
-7,23795735770691E-7;
-6,32163661590285E-7;
-5,84303997882035E-7;
-7,28707796361152E-7;
-1,01104632643035E-6;
-1,17266227861566E-6;
-9,33626454010822E-7;
-2,24622685661571E-7;
7,18597037585445E-7;
1,48378140434336E-6;
1,7460640519333E-6;
1,4723640777985E-6;
9,17023049859518E-7;
4,20956244234306E-7;
1,74774650579257E-7;
1,24234559729075E-7;
7,38050625693904E-8;
-1,15807341108943E-7;
-4,07405499234537E-7;
-6,38865614139515E-7;
-6,89120744792966E-7;
-6,03249222876972E-7;
-5,5920021435709E-7;
-6,9907541893025E-7;
-9,71043236173963E-7;
-1,1278942088781E-6;
-9,01950344563739E-7;
-2,26553421493285E-7;
6,7373892083663E-7;
1,40579158449215E-6;
1,65952256083604E-6;
1,40276723801124E-6;
8,77178045600627E-7;
4,07019835535301E-7;
1,73741559608056E-7;
1,26001659274512E-7;
7,81155949231285E-8;
-1,02240518886274E-7;
-3,79812572750791E-7;
-6,00723096521021E-7;
-6,50003195688107E-7;
-5,70253188386308E-7;
-5,3008702806834E-7;
-6,64215143952867E-7;
-9,23651060446914E-7;
-1,0743369923292E-6;
-8,62704842267655E-7;
-2,25249861349894E-7;
6,26113346949217E-7;
1,31993274042546E-6;
1,56296200775259E-6;
1,3242287468372E-6;
8,31240328840203E-7;
3,89630694841477E-7;
1,70560663582837E-7;
1,25873470334399E-7;
8,08189702537807E-8;
-8,91842611543357E-8;
-3,51022448761531E-7;
-5,59945862411928E-7;
-6,07744226097551E-7;
-5,34321200462287E-7;
-4,98037047412765E-7;
-6,25471093186618E-7;
-8,70738630544666E-7;
-1,01416964810826E-6;
-8,17651917611802E-7;
-2,21214276730334E-7;
5,76899994565334E-7;
1,22875835167175E-6;
1,45942172445069E-6;
1,23933559773994E-6;
7,80852573331284E-7;
3,69580659902642E-7;
1,65600478788428E-7;
1,24131662584821E-7;
8,21093218369126E-8;
-7,67709340805535E-8;
-3,21669580726378E-7;
-5,17570592083422E-7;
-5,63480190656669E-7;
-4,96458127098376E-7;
-4,63991469000267E-7;
-5,84030579333902E-7;
-8,1395383081494E-7;
-9,49310013182968E-7;
-7,68352963683468E-7;
-2,14907756695034E-7;
5,27105850173622E-7;
1,13447418057955E-6;
1,35154617165562E-6;
1,15034775563852E-6;
7,2745292683418E-7;
3,47571593444776E-7;
1,59199198363935E-7;
1,21039791191086E-7;
8,21712059998383E-8;
-6,51010086111188E-8;
-2,92292000634959E-7;
-4,74487326907133E-7;
-5,18187596452985E-7;
-4,57531277110364E-7;
-4,2876878572393E-7;
-5,40923409535948E-7;
-7,54730757166724E-7;
-8,81435484087204E-7;
-7,16176681969051E-7;
-2,0675386695227E-7;
4,77579024849294E-7;
1,03897926813304E-6;
1,24161311506489E-6;
1,05921613344729E-6;
6,72292401292564E-7;
3,24220452383739E-7;
1,51662858118382E-7;
1,16839038454163E-7;
8,11786010406952E-8;
-5,42463034701485E-8;
-2,63340805436376E-7;
-4,31451664490896E-7;
-4,72701293335437E-7;
-4,18281938562461E-7;
-3,93066325107749E-7;
-4,97037565140492E-7;
-6,94310150571439E-7;
-8,11992140465314E-7;
-6,6231537389233E-7;
-1,9713870802307E-7;
4,29024941515427E-7;
9,43871248048119E-7;
1,13155777678689E-6;
9,6760732214841E-7;
6,16442857566972E-7;
3,00067518282077E-7;
1,43262017466017E-7;
1,11745556498414E-7;
7,92961233003828E-8;
-4,4252315015595E-8;
-2,35184436539859E-7;
-3,89094267342116E-7;
-4,27721344064119E-7;
-3,79335557587376E-7;
-3,57480978366866E-7;
-4,53129085932122E-7;
-6,33746683304827E-7;
-7,422221882128E-7;
-6,07795027564675E-7;
-1,86404024090782E-7;
3,82017739147506E-7;
8,50486507743285E-7;
1,02300191633277E-6;
8,76918562528041E-7;
5,60813241099225E-7;
2,75575807096838E-7;
1,342398904587E-7;
1,05960597528446E-7;
7,66752279047449E-8;
-3,51447927639283E-8;
-2,08118900181927E-7;
-3,47930511729033E-7;
-3,83824339276247E-7;
-3,41211162368279E-7;
-3,22507458947059E-7;
-4,09830827008823E-7;
-5,73928424507435E-7;
-6,73166080614039E-7;
-5,53484521715084E-7;
-1,74861566299024E-7;
3,37010659059397E-7;
7,59911477141363E-7;
9,17277171839619E-7;
7,88312051684037E-7;
5,0616284864243E-7;
2,51141105249097E-7;
1,24814984814736E-7;
9,96607378017188E-8;
7,34532415174497E-8;
-2,69285471362656E-8;
-1,8237402043652E-7;
-3,08374288173715E-7;
-3,41476723952732E-7;
-3,04329280007681E-7;
-2,88553281067569E-7;
-3,67665943804683E-7;
-5,15588852369717E-7;
-6,05690747576203E-7;
-5,00109413752696E-7;
-1,62779884567375E-7;
2,94353585807461E-7;
6,73018416499354E-7;
8,15462427582186E-7;
7,0272838423397E-7;
4,53115287481484E-7;
2,27094416169124E-7;
1,15170850492454E-7;
9,3006705578988E-8;
6,97602321463712E-8;
-1,95947633793868E-8;
-1,5812243189056E-7;
-2,70748174773473E-7;
-3,01047615222184E-7;
-2,69026073496036E-7;
-2,55942593312343E-7;
-3,27054878236797E-7;
-4,59318721730571E-7;
-5,40494788275524E-7;
-4,48271198508838E-7;
-1,50400240616703E-7;
2,54303705100013E-7;
5,90478259308307E-7;
7,18399550064622E-7;
6,20912783838076E-7;
4,0216839175569E-7;
2,03708890513312E-7;
1,05470925302024E-7;
8,61361399149098E-8;
6,57095091024389E-8;
-1,31196407012786E-8;
-1,354843555556E-7;
-2,35291417606061E-7;
-2,6281609152875E-7;
-2,35559476417133E-7;
-2,24929593484689E-7;
-2,8832945387699E-7;
-4,05589728081289E-7;
-4,78139809705156E-7;
-3,98448275986366E-7;
-1,37927673819339E-7;
2,17033436436887E-7;
5,12790662820816E-7;
6,26724959197843E-7;
5,43432426945564E-7;
3,53708956655953E-7;
1,81203826085975E-7;
9,5851511135324E-8;
7,91705226260116E-8;
6,1403940276257E-8;
-7,47197854083829E-9;
-1,14537711056161E-7;
-2,021760584867E-7;
-2,26986028346101E-7;
-2,04117896125099E-7;
-1,95703395259169E-7;
-2,51738966706515E-7;
-3,54755972758713E-7;
-4,19050840850695E-7;
-3,51016955462666E-7;
-1,25539351813017E-7;
1,82649240151514E-7;
4,40303132386511E-7;
5,40893590676356E-7;
4,70703368548312E-7;
3,08030517988665E-7;
1,59754588044333E-7;
8,64292596176111E-8;
7,22161489692617E-8;
5,69365447875472E-8;
-2,60841703725719E-9;
-9,53193921154149E-8;
-1,71505249656638E-7;
-1,93687357952909E-7;
-1,74830068030826E-7;
-1,68395401867331E-7;
-2,1746192522336E-7;
-3,07074932668608E-7;
-3,63539329006046E-7;
-3,0625872267121E-7;
-1,13383743336962E-7;
1,51190946359677E-7;
3,73226955905888E-7;
4,61201930522358E-7;
4,03001393099132E-7;
2,65334058984663E-7;
1,39492624354095E-7;
7,7298863991254E-8;
6,53616534895654E-8;
5,23885433254973E-8;
1,51728544565588E-9;
-7,78346797802883E-8;
-1,43332845791555E-7;
-1,62995971870361E-7;
-1,4776961182718E-7;
-1,43089191511242E-7;
-1,85616992312259E-7;
-2,6271890455135E-7;
-3,1181870277195E-7;
-2,64374268145063E-7;
-1,01585417168877E-7;
1,22651855650152E-7;
3,11660059195971E-7;
3,87804960770209E-7;
3,40489572955837E-7;
2,25747654768849E-7;
1,20509704556083E-7;
6,8538166224965E-8;
5,86798393579735E-8;
4,78297166852197E-8;
4,95764034053853E-9;
-6,2062793950356E-8;
-1,17664806135297E-7;
-1,34936372936432E-7;
-1,22969990389679E-7;
-1,19825832895248E-7;
-1,56266856866961E-7;
-2,21782041312402E-7;
-2,64009770414467E-7;
-2,25488881097922E-7;
-9,02443427162338E-8;
9,69787531689436E-8;
2,55605151562692E-7;
3,20744766987532E-7;
2,83224057474903E-7;
1,89335615104986E-7;
1,02868512207263E-7;
6,02058770165683E-8;
5,22344704375814E-8;
4,33197552313334E-8;
7,76606954165301E-9;
-4,795927238033E-8;
-9,44725747112235E-8;
-1,09488441430417E-7;
-1,00422683883195E-7;
-9,86108721592009E-8;
-1,29428729569925E-7;
-1,84296982496586E-7;
-2,20161275905847E-7;
-1,89669166304716E-7;
-7,94399177759429E-8;
7,40884690962747E-8;
2,04981755765199E-7;
2,59960353342538E-7;
2,31180487341558E-7;
1,56105151274719E-7;
8,65995851482931E-8;
5,23504570820905E-8;
4,60753627408175E-8;
3,8908925385737E-8;
9,99867534769664E-9;
-3,54630549578198E-8;
-7,36920413243923E-8;
-8,65989487237267E-8;
-8,00904219130133E-8;
-7,94172841059964E-8;
-1,0507864495922E-7;
-1,50238929605689E-7;
-1,80257349137891E-7;
-1,56926381137678E-7;
-6,92329417631626E-8;
5,38645375444283E-8;
1,59643829689577E-7;
2,053158221826E-7;
1,84261020885776E-7;
1,26014520442148E-7;
7,17131817614451E-8;
4,50002900318994E-8;
4,02363254912803E-8;
3,46422717709616E-8;
1,17124367485077E-8;
-2,44976462086914E-8;
-5,52336575090744E-8;
-6,61848323058792E-8;
-6,19072382388099E-8;
-6,21941514083189E-8;
-8,31657770415326E-8;
-1,19542138019547E-7;
-1,44226674344914E-7;
-1,27225013127292E-7;
-5,9665993893613E-8;
3,61734666568916E-8;
1,19391407279019E-7;
1,56602116755635E-7;
1,42310275547892E-7;
9,8988191140147E-8;
5,81967107847096E-8;
3,81792606411779E-8;
3,47498986933708E-8;
3,05517634929174E-8;
1,29625309035718E-8;
-1,49747584128567E-8;
-3,89909932309338E-8;
-4,81428856172238E-8;
-4,57887257487141E-8;
-4,68700856855711E-8;
-6,36089622677288E-8;
-9,210064861696E-8;
-1,11959388350017E-7;
-1,00496937521648E-7;
-5,07662497115387E-8;
2,08630077813469E-8;
8,39819045413547E-8;
1,13560534100893E-7;
1,05125882495968E-7;
7,4916841648971E-8;
4,60204336325228E-8;
3,18958190690269E-8;
2,96327920696334E-8;
2,66655251368605E-8;
1,38040664653655E-8;
-6,80097465429491E-9;
-2,48389617852118E-8;
-3,23469819027643E-8;
-3,16340218477676E-8;
-3,33590641788096E-8;
-4,63067471639003E-8;
-6,77821955000048E-8;
-8,33049144867969E-8;
-7,66390333244966E-8;
-4,25538348128805E-8;
7,76956124379119E-9;
5,31411913543849E-8;
7,58913125993025E-8;
7,24712461289505E-8;
5,36657956170592E-8;
3,51402708772334E-8;
2,61515686386235E-8;
2,48971807323209E-8;
2,30037142449168E-8;
1,42870956116162E-8;
1,22238173583781E-10;
-1,26456080443236E-8;
-1,8662748352542E-8;
-1,93269524232517E-8;
-2,15630733685279E-8;
-3,11436462677152E-8;
-4,64240293475382E-8;
-5,80870038922353E-8;
-5,55287724103102E-8;
-3,50290937488049E-8;
-3,27288531522594E-9;
2,65757639696213E-8;
4,32667235445354E-8;
4,40795932000164E-8;
3,50843434829371E-8;
2,55031835466341E-8;
2,0940741115087E-8;
2,05491120217213E-8;
1,95826228285894E-8;
1,44630358068423E-8;
5,89672100741269E-9;
-2,26912222262281E-9;
-6,94577067647553E-9;
-8,74733918475531E-9;
-1,1370308603499E-8;
-1,79887028364877E-8;
-2,78572192064889E-8;
-3,61110977211396E-8;
-3,70204976686321E-8;
-2,81879929006326E-8;
-1,24387275114464E-8;
3,97338449732877E-9;
1,53366052276299E-8;
1,96683160149534E-8;
1,90066445715309E-8;
1,70454113910585E-8;
1,62510448511919E-8;
1,65866649369553E-8;
1,64100322467838E-8;
1,43773119226476E-8;
1,06254819146029E-8;
6,43502789220615E-9;
2,95585679867614E-9;
2,33243158881868E-10;
-2,67255647963597E-9;
-6,70757847837405E-9;
-1,18945894058314E-8;
-1,7165780872563E-8;
-2,09563699633297E-8;
-2,20163005703396E-8;
-1,98979829765712E-8;
-1,49821601027407E-8;
-8,25732328730552E-9;
-1,05590522124197E-9;
5,25567183091823E-9;
9,69571292537693E-9;
1,20660339004775E-8;
1,30036000339938E-8;
1,34907925429996E-8;
1,40731274581347E-8;
1,4408945834655E-8;
1,36130213816884E-8;
1,11916397628198E-8;
7,74378649221901E-9;
4,65138502909323E-9;
2,84407503779841E-9;
1,65854613669518E-9;
-1,03137714691839E-9;
-7,17161027644712E-9;
-1,64943416427839E-8;
-2,58214032163419E-8;
-3,06107970524894E-8;
-2,78807717416721E-8;
-1,83951240965555E-8;
-6,34639895866534E-9;
3,38267119208413E-9;
8,36412747398864E-9;
9,79154934498118E-9;
1,08271991788895E-8;
1,35904137735888E-8;
1,73466063061754E-8;
1,94077321051413E-8;
1,79134631049109E-8;
1,39159504535322E-8;
1,07166021383284E-8;
1,08058644867873E-8;
1,29966841539803E-8;
1,25169295456062E-8;
4,50630195085611E-9;
-1,15948533456105E-8;
-3,03714615032365E-8;
-4,32269804993158E-8;
-4,38950381467842E-8;
-3,26485236050746E-8;
-1,5982221003155E-8;
-1,97234171269673E-9;
5,12043180030331E-9;
6,93507586447112E-9;
8,41464679539222E-9;
1,29660283020455E-8;
1,95337791180431E-8;
2,3962223305206E-8;
2,32719468059565E-8;
1,88763520485936E-8;
1,56399834295056E-8;
1,73237015348398E-8;
2,23160928213942E-8;
2,37011181738484E-8;
1,42496738214271E-8;
-7,28960949186787E-9;
-3,37097293985422E-8;
-5,31407496821856E-8;
-5,66559006431721E-8;
-4,41098787459429E-8;
-2,3829677948793E-8;
-6,44637570619204E-9;
2,3084050902321E-9;
4,42000390142627E-9;
6,24946949495555E-9;
1,22323673020522E-8;
2,10612557811293E-8;
2,74120731499154E-8;
2,74104315730155E-8;
2,27512195916984E-8;
1,95368202437586E-8;
2,25364541581978E-8;
2,9809715360903E-8;
3,27459991211372E-8;
2,22310338062457E-8;
-3,54588674391375E-9;
-3,59836795304025E-8;
-6,06478120554173E-8;
-6,65096399895627E-8;
-5,30720836866893E-8;
-3,00687105764647E-8;
-1,01179973001981E-8;
-1,02363208072972E-10;
2,22657670702188E-9;
4,32150211888056E-9;
1,14169763507699E-8;
2,20145652760582E-8;
2,98878849824455E-8;
3,04682468120112E-8;
2,56611684054518E-8;
2,25164757818413E-8;
2,65802850447921E-8;
3,56659550618246E-8;
3,98666197452133E-8;
2,86231218805251E-8;
-3,2400403462247E-10;
-3,73346853187788E-8;
-6,60324714393272E-8;
-7,37862333776834E-8;
-5,98072715786322E-8;
-3,48671600941913E-8;
-1,30615617649102E-8;
-2,13656824780213E-9;
3,37673861592508E-10;
2,62282315502396E-9;
1,05478845054373E-8;
2,24757547969724E-8;
3,15133923183573E-8;
3,25769299998485E-8;
2,77217250185541E-8;
2,46858105528604E-8;
2,95868027954598E-8;
4,00672906628288E-8;
4,52742652343945E-8;
3,35881143953386E-8;
2,4094739695876E-9;
-3,78958511700576E-8;
-6,95639545939007E-8;
-7,88005300064835E-8;
-6,45842072663767E-8;
-3,83919771063096E-8;
-1,53528484815105E-8;
-3,82978889408311E-9;
-1,27037068722037E-9;
1,14235966217454E-9;
9,64693421690384E-9;
2,25182542851452E-8;
3,24036098574277E-8;
3,38609470636415E-8;
2,90415630644059E-8;
2,61450350401079E-8;
3,16813690689333E-8;
4,3183662215387E-8;
4,91650003324574E-8;
3,72869845431079E-8;
4,69345303472836E-9;
-3,77910814814791E-8;
-7,14942088835686E-8;
-8,18496314590863E-8;
-6,76501352390798E-8;
-4,07969662407432E-8;
-1,70653809133884E-8;
-5,21015289080532E-9;
-2,61810290617152E-9;
-1,34319195736124E-10;
8,7336697925262E-9;
2,2209135299472E-8;
3,26659170496796E-8;
3,44373407386199E-8;
2,97200397487312E-8;
2,69880768598521E-8;
3,29822201302476E-8;
4,5179777230194E-8;
5,17317081472222E-8;
3,98695369046994E-8;
6,5662098015301E-9;
-3,71285051894873E-8;
-7,20568316252598E-8;
-8,32091102303708E-8;
-6,9238702925538E-8;
-4,22296919758432E-8;
-1,82659951971081E-8;
-6,30595376451177E-9;
-3,7258115063216E-9;
-1,22000965740681E-9;
7,82481731039269E-9;
2,16135605584913E-8;
3,23995220648612E-8;
3,44123611350283E-8;
2,98536408973108E-8;
2,73026352948934E-8;
3,35985453764693E-8;
4,62083741720773E-8;
5,31490189152785E-8;
4,14781073083615E-8;
8,06524384597215E-9;
-3,60135802787531E-8;
-7,14678928854542E-8;
-8,31368274349052E-8;
-6,95703715055512E-8;
-4,28251837878461E-8;
-1,90181446282456E-8;
-7,14713301395008E-9;
-4,61473799566344E-9;
-2,12750895175424E-9;
6,93395504540146E-9;
2,07876463844363E-8;
3,16968676388531E-8;
3,38857564701643E-8;
2,95283943913935E-8;
2,7170138815132E-8;
3,36323784824916E-8;
4,64093979728012E-8;
5,35833904002486E-8;
4,22483468483158E-8;
9,22832791970979E-9;
-3,45355807525778E-8;
-6,99230920878E-8;
-8,18642265821299E-8;
-6,884149599155E-8;
-4,27132250231342E-8;
-1,93853848062309E-8;
-7,76182884476304E-9;
-5,30808482689156E-9;
-2,87336292722643E-9;
6,07139931683277E-9;
1,9781282140046E-8;
3,06384394621612E-8;
3,29469967906174E-8;
2,88261828102649E-8;
2,66656819852059E-8;
3,31772998499245E-8;
4,59153367740363E-8;
5,31851007929462E-8;
4,23003414498875E-8;
1,00913271514789E-8;
-3,27783524780491E-8;
-6,76052415754715E-8;
-7,96078845748193E-8;
-6,72345833751246E-8;
-4,20071023848949E-8;
-1,94231104158592E-8;
-8,1776030575868E-9;
-5,82545493577626E-9;
-3,46910878020376E-9;
5,24864766411456E-9;
1,86393375751547E-8;
2,92976521973158E-8;
3,16767356092848E-8;
2,78169142952894E-8;
2,58564401668903E-8;
3,23191765570311E-8;
4,48457717259349E-8;
5,20957893203673E-8;
4,17486113343427E-8;
1,06865312706022E-8;
-3,08139076791472E-8;
-6,46718848206294E-8;
-7,65606921131025E-8;
-6,49182454738414E-8;
-4,08147723092175E-8;
-1,91815482453152E-8;
-8,41641291698401E-9;
-6,18569180730646E-9;
-3,93055044903734E-9;
4,4707203424347E-9;
1,74023541314463E-8;
2,77435014679199E-8;
3,01484921244711E-8;
2,65648303404621E-8;
2,48046813830564E-8;
3,11359087949638E-8;
4,33079014037782E-8;
5,04420873380805E-8;
4,07001295402986E-8;
1,10498978312799E-8;
-2,87078372933606E-8;
-6,12694530145238E-8;
-7,28972375257635E-8;
-6,20413939113036E-8;
-3,92298960914425E-8;
-1,87101645584364E-8;
-8,50580999234114E-9;
-6,40848601693016E-9;
-4,27193285980189E-9;
3,74272070780542E-9;
1,61048909253173E-8;
2,60328082270206E-8;
2,84283780710943E-8;
2,51303358798603E-8;
2,35635228492878E-8;
2,96962045424018E-8;
4,13991726334041E-8;
4,83391459331205E-8;
3,92488572299609E-8;
1,12089470868745E-8;
-2,65128157768367E-8;
-5,75222951251469E-8;
-6,87688078183862E-8;
-5,87323712603152E-8;
-3,73411086696972E-8;
-1,80519663317834E-8;
-8,46479533154544E-9;
-6,51359090202055E-9;
-4,50675652080167E-9;
3,07025102762483E-9;
1,4776672162045E-8;
2,42155401732829E-8;
2,6570380211168E-8;
2,35620051550066E-8;
2,21833333174395E-8;
2,80639200987415E-8;
3,92089260529939E-8;
4,58877353539412E-8;
3,74777043016847E-8;
1,11958415815294E-8;
-2,42800064837209E-8;
-5,35446780700893E-8;
-6,43137114939112E-8;
-5,51150282863411E-8;
-3,52224639248773E-8;
-1,72454360332181E-8;
-8,31520995537239E-9;
-6,51293781683077E-9;
-4,64585037144838E-9;
2,45332205312845E-9;
1,34426806968829E-8;
2,23382959571122E-8;
2,46263984048501E-8;
2,19046771645793E-8;
2,07050889535584E-8;
2,6291797693054E-8;
3,68109338276852E-8;
4,31787162660675E-8;
3,5463751398431E-8;
1,10350816962005E-8;
-2,20472812813603E-8;
-4,94306177097566E-8;
-5,9647979113163E-8;
-5,12875621435674E-8;
-3,29423845158684E-8;
-1,63267855413065E-8;
-8,07736190230745E-9;
-6,42682034045539E-9;
-4,70325022964604E-9;
1,89376726522111E-9;
1,21246419338898E-8;
2,04373190498582E-8;
2,26373382513478E-8;
2,01970709527613E-8;
1,91677102339356E-8;
2,44302637771263E-8;
3,42750589994685E-8;
4,02935726071609E-8;
3,32743466220624E-8;
1,07512028489348E-8;
-1,98481159459486E-8;
-4,52641098136963E-8;
-5,48776963339395E-8;
-4,73433433847589E-8;
-3,05596298084688E-8;
-1,53241777832223E-8;
-7,76650644150257E-9;
-6,26844684572595E-9;
-4,68916063131726E-9;
1,39171288536502E-9;
1,0839199472923E-8;
1,85451596466641E-8;
2,0641955734966E-8;
