0,000171473916201063;
0,000379420988675199;
0,000453623381202737;
0,000387792644910635;
0,000249849079267725;
0,000128575618857689;
7,25111948883902E-5;
6,67924355360326E-5;
6,0948890892877E-5;
1,97215989175672E-5;
-4,69764943879413E-5;
-9,80599473086123E-5;
-0,000103516068653137;
-7,53099101055085E-5;
-5,81342098604523E-5;
-8,69258571634538E-5;
-0,000148179380452225;
-0,000180784079338269;
-0,000119948716372298;
4,87838148700705E-5;
0,000268927086251953;
0,000444502916697877;
0,000501670611627883;
0,000434944133460091;
0,000304474319884733;
0,000188802686457266;
0,000130842262116868;
0,00011747157893729;
0,000104147083619267;
5,97863130946036E-5;
-6,82728314801233E-6;
-5,94413191380633E-5;
-7,15971781393877E-5;
-5,38351271724154E-5;
-4,54983094020774E-5;
-7,73090968916919E-5;
-0,000137355745409501;
-0,000171889226245216;
-0,000123979845694404;
1,90373007967075E-5;
0,000207532248679505;
0,000357265614256635;
0,000403488534024018;
0,000341430196792272;
0,000223833191702773;
0,00011949801399417;
6,59777719048318E-5;
5,17700487490147E-5;
3,79080023949564E-5;
-2,77417590065397E-6;
-6,25939234344739E-5;
-0,000109895773219755;
-0,000121604101443184;
-0,000106938184959001;
-0,000100217767698105;
-0,000128216294642106;
-0,00018055059232728;
-0,000210431473653691;
-0,000168351013980876;
-4,3343426354732E-5;
0,000121403416383018;
0,000252679232004336;
0,000294266104667826;
0,000242045265727048;
0,000141781355282873;
5,31145866475675E-5;
8,55950437087183E-6;
-1,87184760402868E-6;
-1,19210462775195E-5;
-4,50884341488722E-5;
-9,47291931987555E-5;
-0,000133497379409238;
-0,000141485138394584;
-0,000126673726147985;
-0,000118682062011276;
-0,000140590929441683;
-0,000183446228544976;
-0,000206959417229942;
-0,000168547575636867;
-5,88209620458643E-5;
8,50549029207531E-5;
0,000200165549777388;
0,000238251378527573;
0,000195803137167415;
0,000112087419765788;
3,82202656318689E-5;
2,03579858369565E-6;
-5,03360367388187E-6;
-1,1859338209073E-5;
-3,85255144981595E-5;
-7,93439953847841E-5;
-0,000110963309513702;
-0,000116406325183683;
-0,000102493468228116;
-9,44713887249091E-5;
-0,000111987359903729;
-0,000147404507652878;
-0,000166449800014983;
-0,00013294384948409;
-3,89426754813853E-5;
8,39759719241403E-5;
0,000182434311740638;
0,00021553997270323;
0,000180351626251457;
0,00011013540713001;
4,81396782129935E-5;
1,78853379973663E-5;
1,21247612363718E-5;
6,48762163056707E-6;
-1,59537938125667E-5;
-5,03886200970895E-5;
-7,71412776332973E-5;
-8,19280861448641E-5;
-7,04940244722495E-5;
-6,40559341537721E-5;
-7,90985570542366E-5;
-0,000109194284735669;
-0,000125597737493931;
-9,8009761726931E-5;
-1,98083756826457E-5;
8,25656187629422E-5;
0,000164491827948888;
0,000191838185915313;
0,000162182726984402;
0,000103288652485185;
5,11937888924873E-5;
2,54690256293485E-5;
2,00770547906915E-5;
1,47681243663335E-5;
-4,49843667181894E-6;
-3,37159578495129E-5;
-5,65710145423853E-5;
-6,1241923674619E-5;
-5,24912325391739E-5;
-4,78566451035379E-5;
-6,09383321283537E-5;
-8,64152937111048E-5;
-0,000100586718694387;
-7,85159043586076E-5;
-1,47853695606072E-5;
6,88445089066577E-5;
0,000135727485464118;
0,000157882340533608;
0,000133355073999542;
8,48988685550747E-5;
4,19921370435629E-5;
2,06136815681975E-5;
1,58241319400232E-5;
1,11134966656635E-5;
-4,94140126165996E-6;
-2,90673307356138E-5;
-4,80036674433093E-5;
-5,21631541607777E-5;
-4,54195476187138E-5;
-4,19793771363534E-5;
-5,2833511760101E-5;
-7,36663015462158E-5;
-8,53447811010945E-5;
-6,77843753573375E-5;
-1,66569213953655E-5;
5,05075236572331E-5;
0,000104266108106777;
0,000122190025388173;
0,000102744431879202;
6,41585539303115E-5;
2,99921768064683E-5;
1,29843582072019E-5;
9,1845484280556E-6;
5,45070257430354E-6;
-7,28508063327355E-6;
-2,64117928416704E-5;
-4,14171249834468E-5;
-4,47240665933646E-5;
-3,94073967641275E-5;
-3,66803665146878E-5;
-4,51909976240974E-5;
-6,15279274277323E-5;
-7,06592731878917E-5;
-5,68537574346486E-5;
-1,67589622713649E-5;
3,58889147046759E-5;
7,81028090817994E-5;
9,24271005465594E-5;
7,7701268693456E-5;
4,81048737664549E-5;
2,19028141165191E-5;
8,93771597717044E-6;
6,14366653310682E-6;
3,38810870274703E-6;
-6,29361725257309E-6;
-2,08820151299612E-5;
-3,23170584778483E-5;
-3,48139818064927E-5;
-3,07341133884186E-5;
-2,86223433173755E-5;
-3,50395273506725E-5;
-4,73797281424323E-5;
-5,42611055396445E-5;
-4,38243550713285E-5;
-1,35829610656311E-5;
2,61011835968583E-5;
5,79784296493237E-5;
6,90104984372139E-5;
5,83692204938551E-5;
3,66408952232506E-5;
1,73948171968023E-5;
7,90684903120584E-6;
5,89598523053291E-6;
3,89584526686676E-6;
-3,19607707455521E-6;
-1,38837988229119E-5;
-2,22761460079339E-5;
-2,41721446513919E-5;
-2,1301605905924E-5;
-1,98516385952217E-5;
-2,45401328368785E-5;
-3,34722115751861E-5;
-3,84858831643277E-5;
-3,11352156797107E-5;
-9,69553375965169E-6;
1,84451902273218E-5;
4,10901416823829E-5;
4,9089070980995E-5;
4,19061279045498E-5;
2,69681972260143E-5;
1,37182078986932E-5;
7,17788276797236E-6;
5,7557883262702E-6;
4,32531181351466E-6;
-5,83072296975418E-7;
-7,93281783160015E-6;
-1,37334413920228E-5;
-1,51708830327434E-5;
-1,34216694882254E-5;
-1,26096906336156E-5;
-1,58413868868157E-5;
-2,18440860929171E-5;
-2,52694484576386E-5;
-2,0652228638762E-5;
-6,93206130335517E-6;
1,10982828462358E-5;
2,56482701109176E-5;
3,09560684794935E-5;
2,6740159457616E-5;
1,76766120194701E-5;
9,61782590211381E-6;
5,62526278153271E-6;
4,70687289307885E-6;
3,76837098301437E-6;
7,57441796105917E-7;
-3,6888102195276E-6;
-7,22891678673438E-6;
-8,25116155553477E-6;
-7,45257147308874E-6;
-7,17048227234353E-6;
-9,11716830891707E-6;
-1,25589559393584E-5;
-1,45806396925738E-5;
-1,2292582484539E-5;
-5,20772491124188E-6;
4,12161403688722E-6;
1,17061202482264E-5;
1,47051419050176E-5;
1,30560650372085E-5;
9,06598347539033E-6;
5,49721886285625E-6;
3,72527690279671E-6;
3,27326830027545E-6;
2,79245323712919E-6;
1,44663534516611E-6;
-4,70480322917129E-7;
-2,03189140948824E-6;
-2,65630965113216E-6;
-2,62992742451268E-6;
-2,76089321696718E-6;
-3,56928639232938E-6;
-4,78288924815062E-6;
-5,56581589388174E-6;
-5,22765256953545E-6;
-3,77013092637468E-6;
-1,83441567258978E-6;
-1,69958029433363E-7;
8,7057034703739E-7;
1,41081649203271E-6;
1,74297363211492E-6;
2,00304938313746E-6;
2,13470592627173E-6;
2,09836160800495E-6;
2,02563911762169E-6;
2,11066607175468E-6;
2,35575703164424E-6;
2,49038301086418E-6;
2,22432865597381E-6;
1,61892635237976E-6;
1,15776816677538E-6;
1,32679382888472E-6;
2,00847523022697E-6;
2,2857227032389E-6;
9,96713917289606E-7;
-2,27118438638083E-6;
-6,55119830991966E-6;
-9,86957778844188E-6;
-1,04895281739433E-5;
-8,13104360999288E-6;
-4,19119078654455E-6;
-7,33993689187046E-7;
9,85866142422722E-7;
1,29468517411519E-6;
1,56110776668392E-6;
2,83921770431111E-6;
4,88774801166446E-6;
6,43759901893525E-6;
6,47273847537534E-6;
5,34403576209014E-6;
4,60941497735995E-6;
5,59045752357213E-6;
7,84558180592447E-6;
9,00329087860206E-6;
6,36678254812125E-6;
-8,16305924878475E-7;
-1,0248327972857E-5;
-1,77042197972551E-5;
-1,97215369545833E-5;
-1,589122645296E-5;
-9,00259808677248E-6;
-2,93105651001408E-6;
8,31568043910649E-8;
6,67125413978911E-7;
1,20491024520475E-6;
3,45547341489076E-6;
6,97748396502396E-6;
9,68424240771421E-6;
9,96633134029739E-6;
8,41141163299548E-6;
7,45417451533179E-6;
9,09709390760475E-6;
1,26341752172348E-5;
1,45104546525379E-5;
1,07819162904631E-5;
4,20948765448109E-7;
-1,31951186252248E-5;
-2,40175302751043E-5;
-2,7187767567281E-5;
-2,21925267958721E-5;
-1,29446670565898E-5;
-4,77947329562716E-6;
-7,30388229316115E-7;
7,16008478591308E-8;
8,25756982175944E-7;
3,85586879945466E-6;
8,5598254636379E-6;
1,21966174427606E-5;
1,26828654765397E-5;
1,07954217468326E-5;
9,66765459481597E-6;
1,18435136638137E-5;
1,64062968438111E-5;
1,8861472953311E-5;
1,42767615510519E-5;
1,40728635246437E-6;
-1,55158192189228E-5;
-2,90044666555108E-5;
-3,31002127151181E-5;
-2,72078557089958E-5;
-1,61226810184315E-5;
-6,32452530476517E-6;
-1,46753350497234E-6;
-4,93513299275667E-7;
4,32606076926058E-7;
4,07402173490454E-6;
9,70303598637192E-6;
1,40704751008543E-5;
1,4725835485152E-5;
1,25925991773464E-5;
1,13436267658981E-5;
1,39397734122636E-5;
1,93016260829443E-5;
2,22128614747033E-5;
1,69840343096246E-5;
2,20475718945961E-6;
-1,72414161712291E-5;
-3,27696399160258E-5;
-3,75854174543951E-5;
-3,1031620411147E-5;
-1,85714167211056E-5;
-7,548684483799E-6;
-2,08485561369465E-6;
-9,7941688895377E-7;
7,91673264239335E-8;
4,18215725013349E-6;
1,0507537193273E-5;
1,54276762484121E-5;
1,6219719813608E-5;
1,39160581579318E-5;
1,25880005102183E-5;
1,55029960800455E-5;
2,14614347251773E-5;
2,4717956950798E-5;
1,90304348291233E-5;
2,86877180381738E-6;
-1,84090127902534E-5;
-3,54239461567533E-5;
-4,07785282093425E-5;
-3,37714086445244E-5;
-2,0344442951996E-5;
-8,45824901960045E-6;
-2,56632621930462E-6;
-1,36707507224496E-6;
-2,12754848165166E-7;
4,21800611370341E-6;
1,10364091764239E-5;
1,63504187639461E-5;
1,72481406880745E-5;
1,4837755985128E-5;
1,34651923743985E-5;
1,66076987118884E-5;
2,29827807649149E-5;
2,64850737373505E-5;
2,04989961437027E-5;
3,41490698598432E-6;
-1,90904736398751E-5;
-3,71088776054194E-5;
-4,28436833775978E-5;
-3,55648877744607E-5;
-2,15278167608563E-5;
-9,09390522782133E-6;
-2,93069661707342E-6;
-1,67144214439145E-6;
-4,54443265659173E-7;
4,1864412201486E-6;
1,13196252941021E-5;
1,68879817509775E-5;
1,78630706398257E-5;
1,54000697287941E-5;
1,4011903960619E-5;
1,73015307660325E-5;
2,39359794776792E-5;
2,75965946684326E-5;
2,1449846595014E-5;
3,84141817154861E-6;
-1,93682127830901E-5;
-3,79708413007968E-5;
-4,39472597400765E-5;
-3,65523824684351E-5;
-2,22122548483776E-5;
-9,50260535451616E-6;
-3,20309494336788E-6;
-1,91280712731491E-6;
-6,61502840099246E-7;
4,08818384854117E-6;
1,13825651664305E-5;
1,70849401643548E-5;
1,81127285510418E-5;
1,56433480846437E-5;
1,42642100635078E-5;
1,76317428046873E-5;
2,43903284745948E-5;
2,81339398449798E-5;
2,19444923799114E-5;
4,15292176059463E-6;
-1,93120844929081E-5;
-3,81387395617717E-5;
-4,42363430737685E-5;
-3,68564257850262E-5;
-2,24738789859475E-5;
-9,71950909744121E-6;
-3,39811688493908E-6;
-2,10100402068777E-6;
-8,39187499222057E-7;
3,93331397038736E-6;
1,12583278184276E-5;
1,6992322472966E-5;
1,80516245782111E-5;
1,56148777244506E-5;
1,42654646289531E-5;
1,76520109626696E-5;
2,44198483160255E-5;
2,81822630541874E-5;
2,20495832086516E-5;
4,36336187929083E-6;
-1,89771541806314E-5;
-3,77224708984898E-5;
-4,38380052631987E-5;
-3,65818732734737E-5;
-2,23751753471411E-5;
-9,76974315199197E-6;
-3,5223075152818E-6;
-2,23854132952697E-6;
-9,8613943926238E-7;
3,73694869213703E-6;
1,09828611477752E-5;
1,66622312330408E-5;
1,77347416768064E-5;
1,53626877501959E-5;
1,40597623653219E-5;
1,741557786747E-5;
2,40961316626978E-5;
2,78230685788562E-5;
2,18293521097996E-5;
4,48833994648522E-6;
0,00931502264097627;
0,0225929091713277;
0,0163298702301584;
0,00939727252195435;
0,0121474190424375;
0,00701649122014815;
0,00563123533196358;
0,00458038191498465;
0,000839398293508377;
0,00103590435380852;
-0,0011798516361931;
-0,00197581174015926;
-0,00278992611840788;
-0,00453875226763209;
-0,00487363933156044;
-0,00583893148051187;
-0,00591773469993539;
-0,00615535962366214;
-0,00697223628560444;
-0,00791616338644778;
-0,0093665484275126;
-0,0102784137572692;
-0,0105599294941452;
-0,0101431936914315;
-0,0092289853832664;
-0,00843975898319156;
-0,00783401924937013;
-0,00745984669339881;
-0,00704924185417948;
-0,00641540988003913;
-0,00566535445904991;
-0,0049430197808808;
-0,00443656011430831;
-0,00407641773237067;
-0,00365065022059962;
-0,00301021447026182;
-0,00220559823644252;
-0,00154666656808984;
-0,00134044451471245;
-0,00166071730224586;
-0,00224249234566483;
-0,00262098168642378;
-0,0024463871858517;
-0,00169038891367401;
-0,000645203572694703;
0,000307518826773848;
0,000960122094371169;
0,0013734827515489;
0,00176388166035425;
0,00228147106788484;
0,00288325066324662;
0,00339288506324438;
0,00368064477740277;
0,00379808147645728;
0,00393730589671796;
0,00424905031180711;
0,00467570362633139;
0,00495411062424845;
0,00480514434539785;
0,00416651725964607;
0,00328262536598471;
0,00256912463980683;
0,00234650834434218;
0,00263983707683029;
0,00318970637403002;
0,00365663296914628;
0,00385530921391958;
0,0038435781534735;
0,00381601563828151;
0,0039089327615916;
0,00408531601925499;
0,00418841711933548;
0,0041039353664557;
0,00387881459921428;
0,00368581031392843;
0,00366026865995918;
0,00375130930621402;
0,00372489205517462;
0,00333267839043991;
0,00251990300156815;
0,00150486594185549;
0,00065801706426585;
0,00026467446193787;
0,000346882427977376;
0,000673690934814541;
0,000943117464035838;
0,000990410488321127;
0,000866862628931264;
0,000744995885267139;
0,000745413030705282;
0,000834816710571774;
0,000873773328240375;
0,000760580228223991;
0,000536412594483977;
0,000353744788146789;
0,000331741895884915;
0,000424701756883011;
0,000425032591164537;
0,000112731356621488;
-0,000560983800575941;
-0,0107372003126635;
-0,0247189548839064;
-0,0187391717508404;
-0,0116499686893204;
-0,0140143820414948;
-0,00854374613054983;
-0,00701512589015886;
-0,00597127609932492;
-0,00223165020599717;
-0,0023150577969151;
9,73828154789246E-5;
0,00104651992272249;
0,00187752375048947;
0,00354376008306207;
0,00383423574317668;
0,00490071221519027;
0,00518436891634717;
0,00554208650325689;
0,0061947793941199;
0,0066457885829193;
0,00744819983942528;
0,00785182820870358;
0,00799127942343297;
0,00781499780248388;
0,00733873251827643;
0,00694375472496377;
0,00655687376509693;
0,0062662642449401;
0,00594015453875038;
0,00548661630444618;
0,00498549826730069;
0,00446969027397267;
0,00404637407622924;
0,00367809369826413;
0,00327284976516762;
0,0027750835372197;
0,00219869666704578;
0,00168959458727812;
0,00138142583443818;
0,00130957185046501;
0,00136015710701408;
0,00132447941867455;
0,00104922530292123;
0,000520159314979128;
-0,000130950616771904;
-0,00073134408330944;
-0,00118721554572343;
-0,00152451670075508;
-0,00184151388122117;
-0,00220623187873934;
-0,00259903398363977;
-0,00293933637962819;
-0,0031670761534652;
-0,00330587429473059;
-0,00344424530918397;
-0,00365225169747085;
-0,00390368589660607;
-0,00407633378825457;
-0,00403991367060396;
-0,00376479436166638;
-0,00336521718852939;
-0,00303676094392967;
-0,00293126347799891;
-0,00306172781410539;
-0,00330624759920631;
-0,00350413959185223;
-0,00356734356613162;
-0,0035236053292597;
-0,00346644643801924;
-0,00346192016825283;
-0,00349289425682574;
-0,00348421822369217;
-0,00338083840227512;
-0,00320572536225888;
-0,00304329039755795;
-0,00296018073928049;
-0,00293221163525989;
-0,00284506937654071;
-0,00257667319910446;
-0,0020997371085949;
-0,00152194677992536;
-0,00102711291843002;
-0,000757747141369573;
-0,000725823381360581;
-0,000816808406830087;
-0,000879868463262799;
-0,000832319556774974;
-0,000699959607508209;
-0,000570040944365401;
-0,000503985417284883;
-0,000485297985549793;
-0,000443237356688824;
-0,00032589023666094;
-0,000154237375822638;
-6,57070327181585E-6;
5,55157869575716E-5;
5,52454853455084E-5;
9,98667286422854E-5;
0,000303754774169448;
0,000692842942331586;
0,0011673460530548;
0,00155673077498586;
0,00172908798077678;
0,00167407513402049;
0,0014989800783614;
0,00134470514582051;
0,00128867911444276;
0,00130749752083362;
0,00132072423143588;
0,00127196238269953;
0,00117712576890253;
0,00110238353761972;
0,00109636375899108;
0,00114009411082469;
0,00116153148493278;
0,00110414459464142;
0,000989917611247773;
0,00091850003999263;
0,000995997356546973;
0,00124664027944526;
0,00157846835963876;
0,00183426009313457;
0,00189258528122791;
0,00174428501960711;
0,00148868152813613;
0,00125596489986482;
0,00111767384468019;
0,00105236187092817;
0,000986063218949729;
0,00086699153221319;
0,000709924076133829;
0,000575822759873171;
0,000509438430655492;
0,000493329023294051;
0,000461296401696514;
0,000361436002165454;
0,000213951534347162;
0,000110274227115473;
0,00014764808991952;
0,000348134100013545;
0,000627263682114415;
0,000840847021752132;
0,00087760044479149;
0,000729116158940197;
0,000486255809090276;
0,000268023290253864;
0,000139675476947886;
8,14144794163439E-5;
2,54731481108507E-5;
-7,56008437599649E-5;
-0,000208454071234095;
-0,000317605676104543;
-0,00036241931564362;
-0,000359008741401043;
-0,000367912357177734;
-0,000436587304703483;
-0,000546772133003995;
-0,000615377328789717;
-0,000554102426292184;
-0,000343123101857389;
-5,9503247497132E-5;
0,000165482033339599;
0,000230581349385706;
0,000128078471117494;
-5,96037679592394E-5;
-0,000224570341927108;
-0,00030777346291926;
-0,000327338314065919;
-0,000344847106037129;
-0,000403413176915998;
-0,00049103347845287;
-0,000557571748401532;
-0,000566366693320313;
-0,000532121632446082;
-0,000509690263611969;
-0,000542043877211103;
-0,000612727812439982;
-0,000646745203610548;
-0,000564458383503447;
-0,000348094827989983;
-6,72963613664021E-5;
0,00015947875289872;
0,000240946660572339;
0,000170187188505932;
2,14764363472514E-5;
-0,000108035265776902;
-0,000165232562642948;
-0,000166458134252377;
-0,00016710785024677;
-0,000205923652834152;
-0,000272092273022084;
-0,00032056251150925;
-0,000318417215364767;
-0,000278854965423156;
-0,000251070126816011;
-0,000273554560419549;
-0,000331504258386263;
-0,000357682660451061;
-0,000280757358810211;
-8,48347110866515E-5;
0,00016775366651078;
0,00037107340597448;
0,000443578071867959;
0,000379181492651992;
0,000244330747592171;
0,000125840574937505;
7,11542449778628E-5;
6,57157669225842E-5;
6,01613870234062E-5;
2,0015071393777E-5;
-4,50207684505088E-5;
-9,47651346277949E-5;
-9,98763181583458E-5;
-7,20718269970769E-5;
-5,50720068741733E-5;
-8,30426271238482E-5;
-0,000142759842025427;
-0,00017444206516129;
-0,000114728660338078;
5,04810053928008E-5;
0,000265880956538216;
0,000437550851170273;
0,000493266627602571;
0,000427715885631087;
0,000299817171823946;
0,000186463948635093;
0,000129651171687304;
0,000116513118872;
0,000103430434558584;
5,99745234321E-5;
-5,2466066309459E-6;
-5,67349158390007E-5;
-6,85915847222174E-5;
-5,11516062290896E-5;
-4,2949497445907E-5;
-7,40662655604939E-5;
-0,000132823563730404;
-0,00016657570403832;
-0,000119580977795167;
2,0527468927334E-5;
0,000205094522119397;
0,000351582381712929;
0,00039658019268581;
0,000335464294453679;
0,000219964484609177;
0,000117525026717306;
6,49429038167087E-5;
5,09245300287521E-5;
3,72611269681931E-5;
-2,67673968703516E-6;
-6,1350041624006E-5;
-0,000107721095175677;
-0,000119172896281871;
-0,000104757805364949;
-9,81357190504009E-5;
-0,000125556608545092;
-0,0001768269655485;
-0,000206055983611745;
-0,000164703428687902;
-4,20483349503092E-5;
0,00011951008385065;
0,000248140288352162;
0,000288709755407155;
0,00023722253794166;
0,000138628851228575;
5,14765745580713E-5;
7,67064683691206E-6;
-2,61033991010565E-6;
-1,24999317665088E-5;
-4,50682045864408E-5;
-9,37850947508569E-5;
-0,000131799192462438;
-0,000139569921905474;
-0,000124946130607936;
-0,000117020979208087;
-0,000138458052342609;
-0,000180453565760556;
-0,000203432783717261;
-0,000165582049158781;
-5,77083043161128E-5;
8,36443425034104E-5;
0,000196649966119189;
0,000233907157267086;
0,000192007291286023;
0,000109580337233713;
3,68867019224142E-5;
1,28238594006665E-6;
-5,67146559289533E-6;
-1,2372598359486E-5;
-3,85699094965813E-5;
-7,8664267539163E-5;
-0,000109688407009373;
-0,000114950690840233;
-0,000101169922855793;
-9,31868410968961E-5;
-0,000110326531766851;
-0,000145067334273658;
-0,000163685184980019;
-0,000130592694033958;
-3,79993698522449E-5;
0,00941642353277079;
0,022809555782314;
0,0165850104913625;
0,00961056663500861;
0,0122775969790969;
0,00707324799484632;
0,00565207376615841;
0,00459429084820293;
0,000846537229447109;
0,00101634111009356;
-0,00124037921288487;
-0,00206819159313675;
-0,00288801505586706;
-0,00462320917720141;
-0,00495043027083606;
-0,00593375783085946;
-0,00604865725309741;
-0,00630599982129759;
-0,00708978419402547;
-0,00793972468256414;
-0,00926694016420865;
-0,0100802084234136;
-0,0103289788558691;
-0,00994841406752199;
-0,00910579506192932;
-0,00837991643664057;
-0,00780547986745147;
-0,00743785144478667;
-0,00703367608536833;
-0,00642331554292466;
-0,00570892003231218;
-0,00501448060393084;
-0,00451362800710821;
-0,00414260559830651;
-0,00371102519632782;
-0,00308663359054891;
-0,00231340720750372;
-0,00167192815158838;
-0,00143827639080191;
-0,00167938647088975;
-0,00215718177144054;
-0,00245245302468533;
-0,00225036972460663;
-0,00152519716682664;
-0,000540805408941235;
0,000358066237704385;
0,000983865862418287;
0,00139131594646202;
0,00177591035001788;
0,00227334737797901;
0,00284472400221011;
0,00333050324165887;
0,00361316769459595;
0,00373938756767419;
0,00388317042459651;
0,0041811647837747;
0,00458122913602773;
0,00484474915203857;
0,00471850088133727;
0,00414591382815181;
0,00334886973470561;
0,0027049479716652;
0,00250546148037772;
0,00277332241038741;
0,00327274900535406;
0,00369498359176518;
0,00387143432277671;
0,00385482508658247;
0,00382247314845764;
0,00389870595516883;
0,00404991395071115;
0,00413326246692882;
0,00404455045433463;
0,00382667988142797;
0,00363745308767429;
0,00360060090681237;
0,00366976095456893;
0,00363110891227293;
0,00325761338492594;
0,00249919392090442;
0,00155564624763163;
0,000766174223496871;
0,000392182406340374;
0,000453963690105036;
0,000739895007422988;
0,000973097664730872;
0,00100245773217338;
0,000875089092418331;
0,00074945864542631;
0,000736427127613308;
0,000805471973027209;
0,000828457527260194;
0,000711866707916933;
0,000493594473826213;
0,000314015708881082;
0,000282915214130342;
0,000358247527938677;
0,000348724398346459;
5,14947146433169E-5;
-0,000578470253234061;
-0,010697137662507;
-0,0246326196552071;
-0,0186369980879538;
-0,0115637830209623;
-0,0139605581275535;
-0,00851862220362275;
-0,00700417619197748;
-0,00596330562260296;
-0,00222663361830095;
-0,00232069373586985;
7,56044345290922E-5;
0,00101205468377849;
0,00184029249231008;
0,00351108875967918;
0,00380391516984866;
0,00486316027459866;
0,00513288705269052;
0,0054827691795867;
0,00614714643996932;
0,00663227828300385;
0,00747961994419128;
0,00791943957312583;
0,00807144471232783;
0,00788300956726724;
0,00738187040945976;
0,00696480191899852;
0,00656699842928061;
0,00627406160914118;
0,00594562712175666;
0,00548384399450898;
0,00497026420365824;
0,00444462456270257;
0,00401903829418699;
0,00365406554802479;
0,00325045637324955;
0,00274706642085553;
0,00215999229587525;
0,00164480859073042;
0,00134527471801018;
0,00129894855557398;
0,00138321138795085;
0,00137472488022417;
0,00110905935352498;
0,000571195688267329;
-9,81846010122682E-5;
-0,000714835439606212;
-0,0011787632678319;
-0,00151782180141186;
-0,00183658898204164;
-0,00220741866731201;
-0,00260941860471882;
-0,00295701393755322;
-0,0031865660634353;
-0,00332314020361864;
-0,00346048435837624;
-0,00367266952252069;
-0,00393190122132086;
-0,00410905139905951;
-0,00406664937538664;
-0,00377354157696015;
-0,0033501700704335;
-0,00300242732345184;
-0,00288993968957548;
-0,00302624135996497;
-0,0032832131749468;
-0,00349221559648782;
-0,00356092957275956;
-0,00351841453975496;
-0,00346250325454504;
-0,00346218143954898;
-0,00349945411855;
-0,00349580574949527;
-0,00339379413058561;
-0,00321736195576286;
-0,00305438996070135;
-0,00297415541776947;
-0,00295141835407741;
-0,00286735784083194;
-0,00259525512706459;
-0,00210687279771759;
-0,00151388028258195;
-0,00100663431459815;
-0,000732535522992491;
-0,000703868288500794;
-0,000802236046921499;
-0,000871918005690251;
-0,000827648387279447;
-0,00069602786979149;
-0,000566883365687284;
-0,00050335747979005;
-0,000488433521745506;
-0,000449414971144036;
-0,00033302874134967;
-0,000160818875166678;
-1,30198851811314E-5;
4,73365519054193E-5;
4,40690969798288E-5;
8,68532280249765E-5;
0,000292498617509658;
0,000687396861498438;
0,00116969154337427;
0,00156555211170105;
0,00174067971458082;
0,0016846124670462;
0,00150648028130998;
0,00134943292361068;
0,00129203928804637;
0,00131053078498249;
0,0013233874225545;
0,00127353101757844;
0,00117710429330346;
0,0011010231408084;
0,00109439419906299;
0,001138031842046;
0,00115925661491099;
0,0011011189259189;
0,000985805013518253;
0,00091361497149722;
0,000991207802669668;
0,00124285158785099;
0,00157614460923993;
0,00183333565632564;
0,00189273295999978;
0,00174522187588642;
0,00149024943955748;
0,00125801141045245;
0,00111996281965852;
0,00105466481945274;
0,000988331108544448;
0,000869374197390806;
0,000712552221936973;
0,000578551387120341;
0,000511856078718532;
0,000495106537383612;
0,000462570930518545;
0,000362786189685687;
0,000215826425047558;
0,000112276648462514;
0,000148350769952574;
0,000345792723063695;
0,000621062478589761;
0,000831765073882344;
0,000868141954789564;
0,000721967787427869;
0,000482791094605869;
0,000267745093112983;
0,000140979214774747;
8,3013618069017E-5;
2,73152405309263E-5;
-7,26352565746192E-5;
-0,00020371066741659;
-0,000311557831091751;
-0,000356427136446806;
-0,000354104226915066;
-0,000363744974429272;
-0,000431651255741712;
-0,000539966600770477;
-0,000607688734296982;
-0,000548859180799408;
-0,00034426428619161;
-6,89071915766839E-5;
0,000149651978092292;
0,00021316193223189;
0,000114203799075937;
-6,72960633742007E-5;
-0,000226856625532253;
-0,000307379053112144;
-0,00032641595378491;
-0,000343450765834184;
-0,000400062619861962;
-0,00048464450823662;
-0,000548884835182396;
-0,00055751590657613;
-0,000524712385471579;
-0,000503198504078081;
-0,000534209103049602;
-0,000601918793506084;
-0,00063442688029433;
-0,000555503125860527;
-0,000348224151815707;
-7,9254066812857E-5;
0,000138217629096655;
0,000217099868565268;
0,000150863559738845;
1,03351784896815E-5;
-0,000111991169936417;
-0,000165625841621433;
-0,000166134838280736;
-0,000166122065821598;
-0,000202313987538731;
-0,000264429539395298;
-0,000309799296507495;
-0,000307304291448212;
-0,000269454660677482;
-0,000242720881461463;
-0,000263396578254327;
-0,00031748528973186;
-0,00034164667361442;
-0,000268799431697853;
-8,40878740383524E-5;
0,000153857641777368;
0,000345596182659736;
0,000414713199557875;
0,000355588172855936;
0,000230471873213366;
0,000120550599251225;
7,01128846567065E-5;
6,55383827832493E-5;
6,07949230972756E-5;
2,37958636670982E-5;
-3,63946124450019E-5;
-8,24092481577554E-5;
-8,70176080366044E-5;
-6,11253882661638E-5;
-4,52708777262818E-5;
-7,10664437175051E-5;
-0,000126232992085934;
-0,000155498756869403;
-0,000100400000308368;
5,19815192549289E-5;
0,000250592300680545;
0,000408936868653572;
0,000460636236198789;
0,000400901055839585;
0,00028389045094063;
0,000180137314861019;
0,00012808417791845;
0,000115919877584505;
0,000103759919742496;
6,38437170845269E-5;
4,06178523055284E-6;
-4,32225385746695E-5;
-5,44536620736617E-5;
-3,90636300646886E-5;
-3,20674338572711E-5;
-6,07319377799165E-5;
-0,000114424374694625;
-0,000145457530643178;
-0,000103457352547861;
2,26554868047351E-5;
0,000188877373092944;
0,000320767859787828;
0,000361274854717558;
0,000306339853250536;
0,000202531873731817;
0,000110414022383925;
6,29488880337136E-5;
4,99811435628972E-5;
3,73201927667785E-5;
1,19942165184903E-6;
-5,16153751283503E-5;
-9,34446111595991E-5;
-0,000104175163090833;
-9,18936019906183E-5;
-8,65087362874238E-5;
-0,000111278487301332;
-0,000157123890264821;
-0,000183416670840994;
-0,000147301618359944;
-3,94159473682139E-5;
0,000102758535614669;
0,000215933625608562;
0,00025167474971209;
0,000206579712461096;
0,000120177723870585;
4,37995161675504E-5;
5,33463628602237E-6;
-3,84701934596593E-6;
-1,26819869711137E-5;
-4,12557074516493E-5;
-8,3846602747846E-5;
-0,000117099837803655;
-0,00012407735287459;
-0,000111623935294454;
-0,000104942096335037;
-0,000123597395013945;
-0,00015994189824951;
-0,000179842022359846;
-0,000147353450821368;
-5,46819830141951E-5;
6,66963589476779E-5;
0,000163748896852181;
0,000195960296348369;
0,000160532453545089;
9,05359444413218E-5;
2,8837404531586E-5;
-1,31637842304641E-6;
-7,14630509510489E-6;
-1,27643320761827E-5;
-3,48757617350458E-5;
-6,87075670971284E-5;
-9,48544568656496E-5;
-9,92725579338352E-5;
-8,76594389478468E-5;
-8,09046668806597E-5;
-9,51910942369068E-5;
-0,000124170493675712;
-0,000139630967483022;
-0,000111924672440853;
-3,46748878793947E-5;
0,00939956731610127;
0,0227765571115325;
0,0165468525583418;
0,00957884967462397;
0,012258327357411;
0,00706499762724346;
0,00564928589327718;
0,00459263088363974;
0,000845968508010691;
0,00101987602475911;
-0,00123055697608661;
-0,00205346359290458;
-0,00287241050639394;
-0,0046097367545775;
-0,00493815399040249;
-0,00591860764401097;
-0,00602773402941938;
-0,0062818964881136;
-0,00707100683348235;
-0,00793618618829491;
-0,00928346435982631;
-0,0101128032069969;
-0,0103667574398431;
-0,00997987487357503;
-0,0091249774486521;
-0,00838822052406941;
-0,0078083913549731;
-0,00743964843872319;
-0,00703439095712489;
-0,00641997100897409;
-0,00569935753122253;
-0,00500005803310177;
-0,00449831280949774;
-0,00412936030774446;
-0,00369893021380948;
-0,00307168716988167;
-0,00229275924094522;
-0,00164812447252844;
-0,00141966905802124;
-0,00167570909765914;
-0,00217317916845741;
-0,00248423126818099;
-0,00228728116602524;
-0,00155598904879634;
-0,000559640658949673;
0,000349832279100968;
0,000980887146898118;
0,00138942394782583;
0,00177507702391182;
0,00227647793299056;
0,00285392528244826;
0,00334445730009026;
0,00362801642851062;
0,00375224990775266;
0,00389493892335832;
0,00419572633490044;
0,00460135200121611;
0,00486796400982835;
0,00473670506436416;
0,00414966340323438;
0,00333355292462467;
0,00267431856179023;
0,00246981203977229;
0,00274353475546739;
0,00325447317649729;
0,00368692234449882;
0,00386843657534878;
0,003852874720374;
0,00382154638546893;
0,00390160599002076;
0,00405867434804746;
0,00414661823766286;
0,00405879105215591;
0,00383903409750804;
0,00364877789960935;
0,00361463102584543;
0,00368915646480815;
0,00365350050230161;
0,00327522403848131;
0,00250295773453605;
0,00154112795105265;
0,000736954527342131;
0,000358106971722555;
0,00042544651591286;
0,000722348588822434;
0,00096529305193771;
0,000999482215210274;
0,000873112562447365;
0,000748461453078477;
0,00073908683156996;
0,000813731815761209;
0,000841115552858698;
0,000725389759811083;
0,000505343384969446;
0,000324805260802108;
0,000296298871196719;
0,000376756678910172;
0,000370107939323327;
6,83604423128907E-5;
-0,000574741607465892;
-0,0107107708523816;
-0,0246602319534615;
-0,0186692610628507;
-0,0115908248352395;
-0,01397724276783;
-0,00852610287964669;
-0,00700709443164204;
-0,00596528012616836;
-0,00222768010703249;
-0,00231827827909505;
8,33217484066432E-5;
0,00102394240807105;
0,00185301724598887;
0,00352216007793005;
0,00381410070969191;
0,00487581052751858;
0,00515038936001458;
0,00550300414490065;
0,00616315066610386;
0,00663593021685015;
0,00746693093606059;
0,00789357653290224;
0,00804116753884525;
0,00785759353077534;
0,00736614636540866;
0,00695769743668143;
0,00656416663382023;
0,00627211337553994;
0,00594455040948423;
0,00548601609029597;
0,00497741224691091;
0,00445569281163214;
0,00403090897309345;
0,00366440869220715;
0,00325998907504748;
0,0027589209319035;
0,00217640110812181;
0,00166379338839849;
0,00136033156699387;
0,00130248928519819;
0,00137150161211005;
0,00135070402983133;
0,00108088414878241;
0,000547507907079132;
-0,000112878928913027;
-0,000721525008414267;
-0,0011814849805618;
-0,00151972335510355;
-0,00183767901781153;
-0,00220548520350411;
-0,00260285358894723;
-0,00294679419135605;
-0,00317558364491326;
-0,00331355702165208;
-0,0034516360276287;
-0,00366165166909984;
-0,00391664304083371;
-0,00409138434109507;
-0,00405259886279932;
-0,00377014015652289;
-0,00336088619538759;
-0,00302455537896316;
-0,00291594633788942;
-0,00304814007289902;
-0,0032968345860543;
-0,00349846348422838;
-0,00356352259027658;
-0,00352025255944943;
-0,00346359182232644;
-0,00346047876646842;
-0,00349347484620382;
-0,00348644626522856;
-0,00338371559076648;
-0,00320855431646831;
-0,0030462425751556;
-0,00296399657959762;
-0,00293734235654592;
-0,00285104656891405;
-0,00258224644249821;
-0,00210363294859741;
-0,00152360573310598;
-0,00102685506094732;
-0,000756349440140597;
-0,00072395284420637;
-0,000814763641640777;
-0,000877707823080073;
-0,000830098563844791;
-0,000697788711554585;
-0,000567957644230488;
-0,000501875254083301;
-0,000483033403727707;
-0,000440912850674555;
-0,000323853893194869;
-0,000152788526418653;
-5,57720689771659E-6;
5,66299441769827E-5;
5,69533098708691E-5;
0,000101796018244428;
0,000304450233898422;
0,000690458185184784;
0,010494373405794;
0,0241769526585873;
0,0180917841704493;
0,0110994330932118;
0,0136644402264688;
0,00837027597043744;
0,00692455927859672;
0,00589156792131378;
0,00216283850074129;
0,00230719745269645;
-8,49996661678535E-6;
-0,000883269641363768;
-0,00170445815831316;
-0,00340838654209313;
-0,003721323370956;
-0,00474634681758112;
-0,004943710883069;
-0,00525529028182511;
-0,00599147231840152;
-0,00667498135914208;
-0,00778055148341735;
-0,00842603184766224;
-0,00864525958078883;
-0,00837979821418636;
-0,00772776530262041;
-0,00717714429607142;
-0,00671260874986137;
-0,00640438353934756;
-0,00606073668264943;
-0,00554822329222813;
-0,00495861059759318;
-0,0043730931476619;
-0,00393380674141745;
-0,00358914590169343;
-0,00319519161277189;
-0,0026561865253839;
-0,00200186321132707;
-0,00144830245092353;
-0,00120286777715065;
-0,00131678097487092;
-0,00161156552861727;
-0,00176998642019607;
-0,00155603960848844;
-0,000949986392610793;
-0,000151238386392084;
0,000580014695237396;
0,00110266870649541;
0,00145740744361462;
0,00179147456087338;
0,00220672638249488;
0,00267377286037571;
0,00307270988562388;
0,00331510075203786;
0,00343611553544473;
0,00356640751951244;
0,00380857855625222;
0,00412355791610382;
0,0043323988509984;
0,00424538453801665;
0,00382026044928392;
0,00322344400776927;
0,00273787865797789;
0,00258177816538069;
0,00277242854717402;
0,00313359589630222;
0,00343458575859952;
0,00354957951737326;
0,003518159132778;
0,0034729299715883;
0,00350686122672665;
0,00359502632542219;
0,0036310489384738;
0,00353742469824165;
0,00334633272148818;
0,00317552760918886;
0,00311731352091314;
0,00313731174390786;
0,00307654849004687;
0,00276632102334568;
0,00216959533549953;
0,00143507584116997;
0,000814949608868885;
0,000503479364994293;
0,000515829234320548;
0,000695062101783552;
0,000835918764944415;
0,000826482755922369;
0,000701786389656008;
0,000579311096837432;
0,000541207412247798;
0,00056492931004578;
0,000555728350090717;
0,000444515350793541;
0,000259378922814265;
0,000104100086641876;
5,97870686937245E-5;
9,53940669053243E-5;
6,97557730436174E-5;
-0,000166731501117965;
-0,000647206744563899;
-0,0105742397844262;
-0,0243552419984814;
-0,0183034060881434;
-0,0112768130681939;
-0,0137731569544513;
-0,00841848360709875;
-0,00694329526385572;
-0,00590463922900358;
-0,00217036027265101;
-0,00229302453973994;
5,57691345585997E-5;
0,000956185534101477;
0,00178206977579733;
0,00347532539698369;
0,00378227526358889;
0,00482136738943947;
0,00504669685767448;
0,00537339104085122;
0,00608402525693436;
0,00669561761444343;
0,00770745644232317;
0,00827811569163086;
0,00847211592497826;
0,00823278080768854;
0,00763298565878617;
0,00712847090454996;
0,00668667019122252;
0,00638330322197315;
0,00604445380680229;
0,00554883396580837;
0,00498461903401583;
0,00441892758810298;
0,00398387876735414;
0,00363205281448705;
0,00323438536676276;
0,0027064262250464;
0,00207331753216573;
0,00153149086198856;
0,0012680188269282;
0,00133008680130605;
0,00155720215061617;
0,00166170269325022;
0,00142969358371981;
0,000842563428178486;
8,14686811729445E-5;
-0,000616526558899908;
-0,0011225811586298;
-0,00147341259399421;
-0,00180362216275463;
-0,00220651792469604;
-0,0026552837266852;
-0,00303988792172206;
-0,00327884501234831;
-0,00340436571640017;
-0,00353681360158633;
-0,00377104624441293;
-0,00407120241618024;
-0,00427175566777973;
-0,00419668608747919;
-0,00380631390057172;
-0,00325482849547484;
-0,00280536185240989;
-0,00266151684456433;
-0,00284000036750206;
-0,00317672192345706;
-0,00345614503634987;
-0,00356036785004133;
-0,00352633987969687;
-0,00347853565596641;
-0,00350451967811714;
-0,00358104929474934;
-0,00360795783668354;
-0,00351202350006949;
-0,0033235335008381;
-0,00315392196857357;
-0,00309084350015595;
-0,00310192674790628;
-0,00303620877320751;
-0,00273296277251424;
-0,00215646482980409;
-0,00144818375921172;
-0,000848953177305462;
-0,000544916164602935;
-0,000551129241321268;
-0,000717510103755973;
-0,000847069432265636;
-0,000832053722510543;
-0,000706016119365483;
-0,000582201036898259;
-0,000540064767163714;
-0,000557976895825877;
-0,000544242973632528;
-0,000431759926600736;
-0,000247644823942715;
-9,27727453013474E-5;
-4,62617584972853E-5;
-7,80396142119791E-5;
-5,03077407710409E-5;
0,000183468060931355;
0,000656197287679347;
0,00123996929002313;
0,00171687566770022;
0,00191882352578981;
0,00183296026497674;
0,00159606208122243;
0,00138724587590238;
0,00130465968327349;
0,00131847528675029;
0,00132679968644491;
0,00125837910913635;
0,00113337823790619;
0,00103522074308968;
0,00102501678688181;
0,0010787393904072;
0,00110580998307471;
0,0010353469001292;
0,000894968321458386;
0,000809330168069828;
0,000910804294168646;
0,00122927549901777;
0,00164980292726783;
0,00197655370305077;
0,00205867405620075;
0,00188501286380828;
0,00157888258566438;
0,0013014889258233;
0,00114114913380241;
0,00107120066128965;
0,00100032778301314;
0,000864762100301013;
0,000682729750405286;
0,000529100973767153;
0,000458660654005505;
0,000449889504291735;
0,000421709245641001;
0,000310728161568093;
0,000141684323483351;
2,601125237165E-5;
8,19044071729297E-5;
0,000335887608103729;
0,000685148605303054;
0,000954778809231639;
0,00101015422246522;
0,000841336091817635;
0,000558225460825718;
0,000304364895745241;
0,000158245678486519;
9,593744253058E-5;
3,60093252484425E-5;
-7,83954287268039E-5;
-0,000231197951266513;
-0,000356013740718349;
-0,000404369499573958;
-0,000395581673909457;
-0,000401796037333968;
-0,000479395853532479;
-0,000606573290436583;
-0,000684717149338313;
-0,000609330656607264;
-0,000357191643549746;
-1,95637572750641E-5;
0,000248608597995902;
0,000328162945726448;
0,000210260220445722;
-8,05752744273376E-6;
-0,000200134613131769;
-0,000296848945485174;
-0,0003194933084035;
-0,00034003173519978;
-0,000408689233377948;
-0,000511383134884521;
-0,000589747497216869;
-0,000601237903560916;
-0,000562983210439026;
-0,000538537700027758;
-0,000577526056034115;
-0,000660825721503797;
-0,00070189406182908;
-0,000609113373933182;
-0,000362255753351418;
-4,1489764274189E-5;
0,000217300521263216;
0,000309725371735431;
0,000228101557246785;
5,74142768245302E-5;
-9,15331368109925E-5;
-0,000158342411865216;
-0,000161670793239508;
-0,000164398545044369;
-0,000210356596117573;
-0,000287222060350674;
-0,00034407110482911;
-0,000343824124412416;
-0,000301419591106453;
-0,000272192845138025;
-0,000299289394454749;
-0,000366010286987381;
-0,000397068112325012;
-0,000312853795362208;
-9,58438654979073E-5;
0,00018432972465865;
0,000409786123933798;
0,000490087264502159;
0,000418698914105796;
0,000269351419516153;
0,00013804045709673;
7,70502495970021E-5;
7,02576247053264E-5;
6,33484235250297E-5;
1,8525269290106E-5;
-5,34978566977603E-5;
-0,000108724836519578;
-0,000115152052981513;
-8,5637778695305E-5;
-6,7811375097384E-5;
-9,87499369166864E-5;
-0,000164008155132651;
-0,000198795487284197;
-0,000134695359367325;
4,33065944772926E-5;
0,000275409608142264;
0,000460506991331931;
0,000521141468337342;
0,000451825373923314;
0,000315789410223516;
0,000195232295282492;
0,000134875349610264;
0,000120933332679045;
0,000107029129276653;
6,0940960512701E-5;
-8,14263863339724E-6;
-6,26859911779701E-5;
-7,54234415509109E-5;
-5,7313217365964E-5;
-4,8873916773826E-5;
-8,15966928644777E-5;
-0,00014316265307956;
-0,000178536296610606;
-0,00012969064742101;
1,60402187490655E-5;
0,000207918557417185;
0,000360309049560372;
0,000407707518993244;
0,000345548257532872;
0,000227325400197079;
0,000122467713921493;
6,86881887161184E-5;
5,43281412557433E-5;
4,02958738077793E-5;
-5,25961963164669E-7;
-6,03868191796726E-5;
-0,000107729028085809;
-0,00011967337919255;
-0,000105453997460666;
-9,9075024918262E-5;
-0,00012691917148131;
-0,000178647587840332;
-0,000208207226570675;
-0,000167126638044705;
-4,49068472656795E-5;
0,000116018108579728;
0,000244186813996435;
0,00028503379242092;
0,000234817750447836;
0,00013809658945433;
5,25944606845637E-5;
9,60276755708413E-6;
-5,96681239583142E-7;
-1,04386654665188E-5;
-4,23813582686287E-5;
-8,99948978145786E-5;
-0,00012718604150394;
-0,000135081214100061;
-0,000121339569563567;
-0,000114020978705589;
-0,000134850073064245;
-0,000175293939916094;
-0,000197483085306223;
-0,000161643807247138;
-5,92401210602149E-5;
7,48623324794823E-5;
0,000182105357337928;
0,00021787519796194;
0,000179181300015756;
0,000102463443666934;
3,48198513522547E-5;
1,7207573283871E-6;
-4,77988229332494E-6;
-1,10675169999518E-5;
-3,53670861595751E-5;
-7,24387843682549E-5;
-0,000101132576294629;
-0,000106192610488639;
-9,3840397350062E-5;
-8,67452276474319E-5;
-0,000102409127034321;
-0,000133925266833904;
-0,000150813751111533;
-0,00012114916841698;
-3,81547991871128E-5;
7,01511166917077E-5;
0,000156867007222138;
0,000186364141929432;
0,00015633304232746;
9,58995455294527E-5;
4,25933992634655E-5;
1,66502668315708E-5;
1,17287755563958E-5;
6,89534646899586E-6;
-1,22612415250267E-5;
-4,15669257059765E-5;
-6,43099436359236E-5;
-6,84786092899439E-5;
-5,89964569191972E-5;
-5,36878217089793E-5;
-6,62620990438263E-5;
-9,12691692675021E-5;
-0,000104852460145908;
-8,21160511231426E-5;
-1,78526506486597E-5;
6,60581640717662E-5;
0,000133153415754121;
0,00015584458984405;
0,000132429525882308;
8,54932396599808E-5;
4,40143576611526E-5;
2,35541824698648E-5;
1,92060298945988E-5;
1,49027828231953E-5;
-3,65621773244031E-7;
-2,33774999514216E-5;
-4,13786187907884E-5;
-4,52479667591951E-5;
-3,87527899672372E-5;
-3,54050135088044E-5;
-4,55416270798825E-5;
-6,50116313656743E-5;
-7,58497920928572E-5;
-5,94078914044138E-5;
-1,18716495044319E-5;
5,03311206866885E-5;
0,00010000118066761;
0,000116679317878753;
9,91968000015613E-5;
6,43363416916162E-5;
3,34974485449232E-5;
1,81003631434081E-5;
1,45069802589103E-5;
1,09534891886673E-5;
-5,65911884638009E-7;
-1,76753479462289E-5;
-3,11203798264106E-5;
-3,43347381103182E-5;
-3,00662817685906E-5;
-2,8023934222404E-5;
-3,55737411714741E-5;
-4,97138306646161E-5;
-5,76730082336419E-5;
-4,63065917231458E-5;
-1,30260003028837E-5;
3,05386317318722E-5;
6,53345434199892E-5;
7,71668015314744E-5;
6,53313854859219E-5;
4,15117332653763E-5;
2,04523432828728E-5;
9,93949951001819E-6;
7,44715017309363E-6;
4,98220300180605E-6;
-2,83133258940089E-6;
-1,43605860074815E-5;
-2,34157494118019E-5;
-2,56657605493547E-5;
-2,29669819401306E-5;
-2,17051942276041E-5;
-2,66528442598985E-5;
-3,5813288432125E-5;
-4,09488850511168E-5;
-3,37144067729293E-5;
-1,2587699445966E-5;
1,49834401506045E-5;
3,70414130514091E-5;
4,48427872291094E-5;
3,80859897737388E-5;
2,40193255111976E-5;
1,16038278899963E-5;
5,47044065154895E-6;
4,05956098786483E-6;
2,64996650090766E-6;
-1,85446698438283E-6;
-8,46557231660468E-6;
-1,3648161102356E-5;
-1,50052539219219E-5;
-1,362042330842E-5;
-1,30048158572902E-5;
-1,56894391057817E-5;
-2,05467146147929E-5;
-2,32530578185518E-5;
-1,96030214692942E-5;
-8,99135009416581E-6;
4,74166398919891E-6;
1,57517208932945E-5;
1,99885296310448E-5;
1,74958677949886E-5;
1,17077365044045E-5;
6,615478568196E-6;
4,1414040596663E-6;
3,55683883343884E-6;
2,94783597899279E-6;
1,17251524578374E-6;
-1,33379488864558E-6;
-3,30875095272434E-6;
-4,00933669953665E-6;
-3,85685050441887E-6;
-3,9048301865531E-6;
-4,77006143581913E-6;
-6,06753574082061E-6;
-6,81267843067443E-6;
-6,32796712188176E-6;
-4,78691452330305E-6;
-2,95596894204321E-6;
-1,47672275496537E-6;
-4,09252318550421E-7;
5,82550213742815E-7;
1,69296094218623E-6;
2,69636577545867E-6;
3,21913752289034E-6;
3,23761906347597E-6;
3,2151813352403E-6;
3,66291081235382E-6;
4,54774788147006E-6;
5,21118638956806E-6;
5,00020535916399E-6;
4,05320279901896E-6;
3,38914175019688E-6;
4,00339284244675E-6;
5,65456638913954E-6;
6,51741395872569E-6;
4,3042545515436E-6;
-1,81077893630661E-6;
-1,00119548160682E-5;
-1,65760974772516E-5;
-1,82195936584045E-5;
-1,43629968144123E-5;
-7,52429418869447E-6;
-1,45534114900711E-6;
1,55259210524365E-6;
2,06490784125492E-6;
2,52764473546917E-6;
4,82842381876505E-6;
8,54295871765493E-6;
1,14140397582463E-5;
1,16284408303261E-5;
9,79003340617385E-6;
8,63769069645376E-6;
1,05025461595934E-5;
1,46229111772673E-5;
1,68471636031478E-5;
1,24362060014309E-5;
2,69251363263951E-8;
-1,64317921057288E-5;
-2,96166818644709E-5;
-3,3490128277573E-5;
-2,72739745825835E-5;
-1,57177926318604E-5;
-5,47052390723427E-6;
-3,96693218763833E-7;
5,52557342246293E-7;
1,44690050148853E-6;
5,29918932743107E-6;
1,13641700990811E-5;
1,60787538407508E-5;
1,6683760027346E-5;
1,41629946666337E-5;
1,26552782168351E-5;
1,55768747191959E-5;
2,17422109147902E-5;
2,51117234743426E-5;
1,89605767145499E-5;
1,49270909681846E-6;
-2,16164408808184E-5;
-4,01355968787214E-5;
-4,58065240213621E-5;
-3,76925535465664E-5;
-2,23401125118541E-5;
-8,72654757548669E-6;
-1,97845170308962E-6;
-6,58739835513795E-7;
6,02000718483065E-7;
5,71532929699876E-6;
1,36786022544121E-5;
1,98869967148472E-5;
2,08285508420214E-5;
1,7790047603861E-5;
1,60222935783766E-5;
1,98012834204061E-5;
2,76044847829139E-5;
3,18988474940412E-5;
2,43925107310948E-5;
2,95021286597668E-6;
0,00930804282794249;
0,0225816160140457;
0,0163175199484467;
0,00938745364407833;
0,0121420489782387;
0,00701505320348369;
0,00563175082992196;
0,00458125082574634;
0,000840586488359796;
0,00103857063696211;
-0,0011748261769054;
-0,0019689714255475;
-0,00278294699774555;
-0,00453292084607052;
-0,00486852647905641;
-0,00583266202286079;
-0,00590891814400951;
-0,00614518318032802;
-0,00696480555936576;
-0,00791639746680091;
-0,00937690501590423;
-0,0102968354230934;
-0,0105806660816506;
-0,0101600503098775;
-0,00923870652448736;
-0,00844316916034549;
-0,00783429817190445;
-0,00745952086240031;
-0,00704834975043452;
-0,00641215825665474;
-0,00565841006158188;
-0,00493321590515043;
-0,00442639844867323;
-0,0040677946671963;
-0,00364295221478433;
-0,0030007664734987;
-0,00219245033966881;
-0,00153151703704147;
-0,00132903558319149;
-0,00165984977866628;
-0,00225552684618323;
-0,00264511575348506;
-0,00247386758013809;
-0,00171292795385333;
-0,000658470625597695;
0,00030245600346648;
0,000959126156425523;
0,00137328938748368;
0,00176445012399322;
0,00228510079144384;
0,00289163545563325;
0,00340496302255322;
0,00369326001532039;
0,00380885475763243;
0,00394699646594771;
0,00426096475280899;
0,00469223298154005;
0,00497315414608471;
0,00481967238624768;
0,004168250117682;
0,00326749204040921;
0,00254050774686259;
0,00231372426043536;
0,00261280593319454;
0,00317359801422055;
0,00365019364733873;
0,00385366142555136;
0,00384288808086677;
0,00381624182484325;
0,00391276589408639;
0,00409472828784388;
0,00420217159716831;
0,00411837468162623;
0,00389118976116224;
0,00369699152862113;
0,00367404372523921;
0,00377040472570567;
0,00374690104399095;
0,00334959462155633;
0,00252232632933226;
0,0014881863238844;
0,000626050773787013;
0,000227909961301361;
0,00031646309073355;
0,000655415896764092;
0,000935597306573086;
0,000988220027072627;
0,000865747432426144;
0,000744914885307938;
0,000749346088413722;
0,000844941366967744;
0,000888724809485212;
0,000776334599081429;
0,000549950980960261;
0,000366017536338755;
0,000346885085316901;
0,000445683888541983;
0,00044922587191993;
0,000131426957818933;
-0,000557990180887324;
-0,0107549064442153;
-0,0247532396644371;
-0,0187787189146494;
-0,0116827719294434;
-0,0140341978884527;
-0,00855205573619145;
-0,00701773317679987;
-0,00597272544995917;
-0,00223198142316462;
-0,00231109151899064;
0,000107965329350309;
0,00106226735538057;
0,00189416384039789;
0,00355809160440291;
0,00384726225446207;
0,00491680177606082;
0,00520665028348813;
0,00556778526632876;
0,00621472398172747;
0,00664924710586022;
0,0167633533546497;
0,0304458523554748;
0,0243227299180905;
0,0172137812816004;
0,0194873122018546;
0,0139610757223313;
0,0121887745492842;
0,0108472672000305;
0,00678011899834889;
0,00652294545352412;
-0,0055275618796428;
-0,0201358042127816;
-0,0151163555137287;
-0,0102938901492068;
-0,0137703908100591;
-0,0100903263583667;
-0,00935427936831141;
-0,00904900179809785;
-0,00643193212700977;
-0,00763970860292645;
-0,00681677260179701;
-0,00696282413810739;
-0,00670427776444986;
-0,00506976295854989;
-0,00447264018528113;
-0,00331491547394834;
-0,00307957451122911;
-0,00280140818210028;
-0,00189670017860584;
-0,000700360940378393;
0,0010852407507454;
0,00236137934692775;
0,00291565434321948;
0,00272684338356752;
0,00211324851504225;
0,00176837029248242;
0,00172189325019113;
0,00183528737387061;
0,00166813848224428;
0,000992705345197719;
6,6136806178771E-5;
-0,000701727067028421;
-0,000927191377036264;
-0,000663366867086332;
-0,000288656661215684;
-0,00017023216745254;
-0,000378745853973627;
-0,000576969757680421;
-0,000341096682902242;
0,000485485998378171;
0,0016172373797843;
0,00249722664939561;
0,00270806098683609;
0,00225076562568195;
0,001519794807333;
0,000973440899201513;
0,000781536142289155;
0,000735099991035655;
0,00046466778164121;
-0,000211913294848202;
-0,00111527554515187;
-0,00183999784197;
-0,00208036737551815;
-0,0018737490314288;
-0,00155370880056832;
-0,00145725379789658;
-0,00163104548807484;
-0,00178531579240529;
-0,00153911239429593;
-0,000756338626151454;
0,000303106537820194;
0,0011459939608271;
0,00139605431754235;
0,00105496169315815;
0,000471572712404571;
5,21996837410755E-5;
-4,97216256459064E-5;
-1,83532696332923E-5;
-0,000178818479232391;
-0,000693476005399501;
-0,00140691523623506;
-0,00196472739889923;
-0,00210081947348109;
-0,00184937424683386;
-0,00150380558793732;
-0,00135858749259576;
-0,00145187497190215;
-0,0015268127425378;
-0,00124799466317332;
-0,000497354377192681;
0,000494112369115441;
0,00129049405364417;
0,00155952095733494;
0,00130211911557698;
0,0008251085852912;
0,00048671786835889;
0,000423979294369346;
0,000477902118031472;
0,000365059128250206;
-5,71410965890045E-5;
-0,000654942682439106;
-0,001121544482814;
-0,00122702199430868;
-0,0010021773112861;
-0,000701998068777859;
-0,000580679562331339;
-0,000668392614901027;
-0,000739077104746268;
-0,000500039624818275;
0,000150365222620441;
0,00100896883649364;
0,00169439501505822;
0,00191627532832832;
0,00167507602703965;
0,00123819980962186;
0,000918614837315833;
0,000837801495714048;
0,000860292818218934;
0,000741778105378061;
0,000358382050008133;
-0,000176122115364027;
-0,000599154718805143;
-0,000714335808641018;
-0,000549154454771282;
-0,000322719161375176;
-0,000251827573438529;
-0,000359538392045845;
-0,000448855251960941;
-0,000267095511052468;
0,000272140787487023;
0,000991873963796483;
0,00156183562956599;
0,00173085745197577;
0,00149892862162336;
0,00109649952406562;
0,000794035566630664;
0,000698152653923744;
0,000694942399764001;
0,000576273625653923;
0,00023562591929172;
-0,000231707896491376;
-0,000604071878479988;
-0,000716114953903543;
-0,000592265050598407;
-0,000418539317208087;
-0,000377407924957946;
-0,000485755044285763;
-0,000573871367018126;
-0,000426325667307725;
2,91695540887293E-5;
0,00064001582772685;
0,00112340014798811;
0,00126449572890986;
0,00106278834723564;
0,000714363392691736;
0,000450103463515997;
0,000362554448871713;
0,000357422437166661;
0,00025979622744496;
-2,08493920782068E-5;
-0,000406139664083857;
-0,000711947748790646;
-0,000801350394437084;
-0,000695918086166088;
-0,000551331436301735;
-0,00051873615344424;
-0,00060964801715199;
-0,000679692367431454;
-0,000547769108920472;
-0,000154477541586226;
0,000370175240988115;
0,000787167815907641;
0,000915180001464591;
0,000753264542883241;
0,000465889169879942;
0,00024745300494204;
0,000177381450388213;
0,0001791646065406;
0,00010823442969745;
-0,000111227625285584;
-0,000416132946052862;
-0,000656422955313623;
-0,000720940558246868;
-0,000628539858048384;
-0,000507240207379051;
-0,000479761213258318;
-0,00055293627184775;
-0,000605661675666117;
-0,000488168795937894;
-0,00015267658054257;
0,000291626714687224;
0,000645862276722862;
0,000759408965710006;
0,000630999326452307;
0,000396283979980636;
0,000216339198247478;
0,000158488629403783;
0,000162247963014972;
0,000110574209923786;
-5,890916068275E-5;
-0,000296789063746558;
-0,000483666095262004;
-0,000531533404068543;
-0,000456674008686081;
-0,000362075451178091;
-0,000344860065444955;
-0,000407814504062231;
-0,000451038828472997;
-0,000353132289174195;
-7,67082670721596E-5;
0,00028807375913829;
0,000578836900933343;
0,00067285901016911;
0,000568644401875294;
0,000375778088017254;
0,000225128544433318;
0,000172930390928663;
0,000173004813431616;
0,000133060076435521;
2,89158105825792E-6;
-0,000180235201401506;
-0,000324302701596947;
-0,000361951189287493;
-0,000307073705539056;
-0,000240211230374251;
-0,000235648623784997;
-0,000292737981724757;
-0,000330768364964625;
-0,000253839283630384;
-3,3806662970646E-5;
0,000256401659345775;
0,000487313244563895;
0,000561337190307251;
0,000476810331622417;
0,000319912522405122;
0,000194328395678393;
0,000146190797391425;
0,000141959353470051;
0,000111394674737052;
1,52071298204719E-5;
-0,000120047814926252;
-0,000226612005949083;
-0,000255395867989021;
-0,000218104982627328;
-0,000175337525817644;
-0,000181194865889605;
-0,000232169037376746;
-0,000264786018854094;
-0,000205888282325083;
-3,54879556013465E-5;
0,000188954859073445;
0,000367376516808733;
0,00042463065434918;
0,00035893475654162;
0,000235624258637034;
0,000134119482589141;
9,14191636912906E-5;
8,50390072328999E-5;
6,42109600315033E-5;
-6,51333074479189E-7;
-9,23450499768731E-5;
-0,000164407607382913;
-0,000183766271107844;
-0,000160140496704713;
-0,000136569142177913;
-0,000149481712033238;
-0,000193029846522439;
-0,000219090372430612;
-0,000174609188941295;
-4,67247383139286E-5;
0,000120873618222853;
0,000254183990871738;
0,000297936596972853;
0,00025027788682508;
0,000158150085245138;
7,95096808226866E-5;
4,31687020402737E-5;
3,62198313115418E-5;
2,49300718701162E-5;
-1,17319402607005E-5;
-6,46380985426318E-5;
-0,000105826258502429;
-0,000116116871264521;
-0,000103434829155771;
-9,55028861686605E-5;
-0,00011343045350825;
-0,000149491319509842;
-0,000169106425098791;
-0,000136819496471139;
-4,59251960582364E-5;
7,2043156493622E-5;
0,000165972236740042;
0,000198037767777886;
0,000166362713261942;
0,000101819601621402;
4,35606283886265E-5;
1,31267639137393E-5;
5,81491244783109E-6;
2,64529379571135E-6;
-9,93947573050733E-6;
-2,96957256473241E-5;
-4,4551086223363E-5;
-4,72377495950795E-5;
-4,4069820118615E-5;
-4,95507418259156E-5;
-7,16575578336504E-5;
-0,000101198247610912;
-0,000115427731399576;
-9,41343823500774E-5;
-3,58671459438192E-5;
3,84700491615434E-5;
9,7666228660083E-5;
0,000119056618417341;
0,000100782170655163;
5,98240864655391E-5;
1,90288826754827E-5;
-6,4620242602371E-6;
-1,44156838079867E-5;
-1,11825734972996E-5;
-3,85948861214412E-6;
4,00825268348634E-6;
1,10176939804057E-5;
1,43548742303298E-5;
9,13824359986739E-6;
-7,8638278811241E-6;
-3,35183424125488E-5;
-5,7534758869083E-5;
-6,74006925017741E-5;
-5,59605700935676E-5;
-2,61885175670389E-5;
1,02074419004923E-5;
3,91295506430862E-5;
5,09384278142737E-5;
4,38263341606863E-5;
2,29062663530964E-5;
-2,95509126836029E-6;
-2,41955731673728E-5;
-3,28099668708248E-5;
-2,44818576773509E-5;
-7,90914768128512E-7;
2,9927634557755E-5;
5,50099098084086E-5;
6,32362513064926E-5;
5,09861948673111E-5;
2,45051936550868E-5;
-3,81867655150938E-6;
-2,29210900098073E-5;
-2,90354165848065E-5;
-2,60427955959727E-5;
-2,05860216650695E-5;
-1,65115726298965E-5;
-1,33874037989065E-5;
-9,80324297707812E-6;
-7,4891406568957E-6;
-1,13358364525292E-5;
-2,43081300630664E-5;
-4,16566391947173E-5;
-5,06624940264129E-5;
-3,8140262614376E-5;
-1,02284773838057E-6;
4,84695661107598E-5;
8,84282146731767E-5;
0,000100751966937845;
8,29194020519896E-5;
4,90134122093686E-5;
1,899029422727E-5;
4,40488756458081E-6;
1,64900359234273E-6;
-2,34545336417601E-6;
-1,72037916085981E-5;
-4,0141709425533E-5;
-5,85700457970857E-5;
-6,18424365336494E-5;
-5,15900613599977E-5;
-4,10017010749023E-5;
-4,2903864458263E-5;
-5,66484865084419E-5;
-6,57571967272346E-5;
-4,98087156779262E-5;
-1,88483448212225E-6;
0,00939615729205443;
0,0227444134193792;
0,0165031269012156;
0,00954136422781133;
0,0122381456860903;
0,00706401797381795;
0,00566217690696231;
0,00461026297214685;
0,000858356801774413;
0,0010186736726115;
-0,00124932341958281;
-0,00208700688982272;
-0,00291113540946902;
-0,00464091356939236;
-0,00495201907043327;
-0,00591318082062565;
-0,00600900551570116;
-0,00625932162979454;
-0,00705180638635223;
-0,00792263329295493;
-0,00927445760825521;
-0,0101071604025314;
-0,0103644153168868;
-0,00997978997823483;
-0,00912253660759367;
-0,00837633777068722;
-0,00778336741798218;
-0,00740772993391035;
-0,00701263185635024;
-0,00642837328682465;
-0,0057482921221778;
-0,00508186616886914;
-0,00459007487889951;
-0,00420583730367693;
-0,00374672849375169;
-0,00309440789930744;
-0,00230376106208786;
-0,00165725967267381;
-0,00142498855870026;
-0,00166669085968051;
-0,00214209532797896;
-0,00243520993374173;
-0,00223460216661459;
-0,00151271341911196;
-0,000526668358599919;
0,000383783456297125;
0,00102698454744683;
0,001443890723265;
0,00181515340197015;
0,00227265542156245;
0,00279058560588557;
0,00323318786200938;
0,00350253034205812;
0,00364787543898;
0,00382790538266698;
0,0041578052978427;
0,00457320147264248;
0,00483953391101747;
0,00471758959801029;
0,00416094911774641;
0,00338841574122506;
0,00276425862344481;
0,00256875808635726;
0,00282680938406232;
0,00331657235960756;
0,00374247766105586;
0,00393471015193228;
0,00392821945672083;
0,00387876096162464;
0,00390365087559645;
0,00398576070350194;
0,00401345254282619;
0,00390763999856806;
0,00371317630709987;
0,00356660337241775;
0,00356417887589621;
0,0036463748690402;
0,0036083370040424;
0,00324355509804742;
0,00251443644091012;
0,00161333327003397;
0,000857882182220509;
0,000492217585958321;
0,000538712301440241;
0,000805502513525526;
0,00103557043450181;
0,00107901216427815;
0,000962070597616236;
0,000816334135021837;
0,000743071796753117;
0,000730835665080772;
0,000688443882111935;
0,000551765257847665;
0,000360089061940157;
0,000227873529341818;
0,000232796186238291;
0,000319051370713491;
0,000308303627604207;
2,33779285742971E-5;
-0,000566486382396705;
-0,0106282426276934;
-0,0245181717334751;
-0,0185106040786189;
-0,0114569270682798;
-0,0138803861067328;
-0,00844712097840223;
-0,0069201008313207;
-0,00586857198822273;
-0,00215410159857462;
-0,00231484296261307;
-8,74093108102307E-6;
0,000855237054646763;
0,00166126848955929;
0,0033610395399489;
0,00370458668353603;
0,00480077568652272;
0,00507960709368048;
0,00542685202909104;
0,00610647223864854;
0,00664028420614296;
0,00755595408619661;
0,00805046137521521;
0,00821741330742781;
0,00800630418638456;
0,00747268498783891;
0,0070425606507996;
0,00665600561444379;
0,00637387998151902;
0,00602191663008372;
0,00548910942530642;
0,00487924966761101;
0,00427630411088202;
0,00382710514465502;
0,00349272133336607;
0,00314195237896941;
0,00267578560259468;
0,00209620272943916;
0,00157727394354646;
0,0012952577978965;
0,00130412845329706;
0,00146533527324524;
0,00151844622799568;
0,00127007901337751;
0,000707294914712285;
1,09390775744882E-6;
-0,000632061977526892;
-0,00108598699582321;
-0,00141424046730101;
-0,00175729204011605;
-0,00220175088340254;
-0,0027037439338074;
-0,00313160128710205;
-0,00338563911291281;
-0,00349075499019821;
-0,00357428615103176;
-0,00374958767453149;
-0,00400282219237879;
-0,00418462719772247;
-0,00412309184137249;
-0,00377015927207952;
-0,00326376285797613;
-0,00284953798598791;
-0,00271803765670325;
-0,00288078542776295;
-0,00317769011812724;
-0,00340586244877331;
-0,00346577967789167;
-0,00341264070734427;
-0,00338131808303805;
-0,00345577234218529;
-0,00359474294408652;
-0,00367272389276469;
-0,00359563377910787;
-0,0033875287523566;
-0,00317076085221713;
-0,00305450848257561;
-0,00302715721017656;
-0,00294848981250693;
-0,00265621827924936;
-0,00210503396778327;
-0,00142514636457582;
-0,000848298572501131;
-0,00055402791649333;
-0,000552701810831966;
-0,000693033631996321;
-0,000783845502348636;
-0,000731923005164175;
-0,000589990235589051;
-0,000485341417040475;
-0,000496484165994168;
-0,000583237767280496;
-0,000625844726898545;
-0,000534420721603959;
-0,000330850969488913;
-0,000130077527420085;
-3,49728622487763E-5;
-3,48715359207409E-5;
1,96025325926888E-6;
0,000228334295153992;
0,000687611440525566;
0,00125878873189987;
0,00172587146196938;
0,00192187129475594;
0,00183813133206075;
0,00161696076496137;
0,0014374643825072;
0,00138667050814611;
0,00141507944196263;
0,00140388587921317;
0,00128053806679534;
0,0010839195508025;
0,000927386093846516;
0,000896106909086531;
0,000970374882579218;
0,00104311046046897;
0,00101814974330994;
0,000905109223912003;
0,000826581477017857;
0,000925071249862353;
0,00124148910819435;
0,00166405905217387;
0,00199282385891332;
0,00207340805113378;
0,00189837672450103;
0,00160011509310755;
0,00134467081500312;
0,00121226556348779;
0,0011564309348861;
0,0010667851383012;
0,000876396303906074;
0,000622077364093683;
0,000409763270395606;
0,000319024014602034;
0,000331839851183227;
0,00034883667128896;
0,00028042847605101;
0,000134787941881281;
2,46653017369132E-5;
8,14727513705437E-5;
0,000343086200716204;
0,000706683719966257;
0,000988239223769173;
0,00104578410900742;
0,000872638716880028;
0,000590608505020271;
0,000352073809889058;
0,00023008291232444;
0,000181076656497425;
0,0001030316802392;
-6,55889873140553E-5;
-0,00029049915372803;
-0,000473747980566506;
-0,00054182199524062;
-0,000511268796485299;
-0,000473762934731065;
-0,000512264443653668;
-0,000620088410703535;
-0,00069449515878579;
-0,00061537723554975;
-0,000348046254319349;
1,35715442246022E-5;
0,000301367830943122;
0,000385740099234903;
0,000260676125666854;
3,73196469318294E-5;
-0,000145617190654817;
-0,000222153067768561;
-0,000232775285618523;
-0,000271020481145564;
-0,000392997638031368;
-0,000566998943530279;
-0,000703127395110301;
-0,000733943048766756;
-0,000674452916536888;
-0,000608486677431157;
-0,000612181152728313;
-0,000680111473875629;
-0,000719312690001157;
-0,00062077625034984;
-0,000352874929283891;
-6,19569013650842E-7;
0,000283744703812382;
0,00038294480725909;
0,000291717538875687;
0,000110782534069692;
-3,44805398427048E-5;
-8,48402371987407E-5;
-7,75065667604694E-5;
-9,74422943421938E-5;
-0,000195287876579423;
-0,000341839988002852;
-0,000455129378605819;
-0,00047365971520047;
-0,0004108168962793;
-0,000342541892041236;
-0,000338055602977766;
-0,000392967584424884;
-0,000423741926097789;
-0,000332139018814667;
-8,94545167230695E-5;
0,000228084402376322;
0,000483795122752207;
0,0005724935076413;
0,00048968518026988;
0,000325970956157406;
0,000193820694228659;
0,000146021835062009;
0,000148704247732154;
0,000125362226644788;
3,07096207569189E-5;
-0,000108529139584952;
-0,000218168335784111;
-0,000242539600615205;
-0,000193445037631585;
-0,000139096791024926;
-0,000141905431778261;
-0,000198395058144373;
-0,000234118063707756;
-0,000161257847190302;
4,6038788768526E-5;
0,000320005630195981;
0,000538962291418394;
0,000609356122373218;
0,000527387440534719;
0,000373861626139645;
0,000248801609218154;
0,000198823724530364;
0,000193327674876535;
0,000163973516746955;
7,05881828110641E-5;
-6,25909710724376E-5;
-0,000168991560098721;
-0,000198652766535012;
-0,000161904746252903;
-0,000119530588887566;
-0,000127367842246862;
-0,000182788614565157;
-0,000220061181263035;
-0,000161393326930684;
1,627947414146E-5;
0,000253224335362974;
0,000442046240979702;
0,000500246195064699;
0,000424623979559332;
0,000286581459139112;
0,000174243855350382;
0,000128358199604284;
0,000121475099160859;
9,30486761277512E-5;
7,73649558591991E-6;
-0,00011268600910685;
-0,00020900910979313;
-0,000236796145800341;
-0,00020501798968061;
-0,000167382252620612;
-0,000173439814119119;
-0,000221333420301517;
-0,000253598616540968;
-0,000201977081490621;
-4,60872964427946E-5;
0,000161911819312057;
0,000328120909367937;
0,000380470096580058;
0,000316290633184587;
0,000198065846516639;
0,000102676035896072;
6,53575292926692E-5;
6,1688339252345E-5;
3,85152978982029E-5;
-3,49564849218552E-5;
-0,00013933338487311;
-0,000222428787963877;
-0,000245073955175411;
-0,000214971733305388;
-0,000179129641324466;
-0,000181119376481095;
-0,000219755437356374;
-0,000245323300138772;
-0,000198528829250866;
-6,15258211553046E-5;
0,000120626861744458;
0,000266689601390924;
0,00031436845329649;
0,000261481541183577;
0,000162147532995061;
8,27283411583884E-5;
5,33456346979624E-5;
5,24729858757274E-5;
3,39218464727418E-5;
-2,88435891446502E-5;
-0,000118696622846754;
-0,000190075837979818;
-0,000208778887001755;
-0,000181325454084616;
-0,000148424832508549;
-0,000148004647431262;
-0,000179450677542568;
-0,000200246374136598;
-0,00015944980847956;
-4,15854733607335E-5;
0,000114892201654669;
0,000240524128382153;
0,000282107647913866;
0,000237906400504154;
0,000154261001043927;
8,77759849444399E-5;
6,38634806943155E-5;
6,37393582431045E-5;
4,77193028590641E-5;
-6,7780693898478E-6;
-8,47661636425374E-5;
-0,000146882794995839;
-0,000163571519363211;
-0,000140261236047229;
-0,000111794885769319;
-0,000110822568275593;
-0,000137213594232242;
-0,000155088442010053;
-0,000121230176650107;
-2,2368228404875E-5;
0,000109130675723865;
0,000214675725545547;
0,000249445498854997;
0,000212102737779297;
0,000141807852655216;
8,61799264062056E-5;
6,63221770621266E-5;
6,60181977729518E-5;
5,16021400516209E-5;
4,12881518846854E-6;
-6,34241293809923E-5;
-0,000117453627449118;
-0,000132719966402492;
-0,000113660604226891;
-8,97043431560562E-5;
-8,86123237432844E-5;
-0,000110662088792576;
-0,000126050752651804;
-9,86549583188013E-5;
-1,72437622551533E-5;
9,137828039873E-5;
0,000178563580729832;
0,000207152860362149;
0,000176160243421629;
0,000118167161957173;
7,2580120450425E-5;
5,65877776213076E-5;
5,63551041760522E-5;
4,3738439649677E-5;
3,10765537293043E-6;
-5,44316263494025E-5;
-0,000100585673249339;
-0,000114095466236969;
-9,85062800823653E-5;
-7,82909939467364E-5;
-7,6718655705118E-5;
-9,44066911050684E-5;
-0,0001070724472725;
-8,50556961171621E-5;
-1,89979147442709E-5;
6,93378091620335E-5;
0,000140329173244655;
0,000163767076295244;
0,000138973108785812;
9,25492201308575E-5;
5,64559176796918E-5;
4,43547492109344E-5;
4,4602471102508E-5;
3,40834407851932E-5;
1,67240309058975E-7;
-4,77693507139246E-5;
-8,62872733363678E-5;
-9,77681072792174E-5;
-8,4959700620958E-5;
-6,7832808542178E-5;
-6,55598613168825E-5;
-7,90342422508156E-5;
-8,89462414240835E-5;
-7,14760801130918E-5;
-1,8969297991646E-5;
5,13451318496025E-5;
0,000107973043557622;
0,000126961116001857;
0,000107899399168394;
7,20007086480017E-5;
4,45306725605797E-5;
3,60005426960142E-5;
3,67698910693006E-5;
2,82662811621062E-5;
5,53314712043921E-7;
-3,85746108747998E-5;
-7,00809129712836E-5;
-7,9649276923944E-5;
-6,93199201856903E-5;
-5,50053371282301E-5;
-5,21704161366505E-5;
-6,19257512750175E-5;
-6,94034722039644E-5;
-5,60177701321588E-5;
-1,56520650744531E-5;
0,00937194316925916;
0,0227119618525083;
0,01646988565612;
0,00951617739022739;
0,0122258189746079;
0,00706265052705349;
0,0056657886561344;
0,00461477775457262;
0,000865771384596039;
0,00103543784989997;
-0,00121869140652409;
-0,00204549707381726;
-0,00286862370917913;
-0,00460717845043107;
-0,00492918506664575;
-0,0058946129475759;
-0,00598654640330838;
-0,00623326432757461;
-0,00703469463690026;
-0,00793231898488227;
-0,00932076528346272;
-0,0101825972338796;
-0,0104470340511553;
-0,0100468559109667;
-0,00916463785645256;
-0,00840073074432931;
-0,0078038735505223;
-0,00742965272517881;
-0,00702559491274827;
-0,00641361644991991;
-0,00569476432584629;
-0,00499759942360659;
-0,00449873147164571;
-0,00413056914086492;
-0,00369446297427768;
-0,00305389814475475;
-0,00225950966509852;
-0,00160782155918803;
-0,00138971451302002;
-0,00167394286486122;
-0,00220737359021708;
-0,00254671823514881;
-0,00235857667496145;
-0,00161511451179318;
-0,000594352964746091;
0,000339191685938893;
0,000985307029214401;
0,00139887813021451;
0,00178405464778991;
0,00228427909870734;
0,00286131138779318;
0,00335089779376269;
0,00363237456724033;
0,00375584309210682;
0,0039031439578001;
0,00421525493068813;
0,0046342785110695;
0,00490711771905401;
0,00476690758484815;
0,00415524074870605;
0,00330763760622876;
0,00262362320808705;
0,00241142433192506;
0,00269578891883131;
0,00322794802731191;
0,00368114411603682;
0,00387546130458435;
0,00386410492902325;
0,0038325366820595;
0,00391213051277405;
0,00406956285997753;
0,00415722833963488;
0,00406768526544624;
0,00384687956856386;
0,00365997529875432;
0,00363502733489635;
0,00372075688703278;
0,00369028824610394;
0,00330411658984063;
0,00251033600585264;
0,0015209962331464;
0,000695143678079206;
0,000309467075695989;
0,000385848919766654;
0,000700841978476686;
0,000961315655133904;
0,00100611393416489;
0,000883091412116616;
0,000758313166947801;
0,000749000387512283;
0,000824596710220808;
0,000852219086337622;
0,000735076845984774;
0,000513739774756369;
0,000335442763996625;
0,000314227434002411;
0,00040390557020613;
0,000401523764995369;
9,29140917722099E-5;
-0,000568743158968512;
-0,0107284986451973;
-0,0246966699715847;
-0,018711639858886;
-0,0116255574002122;
-0,013996685731483;
-0,00853087775393597;
-0,00700315904728203;
-0,00595866901902156;
-0,00222100035711377;
-0,00231099273438456;
9,21429594993962E-5;
0,0010335407068279;
0,00186158124133519;
0,00352936162981649;
0,00382269368171189;
0,00489010460277406;
0,00517222196263314;
0,00552838297740993;
0,00618274164983862;
0,00663982016468928;
0,00745071191501418;
0,00786150759126924;
0,00800408923273518;
0,00782698148005266;
0,00734835412876406;
0,00695205931988739;
0,00656561304482358;
0,00627572094402201;
0,0059484720621656;
0,00549106912064393;
0,00498454335415207;
0,00446411232524254;
0,0040386969029433;
0,00367085739249085;
0,00326715680978831;
0,00277043074655998;
0,00219398240496062;
0,00168431170627153;
0,00137608610863358;
0,00130519585685392;
0,00135745059263067;
0,00132345505299432;
0,00104950226235627;
0,000521531371133736;
-0,000128272030538344;
-0,000727031572109516;
-0,00118136149267329;
-0,00151789537816957;
-0,00183533393475358;
-0,00220158588215863;
-0,00259645548699903;
-0,00293870401272201;
-0,00316778698921509;
-0,00330707157346537;
-0,00344501823060732;
-0,00365190823318368;
-0,0039021623481624;
-0,004074539468648;
-0,00403961374947231;
-0,00376781703025656;
-0,00337229774097818;
-0,00304678004070535;
-0,00294153745935635;
-0,00306932005104491;
-0,00330948512720185;
-0,00350329838538839;
-0,00356405685835803;
-0,00351952020070951;
-0,00346221095045664;
-0,00345724298915348;
-0,00348745458991034;
-0,00347845023722135;
-0,00337575509093464;
-0,00320189151207911;
-0,00303996916315944;
-0,00295568955319561;
-0,00292551170425715;
-0,00283739315531398;
-0,00257166711033088;
-0,00210158996095905;
-0,00153259298268877;
-0,00104452617505819;
-0,000776719071494905;
-0,000740828709716538;
-0,000824973293029333;
-0,000881968099570322;
-0,000831252131747948;
-0,00069807840074961;
-0,000567514870990664;
-0,000499367916933624;
-0,000477556288815194;
-0,000433263063182525;
-0,000316033762166081;
-0,000146245490218838;
1,36707046601158E-7;
6,34260358357301E-5;
6,61989753291252E-5;
0,000112378570628571;
0,000312655650150585;
0,000692026148832176;
0,00115389790626924;
0,0015334042143751;
0,00170312771861602;
0,00165309365488536;
0,00148681644118662;
0,00134017926131365;
0,00128787702045475;
0,00130750937414014;
0,00132178514250766;
0,00127646599045189;
0,00118668731476808;
0,00111574272590213;
0,00111008525162089;
0,00115146681716683;
0,00117099550004374;
0,00111482483378128;
0,00100429928661968;
0,000934908699405818;
0,00100806286098179;
0,00124673649813784;
0,00156290067504834;
0,00180634677820617;
0,00186116920139109;
0,00171861596627813;
0,00147335255602366;
0,00124947582517433;
0,00111531822048632;
0,00105080664788662;
0,000985878852560412;
0,000871330837017842;
0,000720867973782443;
0,000591821911451709;
0,000526199684122472;
0,000507373190757357;
0,000472939656241967;
0,000374291782679168;
0,000231009317634499;
0,000129725419628138;
0,000162208799102195;
0,000349014444553378;
0,000610165630411327;
0,000809511146083773;
0,000842077955170233;
0,000699893895164125;
0,000468493067751057;
0,00025997537267715;
0,000136041818519297;
7,85565779006065E-5;
2,42344772070701E-5;
-7,14765620676542E-5;
-0,000196524758522703;
-0,000299638876767492;
-0,000343363465314535;
-0,000342935716527807;
-0,000354614608806691;
-0,000422094716790596;
-0,000527715909350642;
-0,000593651875421472;
-0,000537651817038417;
-0,000341586279700073;
-7,76241779728557E-5;
0,000131740537379619;
0,000192135139076855;
9,62984567623621E-5;
-7,91574861742241E-5;
-0,000233820271453507;
-0,000312439719115951;
-0,000331261895742992;
-0,000346967677436;
-0,000399545570832153;
-0,00047846724982446;
-0,000538230256586566;
-0,000545674682154985;
-0,000514588272117789;
-0,000495202242069465;
-0,000526389944388245;
-0,000592269975940769;
-0,000623422010462928;
-0,000546652260655206;
-0,000346017971298483;
-8,60002253483495E-5;
0,000124218599002476;
0,000200610547060571;
0,000136721807028947;
6,98292599543294E-7;
-0,000118168204582778;
-0,000170707849698119;
-0,000171230211803503;
-0,000169949715462927;
-0,000202340255475297;
-0,000259186448596952;
-0,000300359037515957;
-0,000296660479239128;
-0,000260355030723388;
-0,000235794510786379;
-0,00025715110209928;
-0,000310161888591657;
-0,000333348582497932;
-0,000262060278508383;
-8,23207952198542E-5;
0,000148845975028758;
0,000335061691302329;
0,000402247794860101;
0,000344788693406896;
0,000222823650468622;
0,000115108024314928;
6,507236242089E-5;
6,02928100000258E-5;
5,67465632523345E-5;
2,32986351208893E-5;
-3,20260628050866E-5;
-7,41385536759291E-5;
-7,75461647733319E-5;
-5,3030521417219E-5;
-3,93554830232703E-5;
-6,62437495924217E-5;
-0,00012097745950562;
-0,000149602225328698;
-9,55419633821641E-5;
5,33396936958865E-5;
0,000247089984825093;
0,00040144101737409;
0,000451707104613293;
0,000393044544233082;
0,000278007574723832;
0,000175378900803527;
0,00012314212268556;
0,000110615268210321;
9,95761741755096E-5;
6,29504407360586E-5;
7,62654433776963E-6;
-3,60582929191011E-5;
-4,6107462949861E-5;
-3,193288223856E-5;
-2,70891189787498E-5;
-5,71748529280443E-5;
-0,000110980676537189;
-0,00014166159642003;
-0,000100249306757352;
2,3646971547314E-5;
0,000186685271305671;
0,000315921478619292;
0,000355434064079664;
0,000301060979500112;
0,000198213378767544;
0,000106299227529411;
5,81629354392187E-5;
4,47058908658189E-5;
3,30854963032995E-5;
-1,06553990529762E-8;
-4,87730615392199E-5;
-8,73078617868271E-5;
-9,68887960018746E-5;
-8,56697537391085E-5;
-8,23832802962723E-5;
-0,000108828781433617;
-0,000155243589783748;
-0,00018143157615982;
-0,000145519252393954;
-3,87439847868661E-5;
0,000101697107332958;
0,000213378336532013;
0,000248508011019253;
0,000203540350882802;
0,000117237350398545;
4,02893047345291E-5;
7,54607953346194E-7;
-9,01589395937931E-6;
-1,68931492662862E-5;
-4,27089907545045E-5;
-8,16459389606493E-5;
-0,000111907830974508;
-0,000117779388665774;
-0,000106245071779825;
-0,000101586173516783;
-0,00012210648581147;
-0,000159394668467491;
-0,000179399608117676;
-0,000146789275646681;
-5,42866284812616E-5;
6,65975226480313E-5;
0,000163149921279398;
0,000195080307529893;
0,000159415183625395;
8,87957129767087E-5;
2,58880980279556E-5;
-5,65412446590154E-6;
-1,21483182614691E-5;
-1,68924713731262E-5;
-3,65097427877764E-5;
-6,7074364283112E-5;
-9,05270988158056E-5;
-9,38918782940845E-5;
-8,30645945918555E-5;
-7,82405637285148E-5;
-9,45239561144591E-5;
-0,000124747488605423;
-0,000140487693773421;
-0,000112390618908122;
-3,45194266837521E-5;
6,68392359548299E-5;
0,000147872986268298;
0,000175161740997119;
0,000146261878753003;
8,8226312415277E-5;
3,639451134129E-5;
1,03976637659227E-5;
5,13147252083788E-6;
1,46961054707012E-6;
-1,42782407495959E-5;
-3,89834763206998E-5;
-5,79706542277351E-5;
-6,07392965346597E-5;
-5,21840928152826E-5;
-4,87834287207475E-5;
-6,27403053073432E-5;
-8,80284561561793E-5;
-0,000101342816473404;
-7,87552191130576E-5;
-1,55340692613445E-5;
6,67895930417625E-5;
0,000132490251264127;
0,000154384535300723;
0,000130509904482046;
8,2851795446697E-5;
4,01064421173802E-5;
1,82545577053599E-5;
1,3281424187661E-5;
9,82969740540794E-6;
-3,1376414230603E-6;
-2,32045827447273E-5;
-3,87410343339891E-5;
-4,14717159465926E-5;
-3,53836707054367E-5;
-3,36067316868395E-5;
-4,57399367976751E-5;
-6,6800512232316E-5;
-7,81067136590897E-5;
-6,06206250390553E-5;
-1,06906177795304E-5;
5,44420805995979E-5;
0,000106336208710935;
0,000123420940202513;
0,000104163657415492;
6,598831534945E-5;
3,16128949703564E-5;
1,37284945528183E-5;
9,28781072140916E-6;
6,30819768460438E-6;
-3,86877562777694E-6;
-1,94606798442888E-5;
-3,15573191205946E-5;
-3,38685635437765E-5;
-2,95667753248184E-5;
-2,87912315926167E-5;
-3,88243440410348E-5;
-5,56308045419759E-5;
-6,46715185285178E-5;
-5,12804028005189E-5;
-1,27658192147827E-5;
3,74686478876825E-5;
7,74889981803266E-5;
9,07339046818777E-5;
7,60525141301552E-5;
4,67977611817854E-5;
2,03533344135558E-5;
6,4711748908882E-6;
2,95601943388143E-6;
8,22105677700599E-7;
-6,47353433368154E-6;
-1,77053734714413E-5;
-2,6369955137303E-5;
-2,79312575676094E-5;
-2,48351020807027E-5;
-2,45715574307538E-5;
-3,23787457822577E-5;
-4,50730074447922E-5;
-5,17939697645796E-5;
-4,17486776852179E-5;
-1,30896907076349E-5;
2,41846019300533E-5;
5,39046793160784E-5;
6,39434109292102E-5;
5,3487877533489E-5;
3,22913439332587E-5;
1,30211392587596E-5;
2,82746976984914E-6;
2,59683776696192E-7;
-1,02920572885579E-6;
-5,71603639059437E-6;
-1,30584622530021E-5;
-1,86614069936133E-5;
-1,95228772736575E-5;
-1,74451968018305E-5;
-1,75920394122647E-5;
-2,34135466479488E-5;
-3,24840199094214E-5;
-3,71792394680019E-5;
-3,01050550011351E-5;
-1,01483642180798E-5;
1,56871125186963E-5;
3,62919981559953E-5;
4,34285258451734E-5;
3,65810145727495E-5;
2,23504436444636E-5;
9,27382615417374E-6;
2,2201252113421E-6;
3,82918793986393E-7;
-2,83662327780441E-7;
-2,82575136392003E-6;
-6,91524250291624E-6;
-9,9850405142588E-6;
-1,03606925768912E-5;
-9,27982795377241E-6;
-9,88359005867531E-6;
-1,40745500331645E-5;
-2,00956373489093E-5;
-2,31416697720563E-5;
-1,87713644508323E-5;
-6,50371692292447E-6;
9,2649202636994E-6;
2,18222767651758E-5;
2,63074394603643E-5;
2,24634283261037E-5;
1,41588020393667E-5;
6,3502269450558E-6;
1,92625787348459E-6;
6,30878840770447E-7;
4,02944772506472E-7;
-3,94078316689691E-7;
-1,78305950090254E-6;
-2,76418697026965E-6;
-2,79899287702795E-6;
-2,63502449841709E-6;
-3,67498085982747E-6;
-6,49794121184511E-6;
-9,93145371440651E-6;
-1,15999206675292E-5;
-9,59945954888745E-6;
-3,98698134896334E-6;
3,08610656748928E-6;
8,68558939750147E-6;
1,08492068113913E-5;
9,54237047701202E-6;
6,29188176203756E-6;
2,98586456405287E-6;
8,12539799108168E-7;
-2,05961436877623E-8;
1,16109887711693E-7;
7,89924983447932E-7;
1,68473805473352E-6;
2,47368498359596E-6;
2,73575618019382E-6;
2,14366723888572E-6;
7,69990889860987E-7;
-8,47768062901207E-7;
-2,0431938116055E-6;
-2,50931402243562E-6;
-2,4953643271292E-6;
-2,50974827531032E-6;
-2,79493353422754E-6;
-3,08003620383139E-6;
-2,87094462598014E-6;
-2,01347635982348E-6;
-9,61716642648984E-7;
-4,23307207479971E-7;
-6,51352716136115E-7;
-1,05433380676693E-6;
-5,82312647940979E-7;
1,34609991773447E-6;
4,17413377448559E-6;
6,46888744513926E-6;
7,0115471407771E-6;
5,83063037432032E-6;
4,23241278313189E-6;
3,6817059361603E-6;
4,41208414701718E-6;
4,99405296374065E-6;
3,37815756324426E-6;
-1,31653661194109E-6;
-7,7323425796279E-6;
-1,29191341852512E-5;
-1,43320585920896E-5;
-1,16589145365053E-5;
-7,00379327635429E-6;
-3,23666561543385E-6;
-1,81418527765424E-6;
-1,83276808192778E-6;
-1,06906597943243E-6;
1,89909320229377E-6;
6,32190957856191E-6;
9,86126131276877E-6;
1,06475410368911E-5;
9,00609800642931E-6;
7,2569756570272E-6;
7,6205591708795E-6;
9,96521906417213E-6;
1,14282682412436E-5;
8,48160141861451E-6;
-5,66412309463258E-8;
-1,15101357054245E-5;
-2,07283687331053E-5;
-2,34848775852764E-5;
-1,93373968884018E-5;
-1,17391215816011E-5;
-5,32816598051074E-6;
-2,54818947917474E-6;
-2,24822875125287E-6;
-1,25509284558294E-6;
2,53696571885673E-6;
8,22781777361299E-6;
1,27553695708798E-5;
1,37317548013708E-5;
1,17255554675822E-5;
9,87185462070946E-6;
1,09919495684811E-5;
1,46509237777067E-5;
1,68275163700801E-5;
1,28055892642543E-5;
1,16669660808841E-6;
-1,43488971941941E-5;
-2,68229574779867E-5;
-3,06807770060522E-5;
-2,5375362706702E-5;
-1,54376470443942E-5;
-6,91836447416163E-6;
-3,05263609133145E-6;
-2,4998304123643E-6;
-1,33781839641547E-6;
3,08119864320493E-6;
9,74464917482347E-6;
1,50286370697298E-5;
1,61454705757622E-5;
1,38585777037352E-5;
1,19399210702442E-5;
1,36735011979462E-5;
1,83772816994535E-5;
2,11180511430655E-5;
1,6252096680241E-5;
2,18168924848061E-6;
-1,65175494667051E-5;
-3,15474636651728E-5;
-3,62837543213641E-5;
-3,00975287575716E-5;
-1,83548006256165E-5;
-8,20092630381126E-6;
-3,48735466801867E-6;
-2,73485964126117E-6;
-1,45140950427962E-6;
3,4264965327176E-6;
1,08071270506734E-5;
1,66486402303565E-5;
1,78684451169777E-5;
1,53814815485613E-5;
1,34382202070452E-5;
1,56629412245265E-5;
2,11770333032604E-5;
2,43549529654724E-5;
1,8856888979974E-5;
2,95644448953415E-6;
-1,81388040870202E-5;
-3,50953968052014E-5;
-4,05047052190896E-5;
-3,36763432445001E-5;
-2,05962879129441E-5;
-9,22251142149729E-6;
-3,86726177176629E-6;
-2,95744792623673E-6;
-1,5892433111331E-6;
3,60473953710753E-6;
1,14825952110821E-5;
1,77110011933679E-5;
1,90045834894874E-5;
1,63913650696397E-5;
1,44608330797076E-5;
1,7070115669903E-5;
2,31891660251356E-5;
2,66939745900538E-5;
2,07525271821462E-5;
3,55408145193012E-6;
-1,92411823650595E-5;
-3,75679548261828E-5;
-4,3466752115153E-5;
-3,62037750239155E-5;
-2,21959826504403E-5;
-9,9661582812991E-6;
-4,15045447601947E-6;
-3,12066200534773E-6;
-1,69945526564502E-6;
3,68643917196803E-6;
1,18699220136998E-5;
1,83362781357689E-5;
1,96774393596607E-5;
1,7000746603245E-5;
1,51130480103353E-5;
1,80110112903729E-5;
2,45531054148837E-5;
2,82863763524173E-5;
2,2064491446803E-5;
4,03078114275299E-6;
0,00931357547260551;
0,0225906587979151;
0,0163274375429018;
0,00939531283567301;
0,0121461863400301;
0,00701572928864689;
0,00563049526460369;
0,00457950327952513;
0,000838738449482098;
0,00103610004118684;
-0,00117840937146323;
-0,00197334825187093;
-0,00278716833005524;
-0,00453640130471645;
-0,00487186712607086;
-0,00583734247483042;
-0,00591585415071309;
-0,00615325099938163;
-0,00697070295789305;
-0,00791630092423888;
-0,00936894705787922;
-0,0102826285586345;
-0,0105646603629595;
-0,0101470704763248;
-0,00923137249515081;
-0,00844097495406364;
-0,00783483490136435;
-0,00746070305105071;
-0,00704984137157921;
-0,00641500535611307;
-0,00566346290862017;
-0,00493992564126492;
-0,00443315427851349;
-0,00407349821044959;
-0,00364829589752286;
-0,0030078105293728;
-0,00220254654959436;
-0,00154320388000644;
-0,00133783895362623;
-0,00166057743930777;
-0,00224564628893033;
-0,0026267753732386;
-0,00245297118193496;
-0,00169581440616182;
-0,000648524247310941;
0,000305937444055763;
0,000959251269608018;
0,00137265318718513;
0,00176333667538112;
0,00228203971735102;
0,00288548619331344;
0,00339645795211148;
0,00368453989486097;
0,00380143126960858;
0,00394011051280385;
0,00425209933588574;
0,00467969004845054;
0,00495865622327141;
0,00480861012701042;
0,00416688790797988;
0,00327888476248442;
0,00256209165780856;
0,00233846509608827;
0,00263318867535077;
0,00318564601289391;
0,00365476161573467;
0,00385439752174267;
0,00384277563193257;
0,00381551682843608;
0,00390962343149867;
0,00408780048110363;
0,00419233311531019;
0,00410817856945178;
0,00388247179192824;
0,00368894779547691;
0,00366381099649907;
0,00375601907800965;
0,00373027821391516;
0,00333681502724241;
0,00252046289268052;
0,00150068944344055;
0,000650048382914824;
0,000255524477544449;
0,000339303503742202;
0,000669066092967076;
0,000941025903851045;
0,000989473084939491;
0,000866089707152922;
0,000744538452824266;
0,000746191675623268;
0,000837469975714553;
0,000877916999448519;
0,00076505138219862;
0,000540272984302572;
0,000357115113467188;
0,000335646433399161;
0,00042995049577503;
0,000431047253171292;
0,000117373541679943;
-0,000560269308666703;
-0,0107416773381674;
-0,0247275887188539;
-0,0187491144754413;
-0,0116582170107065;
-0,0140194136404719;
-0,00854599346671007;
-0,00701607317103994;
-0,00597201502027298;
-0,00223206828404472;
-0,00231421847023325;
0,000100137712838183;
0,00105079354369964;
0,00188212102822065;
0,0035477353754068;
0,00383775352812806;
0,00490486550874162;
0,00518999585503317;
0,00554854426248897;
0,00619978246540607;
0,0066466273333929;
0,0074435407535403;
0,0078427660735111;
0,00798081900956118;
0,00780630907096446;
0,0073334327489308;
0,00694140840578466;
0,00655593052433168;
0,00626556294695225;
0,00593977388853691;
0,00548749282310839;
0,00498829722000113;
0,00447401015697774;
0,00405101028475604;
0,00368210806939444;
0,00327644103666307;
0,00277938654601782;
0,00220456116120308;
0,00169633311619963;
0,0013866626573363;
0,00131050677963864;
0,00135541686728102;
0,00131519259171367;
0,00103848414377755;
0,000511227506276487;
-0,000136399342238942;
-0,000733741067225807;
-0,00118814380604763;
-0,00152517854350977;
-0,00184185992002811;
-0,00220533904548641;
-0,00259624051335758;
-0,00293504169908202;
-0,00316247535069496;
-0,00330188570777467;
-0,0034406443952017;
-0,00364788493964077;
-0,00389770595315617;
-0,00406945541671625;
-0,00403455391854927;
-0,00376378916578086;
-0,00336995389660861;
-0,00304609962417697;
-0,00294208369622778;
-0,00307073458800416;
-0,00331174382032192;
-0,00350654647390085;
-0,00356824826428952;
-0,00352422707134641;
-0,00346676100783066;
-0,00346102899404148;
-0,00349014791261879;
-0,00348000847075777;
-0,00337633500033657;
-0,00320181677239379;
-0,0030397337278256;
-0,00295582343942599;
-0,00292622047982604;
-0,00283817154833129;
-0,00257128548323775;
-0,00209868475869403;
-0,00152660946356495;
-0,00103635825501006;
-0,000768476545644802;
-0,000734763284128402;
-0,000822266378256115;
-0,000882250785464271;
-0,000833193621047871;
-0,000700541031129183;
-0,000570326850631547;
-0,000503110633273041;
-0,000482632662961835;
-0,000439161038285573;
-0,000321534496985496;
-0,000150452820862418;
-3,10259355522382E-6;
5,9802600649061E-5;
6,11605003672355E-5;
0,000106682967893674;
0,000309090515097443;
0,000693922358399044;
0,0104962493561507;
0,0241774288615176;
0,0180913277238272;
0,0110984163182144;
0,0136630237168795;
0,00836854360140201;
0,00692265870744535;
0,00588966649198772;
0,00216096473598349;
0,00230520145585005;
-1,07562552930054E-5;
-0,000885664582920047;
-0,00170660475934859;
-0,00340996153055431;
-0,00372244960208112;
-0,00474758973143522;
-0,00494553275711587;
-0,00525733706522907;
-0,00599236180202056;
-0,00667297411156476;
-0,00777477195857447;
-0,0084173492061165;
-0,00863606497841235;
-0,00837271190743025;
-0,00772416290692512;
-0,007176583664023;
-0,00671355665528818;
-0,00640561066166525;
-0,00606222540491998;
-0,00555087605049049;
-0,00496310062121197;
-0,00437896120411559;
-0,00393969226507625;
-0,00359399839383553;
-0,00319933777537306;
-0,00266112559702735;
-0,00200872043110752;
-0,00145613628842111;
-0,00120838309399483;
-0,00131602749757244;
-0,00160259956980613;
-0,00175454720877241;
-0,00153887507354456;
-0,000936184578581383;
-0,0001434429365528;
0,000582537154381682;
0,00110258732079867;
0,00145682166667985;
0,0017903918313247;
0,00220362636675103;
0,00266754280159092;
0,00306408376918952;
0,00330623370642652;
0,00342865137146434;
0,00355985341389052;
0,0038006746701266;
0,0041126393377243;
0,00431988455178913;
0,00423612371684929;
0,00381999886676991;
0,00323499433261302;
0,00275880124985279;
0,00260542230603034;
0,00279171356863544;
0,00314485316240098;
0,00343877975590483;
0,00355029012575173;
0,00351818297442;
0,00347226528624972;
0,00350349166915063;
0,0035874862766375;
0,00362029081358983;
0,00352623709527496;
0,00333683231701716;
0,00316708968523777;
0,00310707387532615;
0,00312317706654818;
0,00306031643243339;
0,00275407218209075;
0,00216849747650938;
0,00144863147208167;
0,000840170980128037;
0,000532220710442629;
0,000539444078170253;
0,000709075361021341;
0,000841472651421974;
0,000827866458134143;
0,000702339050861448;
0,000579022916062336;
0,000537675439319809;
0,000556412920108275;
0,000543348274145218;
0,000431549809948826;
0,00024830993718712;
9,42017338744786E-5;
4,773044777189E-5;
7,87569554478007E-5;
5,06264760474672E-5;
-0,000181328828722926;
-0,000649015535286264;
-0,0105592276695383;
-0,0243268094596038;
-0,0182708309921334;
-0,0112499276951037;
-0,013757048113422;
-0,00841187850575858;
-0,00694137419065956;
-0,00590365777297889;
-0,00217033515879981;
-0,00229664811438883;
4,65504286679474E-5;
0,000942616385701031;
0,00176779053477542;
0,00346308811142462;
0,00377127992904213;
0,00480794402083538;
0,00502818235084221;
0,00535208644069908;
0,00606764360211338;
0,00669320945342782;
0,00772344222705459;
0,00830880131222601;
0,00850741148412793;
0,00826200342872295;
0,00765060867187072;
0,00713585635809553;
0,00668901098741435;
0,00638462825230623;
0,00604474041139443;
0,00554518592531075;
0,00497494496005463;
0,0044045571758711;
0,00396870248419296;
0,00361900897211029;
0,00322262358196271;
0,00269204378977111;
0,00205348760573014;
0,00150865889018217;
0,00125036348514746;
0,00132719417131;
0,00157375625414975;
0,00169381953572101;
0,00146675078162231;
0,000873320381240341;
0,000100109128112606;
-0,000608587141592098;
-0,00111991374647324;
-0,00147180904258455;
-0,0018031101665256;
-0,00221012303601615;
-0,0026651892114474;
-0,00305471289744722;
-0,00329454628307015;
-0,00341789155066676;
-0,00354904421770815;
-0,00378602300141243;
-0,00409184892563645;
-0,00429554137068077;
-0,0042151603363926;
-0,00380957930230076;
-0,00323804568405455;
-0,00277251528279093;
-0,00262351976525418;
-0,00280839785933192;
-0,00315748976861539;
-0,00344784498160006;
-0,0035574528210477;
-0,00352451311336747;
-0,00347782902326918;
-0,00350802375033322;
-0,00359099340026956;
-0,00362293889824754;
-0,00352792929163662;
-0,0033372614780517;
-0,00316636454921779;
-0,00310609991191514;
-0,00312295986401879;
-0,00306045373905497;
-0,00275186303924387;
-0,00216000399912505;
-0,00143146012614385;
-0,000815975502150427;
-0,000506682165104639;
-0,000519272045161312;
-0,000698053712771826;
-0,000838578676417434;
-0,000828963923796804;
-0,000704018984220214;
-0,000581331790183152;
-0,000543424171771484;
-0,000567801250094004;
-0,000559131527649194;
-0,000447602448819472;
-0,000261341088422368;
-0,000105212424781569;
-6,15334518652519E-5;
-9,90966889703715E-5;
-7,45940485267987E-5;
0,000164474390302325;
0,000652468843171131;
0,00125639119048856;
0,00174947878527161;
0,00195669958744526;
0,00186457057210572;
0,00161542838473796;
0,00139577878528276;
0,00130785722835419;
0,00132059263745666;
0,00132779903885146;
0,00125519560383742;
0,00112380148255821;
0,00102062871986488;
0,0010094583390222;
0,00106526798045469;
0,00109355115527983;
0,00102027988189607;
0,000874189974008179;
0,00078535209490232;
0,000891996472798259;
0,00122543092172783;
0,00166572410330072;
0,00200836391876228;
0,00209569868017111;
0,00191595902046288;
0,00159789587661507;
0,00130993787950227;
0,001144395652489;
0,0010733934862976;
0,00100142723204289;
0,000861777311411136;
0,000673503443551123;
0,000514971626198909;
0,000443566902521697;
0,000436801518164595;
0,000409777989555642;
0,000296047605253402;
0,0001214349578512;
2,63079375683676E-6;
6,35149762743954E-5;
0,00033199139823652;
0,000700411259547248;
0,000985458696134015;
0,00104592758330703;
0,000871279065846134;
0,000576671166952094;
0,000312625836058011;
0,000161491511195383;
9,81674243547398E-5;
3,71825363479887E-5;
-8,11649958886569E-5;
-0,000239992416328997;
-0,000369547518746146;
-0,000418853407150062;
-0,000408158227761216;
-0,000413280679221505;
-0,000493542242901255;
-0,000626090523982997;
-0,000707264862232988;
-0,00062711138019771;
-0,000361082984767801;
-5,08055685148362E-6;
0,000277893378815472;
0,000362369393335072;
0,00023893128537085;
9,64946407654233E-6;
-0,000192145977122522;
-0,000293645367618446;
-0,000317258849521952;
-0,000338807979266298;
-0,000411232985802072;
-0,000519683927141849;
-0,000602583037070342;
-0,000614999131487567;
-0,00057494829671153;
-0,000549482150640589;
-0,000591021848497028;
-0,000679450673416571;
-0,000723423373415787;
-0,000626133846300567;
-0,00036609392360096;
-2,78750327511663E-5;
0,000244989384621219;
0,00034212361466375;
0,000255294076107654;
7,42496347660443E-5;
-8,3883946576976E-5;
-0,000155215888545261;
-0,000159459948171982;
-0,000163145105510512;
-0,000212669615568818;
-0,000294985187284465;
-0,000356133079925874;
-0,000356779058427453;
-0,000312698574538202;
-0,000282526715025998;
-0,000312046519379485;
-0,000383621599708131;
-0,000417437930478737;
-0,000328997573191377;
-9,95885538515341E-5;
0,000197014580042431;
0,00043573434868138;
0,000520501437345462;
0,00044426093919574;
0,000285215886510669;
0,000145298172542336;
8,00709016173671E-5;
7,24208547449775E-5;
6,46128212123467E-5;
1,64429573369175E-5;
-6,06949969403698E-5;
-0,000119961982388859;
-0,000127242813607114;
-9,61784147020694E-5;
-7,74847405844257E-5;
-0,000110705364235851;
-0,000180518724686388;
-0,000217904081783897;
-0,00014987707030115;
3,96884351032997E-5;
0,000287127211791866;
0,000484618958554136;
0,000549453099835881;
0,000475653056903567;
0,000330613490238588;
0,000202060072181523;
0,000137766915529163;
0,000123028901095788;
0,000108288008441334;
5,90853895474832E-5;
-1,47587965690478E-5;
-7,30677311792243E-5;
-8,66143481114273E-5;
-6,70825813400704E-5;
-5,7854537819926E-5;
-9,27091083080674E-5;
-0,000158515152452003;
-0,000196316214184772;
-0,000143852031469422;
1,2575202793176E-5;
0,000218652316295834;
0,000382531774914865;
0,000433848062752327;
0,000367579687833034;
0,000241065701162325;
0,000128839189242135;
7,14326577058823E-5;
5,63397803439299E-5;
4,15350583265792E-5;
-2,1618302424349E-6;
-6,64182188035448E-5;
-0,000117242407659433;
-0,000129947722724088;
-0,000114435705578645;
-0,000107345836665769;
-0,000137165953284354;
-0,000192810383414251;
-0,000224620643492914;
-0,000180232955951184;
-4,81978647929554E-5;
0,000125769082700269;
0,000264503785674998;
0,000308977515179625;
0,000255027068938125;
0,000150732253489417;
5,84938416370332E-5;
1,21868135210672E-5;
1,3182198295113E-6;
-9,23117815047521E-6;
-4,38069982019893E-5;
-9,54471839447022E-5;
-0,000135833029407888;
-0,000144438404861298;
-0,000129531334038426;
-0,000121577890696056;
-0,000144224612208943;
-0,000188257422791851;
-0,000212517601259745;
-0,000173680592921058;
-6,23414970746896E-5;
8,36462584156025E-5;
0,000200530765238;
0,000239632528621561;
0,000197573170081856;
0,000113992760953475;
4,02404086137937E-5;
4,13515279501747E-6;
-2,97146632056489E-6;
-9,90174878800175E-6;
-3,65938820384357E-5;
-7,73254197302336E-5;
-0,000108927631394135;
-0,000114645604209621;
-0,000101251808380425;
-9,35951207637437E-5;
-0,000110918380996782;
-0,000145698474032914;
-0,000164478507632721;
-0,000132119230512037;
-4,1055579463564E-5;
7,79956928871338E-5;
0,000173440458779743;
0,000205975580606735;
0,000172937581164239;
0,00010633684836675;
4,75360913776969E-5;
1,88893555713281E-5;
1,34236811452673E-5;
8,01119746705349E-6;
-1,33020025829503E-5;
-4,59077188676254E-5;
-7,12777684405064E-5;
-7,60515068150349E-5;
-6,56469173197636E-5;
-5,98466850421509E-5;
-7,39243042027511E-5;
-0,000101876654730715;
-0,000117174556605717;
-9,20366822916773E-5;
-2,05460271130406E-5;
7,30006526600142E-5;
0,000147935191164812;
0,000173375206886537;
0,000147297728046081;
9,48661055577332E-5;
4,84865939131552E-5;
2,56154171581349E-5;
2,07828152631001E-5;
1,5962198707991E-5;
-1,23412050588584E-6;
-2,71972437192012E-5;
-4,75521055038614E-5;
-5,19738414583286E-5;
-4,46696304880076E-5;
-4,0896224166893E-5;
-5,23842077864912E-5;
-7,44905991718036E-5;
-8,68709940928413E-5;
-6,83082974105536E-5;
-1,43544237110896E-5;
5,64162103867272E-5;
0,000113067966800708;
0,000132213814571419;
0,00011239642401899;
7,2683074820558E-5;
3,75119823938734E-5;
1,99838902070766E-5;
1,5963180879784E-5;
1,19515036728057E-5;
-1,27648586538382E-6;
-2,10026073505491E-5;
-3,6538761519995E-5;
-4,02536587592775E-5;
-3,52830508673421E-5;
-3,28767030028954E-5;
-4,16314093520825E-5;
-5,81115514669669E-5;
-6,74467799317568E-5;
-5,42255619983987E-5;
-1,52980912216496E-5;
3,58165443237046E-5;
7,67756359075191E-5;
9,08050830667874E-5;
7,69432583919935E-5;
4,88790915529325E-5;
2,40262480602559E-5;
1,16477516761865E-5;
8,78216909133499E-6;
5,91526780624848E-6;
-3,39853926702852E-6;
-1,72266405901316E-5;
-2,81229772282043E-5;
-3,08230638260064E-5;
-2,7521947258633E-5;
-2,59532011037136E-5;
-3,19659324915406E-5;
-4,31847980446907E-5;
-4,95377484606884E-5;
-4,06982478889642E-5;
-1,46516867626687E-5;
1,95082551328419E-5;
4,69553336491627E-5;
5,66960245987818E-5;
4,8200708543372E-5;
3,04604843435858E-5;
1,47575754240341E-5;
7,0077629044411E-6;
5,27440738460927E-6;
3,51579642029337E-6;
-2,29281285705902E-6;
-1,09034920940112E-5;
-1,76914827995686E-5;
-1,94500182056015E-5;
-1,75552393711563E-5;
-1,66849967957381E-5;
-2,03024111994915E-5;
-2,69527780636374E-5;
-3,07262512732384E-5;
-2,57037038487494E-5;
-1,08520486754121E-5;
0,0093420039118624;
0,022653973082588;
0,016402912980927;
0,0094593070851522;
0,0121866722762935;
0,00703553943992556;
0,00564033083447318;
0,00458736393179845;
0,000844245356140289;
0,0010332411784088;
-0,00119381714471416;
-0,0019986901292816;
-0,00281492998825819;
-0,00456089673271391;
-0,00489438132132691;
-0,00586463091935888;
-0,00595279013297442;
-0,00619573241773432;
-0,00700517816924114;
-0,00792715454278504;
-0,00934865474023916;
-0,0102371877946364;
-0,0105102637495838;
-0,0101005234108972;
-0,00920120651155725;
-0,00842521603409577;
-0,00782600059052323;
-0,00745325114548103;
-0,00704410924500185;
-0,00641523698243751;
-0,00567259005907771;
-0,00495614050137828;
-0,00445125663035837;
-0,00408954164023708;
-0,0036630999373319;
-0,00302592035391642;
-0,00222724965214902;
-0,00157177804900257;
-0,00136127720110458;
-0,00166853198414559;
-0,00223312940848356;
-0,00259766413557322;
-0,00241775328645505;
-0,00166532439126152;
-0,00062823814560615;
0,000317252620416617;
0,000966280826508147;
0,00137880662231324;
0,0017683203439131;
0,00228315528132714;
0,00288089616978135;
0,00338727260516236;
0,0036739505518296;
0,00379187382535075;
0,00393116950047074;
0,00424114843384628;
0,00466481990617885;
0,00494139723028128;
0,00479403587637788;
0,00416078631086309;
0,00328404597392581;
0,00257646771866681;
0,00235649502578605;
0,00264919427284789;
0,00319679102709706;
0,00366164391009009;
0,00385929540848178;
0,00384726532628084;
0,00381934638914507;
0,00391142834136802;
0,00408668699751623;
0,00418881245011746;
0,00410371452328084;
0,00387820019527509;
0,00368479690284415;
0,00365879860035468;
0,00374941730913876;
0,00372259748414548;
0,0033297613275899;
0,00251591990854537;
0,00149956267951434;
0,000651846109699337;
0,000258887370874673;
0,000342951090897066;
0,000672413708857673;
0,000944132249886736;
0,000992569124739939;
0,000869193870987718;
0,000747436658417782;
0,000748655215127956;
0,000839407899966334;
0,000879331440618363;
0,000765938094239103;
0,000540661777677483;
0,000357221668676337;
0,000335878210256374;
0,000430578834437315;
0,000431720739492397;
0,000116952531153361;
-0,000563200340010923;
-0,010747808549402;
-0,0247361066584573;
-0,0187578445248656;
-0,0116647404261583;
-0,0140224207910206;
-0,00854587636535939;
-0,00701431714596377;
-0,00596990582900591;
-0,00222978540693607;
-0,00231103641643939;
0,000104801820540274;
0,00105651611574925;
0,0018876689353886;
0,00355221159344792;
0,00384161066662523;
0,0049096684143124;
0,00519684888831909;
0,00555637990270258;
0,00620509440958803;
0,00664525591729176;
0,00743346604443494;
0,00782587857700413;
0,00796221813243185;
0,00779147544099083;
0,00732524469242245;
0,00693910462938052;
0,00655661222640673;
0,00626687218865873;
0,00594156340824274;
0,00549127730628989;
0,00499521646568368;
0,00448329156663803;
0,00406041057765812;
0,00368996751770618;
0,0032834041809527;
0,00278796509963455;
0,00221654196519967;
0,0017100654787338;
0,00139670937970295;
0,0013104689686036;
0,00134218718194379;
0,0012915325640867;
0,0010118661954675;
0,000489616734536536;
-0,000148850844788245;
-0,000738090085818058;
-0,00118842842397706;
-0,00152461891994536;
-0,00184057334452861;
-0,00220117099853644;
-0,00258760005049016;
-0,00292298105141749;
-0,00315005014421848;
-0,00329136987261674;
-0,00343124185835747;
-0,00363632703358047;
-0,00388165927369883;
-0,00405103415746445;
-0,00402073349890371;
-0,00376275266796687;
-0,00338567745828896;
-0,00307513577321535;
-0,00297508329483075;
-0,00309776752579114;
-0,0033276497752329;
-0,00351261193112196;
-0,00356940483036788;
-0,00352436912714566;
-0,00346597841251778;
-0,00345666192197034;
-0,0034802496021932;
-0,0034658489302489;
-0,00336160512236902;
-0,00318927173194804;
-0,0030284621652657;
-0,00294196991631276;
-0,00290702698615632;
-0,00281610916076267;
-0,00255451710584343;
-0,00209677109174155;
-0,00154419996981446;
-0,00106948448949858;
-0,000806355416739428;
-0,000765963169107094;
-0,000840855886737543;
-0,000889688009823941;
-0,000835085318903517;
-0,000701288909884542;
-0,000569996076238808;
-0,000498656212188346;
-0,000471837176189315;
-0,000423457542979539;
-0,000305091903935434;
-0,000136389433327375;
9,57609391270283E-6;
7,53877084371709E-5;
8,27262613256252E-5;
0,000131495700273252;
0,000328110549844471;
0,000696571671974347;
0,001143944559548;
0,00151165209861854;
0,0016771930084958;
0,0016310955487171;
0,0014730728302458;
0,00133390392264361;
0,00128536653844293;
0,001305716652974;
0,00132041695472861;
0,0012772774813879;
0,00119108054489131;
0,00112306631054665;
0,00111818295772011;
0,00115886584185325;
0,00117856629836526;
0,0011251407587855;
0,00101894833023879;
0,000951935557935271;
0,00102187608293981;
0,0012509887162368;
0,00155447682579806;
0,00178759407775363;
0,00183870851393313;
0,00169956114980588;
0,00146159759490902;
0,00124449986041746;
0,00111395105409868;
0,00105022707205447;
0,000985463126026426;
0,000872215388549109;
0,000724088912853398;
0,000596962572526245;
0,000531799326544906;
0,00051260762485345;
0,000478835549420242;
0,000383079623627666;
0,000243873336591022;
0,000144755930877066;
0,000174448225488725;
0,000352960236108212;
0,000603144624095103;
0,000793540930539971;
0,00082285029728808;
0,00068357819629024;
0,000458572333059369;
0,000256158727049018;
0,000135651583936616;
7,90016261268748E-5;
2,46233644956489E-5;
-7,05420689411133E-5;
-0,000194330313060625;
-0,000296399050460997;
-0,00033993590942753;
-0,000339589709151116;
-0,000350207287618195;
-0,00041471448892094;
-0,000516533331056944;
-0,000580510635532965;
-0,000526907162212549;
-0,000337954096198852;
-8,33692302065908E-5;
0,000118330541307722;
0,000175891783828102;
8,25113183626153E-5;
-8,73996726350414E-5;
-0,000236611406813544;
-0,000312006194297637;
-0,000329964609440907;
-0,000345909336241861;
-0,000398580980089402;
-0,000477162200375891;
-0,000536627477671925;
-0,000544114806736166;
-0,000512872129121819;
-0,000492105977336679;
-0,000520296204021597;
-0,000582657999754191;
-0,000612053413057678;
-0,000537315051604881;
-0,000342701369962507;
-9,05944644525526E-5;
0,000113145397752165;
0,00018709996764146;
0,000125250413043985;
-6,01980092160719E-6;
-0,000120060464206855;
-0,00016959047530017;
-0,000169237093442553;
-0,000168344529095188;
-0,000201362413741042;
-0,000258642984431002;
-0,00030014864857386;
-0,00029668631791762;
-0,000260028635023523;
-0,000233841675483573;
-0,000252223848625463;
-0,000302005117432566;
-0,000323629574673056;
-0,000254037383474026;
-7,93172423100391E-5;
0,000145280805117001;
0,000326104215445078;
0,000391219814812328;
0,000335421450684065;
0,000217478463223446;
0,000113995836522906;
6,67467923143641E-5;
6,28409717246702E-5;
5,87882341462749E-5;
2,42756028486419E-5;
-3,21260234470162E-5;
-7,50954715926742E-5;
-7,88986156272626E-5;
-5,38726514369652E-5;
-3,83891326942264E-5;
-6,23656248787421E-5;
-0,000114158297612736;
-0,000141406097763051;
-8,87366542571298E-5;
5,6036558628496E-5;
0,000244436814319218;
0,000394383420549331;
0,000442916323344687;
0,000385573938896887;
0,000273889006709962;
0,000174936215537379;
0,000125259577167942;
0,00011359273552638;
0,00010195575347623;
6,39148281383516E-5;
6,9914736376662E-6;
-3,79771225675564E-5;
-4,85503514262851E-5;
-3,37413588281273E-5;
-2,6963522431991E-5;
-5,42324004107446E-5;
-0,000105381365601505;
-0,000134860368974457;
-9,45632012981433E-5;
2,60466693501414E-5;
0,000184832688616365;
0,000310555435593746;
0,000348642634860326;
0,000295285901367997;
0,000195181324109644;
0,000106423926701055;
6,06216670965336E-5;
4,80012880301107E-5;
3,57156429587241E-5;
9,31575842433953E-7;
-4,9844796700693E-5;
-9,000270619419E-5;
-0,000100208579625708;
-8,82612753537819E-5;
-8,2964213100632E-5;
-0,000106713447288106;
-0,000150747920543615;
-0,000175898022745645;
-0,000140853952565012;
-3,66293726078888E-5;
0,000100540090134712;
0,000209504871443995;
0,000243487865871281;
0,000199267945467305;
0,000115158886740033;
4,08877847343372E-5;
3,46457745783974E-6;
-5,50035088153465E-6;
-1,40891576032071E-5;
-4,17966101972965E-5;
-8,30656090232503E-5;
-0,000115211834155978;
-0,000121784586135448;
-0,000109454802824731;
-0,000102750980441869;
-0,000120715380648863;
-0,000155889388411274;
-0,00017500894041711;
-0,000143047751208896;
-5,24429972451639E-5;
6,60379691152858E-5;
0,000160580786392471;
0,00019161487285293;
0,00015646229927611;
8,754582974639E-5;
2,68752155968145E-5;
-2,77187168144127E-6;
-8,49765544467461E-6;
-1,3981390158948E-5;
-3,56332535124425E-5;
-6,87626897255183E-5;
-9,4291777814087E-5;
-9,84122535809833E-5;
-8,67455492472903E-5;
-7,98780492497269E-5;
-9,37604062707525E-5;
-0,000122123433296591;
-0,000137118931792164;
-0,000109478340928387;
-3,2931133725965E-5;
6,67862974283788E-5;
0,000146431674243595;
0,00017304721975373;
0,000144456137634417;
8,76884275848694E-5;
3,76934168684283E-5;
1,33836363025748E-5;
8,84411686790897E-6;
4,43031382066375E-6;
-1,34422368346559E-5;
-4,08702572417396E-5;
-6,20650707387841E-5;
-6,56248738742744E-5;
-5,62063519485598E-5;
-5,07935910807662E-5;
-6,25142304464238E-5;
-8,61814432948071E-5;
-9,887989042389E-5;
-7,65810814796456E-5;
-1,41843687608753E-5;
6,71598483284713E-5;
0,00013201266721969;
0,000153430781737731;
0,000129690433651371;
8,29180528187152E-5;
4,16483243853983E-5;
2,12853616793335E-5;
1,69938981892189E-5;
1,27911310472111E-5;
-2,34546443609084E-6;
-2,52282535354352E-5;
-4,30508495256766E-5;
-4,65916623581946E-5;
-3,9633496487932E-5;
-3,59003991356992E-5;
-4,59680800662872E-5;
-6,56320294205209E-5;
-7,64393230154461E-5;
-5,90976768395185E-5;
-9,56204905768489E-6;
5,5159562264288E-5;
0,00010667104147571;
0,000123452002222294;
0,000104181543979035;
6,65597120702157E-5;
3,33366484767363E-5;
1,67541683583951E-5;
1,29480398612854E-5;
9,22934492156354E-6;
-3,12268753016918E-6;
-2,15678128502346E-5;
-3,59837565279784E-5;
-3,9109973011513E-5;
-3,39456202461705E-5;
-3,12895763735179E-5;
-3,94303522644256E-5;
-5,50484960523697E-5;
-6,36957660924035E-5;
-5,03264022864782E-5;
-1,18405486039738E-5;
3,84647516624406E-5;
7,84978396289163E-5;
9,15882571319914E-5;
7,67710071252131E-5;
4,77841271306703E-5;
2,22051759360839E-5;
9,44994373667648E-6;
6,52109924198895E-6;
3,6691124012289E-6;
-5,77487040371219E-6;
-1,9850137858635E-5;
-3,08287083800848E-5;
-3,31978718387177E-5;
-2,92585734523364E-5;
-2,72055688337809E-5;
-3,32931600027029E-5;
-4,49910057932807E-5;
-5,14128115370934E-5;
-4,12864956948394E-5;
-1,23498061087375E-5;
2,53979010610249E-5;
5,54619474253607E-5;
6,54739541539329E-5;
5,47823810178295E-5;
3,36112002818285E-5;
1,49541769244317E-5;
5,72499210903168E-6;
3,69499694948872E-6;
1,71628610688278E-6;
-5,06535445690078E-6;
-1,52020538278933E-5;
-2,30814996783075E-5;
-2,47337712931662E-5;
-2,18419706448029E-5;
-2,03019208472093E-5;
-2,45736790577507E-5;
-3,28231203898164E-5;
-3,73027619446832E-5;
-3,00629431469374E-5;
-9,5761246912647E-6;
1,70630967613571E-5;
3,82846697811961E-5;
4,55023633023712E-5;
3,83389091630269E-5;
2,39307564857749E-5;
1,1247609964685E-5;
5,00878325515117E-6;
3,66127992165757E-6;
2,33875123619808E-6;
-2,22295330226825E-6;
-9,02531593032955E-6;
-1,43076995462702E-5;
-1,54489589994005E-5;
-1,35905642698397E-5;
-1,26181234177271E-5;
-1,54242867259089E-5;
-2,07833615576705E-5;
-2,36872135469893E-5;
-1,90830989190437E-5;
-6,08177366141237E-6;
1,07556723194474E-5;
2,41494935605185E-5;
2,88054978888363E-5;
2,45837505376255E-5;
1,59346606311191E-5;
8,33027833169923E-6;
4,58444528832449E-6;
3,73170790649342E-6;
2,88588930332441E-6;
1,61481460633759E-7;
-3,83313666392707E-6;
-6,94170314153922E-6;
-7,71042236165512E-6;
-6,81127032986899E-6;
-6,39088438632711E-6;
-7,98749304229462E-6;
-1,09019982989107E-5;
-1,24920973280044E-5;
-1,02043933244877E-5;
-3,69854780462105E-6;
4,64992782544114E-6;
1,12581397932299E-5;
1,36657044369076E-5;
1,19353674804958E-5;
8,20610711821275E-6;
4,94319424050747E-6;
3,32399559289135E-6;
2,88794350655853E-6;
2,4477588593662E-6;
1,29933847545908E-6;
-2,84167290648456E-7;
-1,52093090501635E-6;
-1,95605061109608E-6;
-1,85946070357861E-6;
-1,89126372262426E-6;
-2,4333571861831E-6;
-3,23729746922373E-6;
-3,67990579071029E-6;
-3,33838829296695E-6;
-2,33874097560244E-6;
-1,19391841852005E-6;
-3,40319542321789E-7;
1,7087059843268E-7;
5,73128911541729E-7;
1,04099447307899E-6;
1,48732040750978E-6;
1,70181011656465E-6;
1,65224989516198E-6;
1,59020803024941E-6;
1,81081315051285E-6;
2,30283538655451E-6;
2,68605003275564E-6;
2,57196473536091E-6;
2,03045964180211E-6;
1,65520999033191E-6;
2,03818713329587E-6;
3,04735304323904E-6;
3,60627607237955E-6;
2,34672316087876E-6;
-1,24769193184641E-6;
-6,12461262227706E-6;
-1,00800363776889E-5;
-1,11461009992426E-5;
-8,94767970717258E-6;
-4,95564966168374E-6;
-1,39217792714052E-6;
3,73232065107044E-7;
6,66591102204181E-7;
9,39949353855645E-7;
2,32083457025084E-6;
4,56044658413169E-6;
6,3112314423212E-6;
6,48379136207852E-6;
5,43093734532353E-6;
4,78726737162001E-6;
5,95191176256185E-6;
8,47671558167138E-6;
9,87779951354078E-6;
7,30617643308188E-6;
-7,55972145402131E-8;
0,00932351283533489;
0,0226118818232165;
0,0163525124996216;
0,00941653510348787;
0,0121597095222856;
0,00702260215212629;
0,00563428669677723;
0,00458275245042273;
0,000841089092197085;
0,00103531005069458;
-0,00118385476784118;
-0,00198250035437313;
-0,0027972773616124;
-0,00454529070349871;
-0,004879797252804;
-0,00584657465141178;
-0,00592813753039241;
-0,00616732589996144;
-0,00698205112211669;
-0,00791963020956198;
-0,0093616877647583;
-0,0102668392045557;
-0,0105459055596203;
-0,0101311078721819;
-0,00922106762878752;
-0,00843554540682826;
-0,00783163959606359;
-0,00745788777134233;
-0,00704771083430412;
-0,00641525408178016;
-0,00566722837809449;
-0,00494650654174832;
-0,00444050763990784;
-0,00407999429231603;
-0,00365409108159375;
-0,00301453371471381;
-0,00221147344832808;
-0,00155344875524078;
-0,0013461744489755;
-0,00166321924407648;
-0,00224075054672077;
-0,00261578565691577;
-0,00243980704503228;
-0,00168452000942845;
-0,000641101858791971;
0,00031003679372201;
0,000961854481825561;
0,00137501479238878;
0,00176519994203582;
0,00228219349871983;
0,00288312583376441;
0,00339206804792138;
0,00367954258798955;
0,00379697523548558;
0,00393612890862358;
0,0042475165641461;
0,00467364560030605;
0,00495171035177238;
0,00480286293463957;
0,00416480637536371;
0,0032816777995159;
0,00256885070871931;
0,00234670412287289;
0,00264035662765848;
0,00319049284653961;
0,00365763363404292;
0,00385641418718401;
0,00384467165887382;
0,00381707960334314;
0,0039100642380231;
0,00408660526211101;
0,00418979836133343;
0,00410518633036593;
0,00387975145578575;
0,00368650843913113;
0,00366105586021649;
0,0037524478811114;
0,0037261707761192;
0,00333329725107486;
0,00251886268758111;
0,00150166576525542;
0,000653152778829042;
0,000259506368333034;
0,000342898668010451;
0,000671672695206098;
0,000942816114634037;
0,000990958343431698;
0,000867559117581848;
0,000745819479280404;
0,000746860755509538;
0,000837263958420622;
0,000876970811549337;
0,000763782246208315;
0,000539048648422244;
0,000356007953658612;
0,000334469155930956;
0,000428511722087297;
0,00042938804788984;
0,000115787724930471;
-0,000561427302746918;
-0,00140878546291821;
-0,002097843049373;
-0,0023760021919514;
-0,00222455538983886;
-0,00184931607140524;
-0,00151895558380131;
-0,00138022530099431;
-0,00138820198830906;
-0,00139052939966823;
-0,00128096311700281;
-0,00108966369572101;
-0,000940747982270447;
-0,000924809582833207;
-0,00100588480758547;
-0,00104953130007881;
-0,000950857781236172;
-0,000750836622192644;
-0,00063351119158542;
-0,000793720479045691;
-0,00127482793805625;
-0,00190713438954564;
-0,00240267612884572;
-0,00254031630898937;
-0,00230418161590081;
-0,00187511811158611;
-0,00148879225992682;
-0,00127386123233122;
-0,00119112196287407;
-0,00110745271361653;
-0,000930166169418276;
-0,000685815813635279;
-0,00048293041922819;
-0,000400627094358701;
-0,000407517162302635;
-0,000386378716495434;
-0,000245865600069827;
-2,17586739052288E-5;
0,000125689582931508;
2,70562052942874E-5;
-0,000355131576137797;
-0,000873105179706454;
-0,00127653172185934;
-0,00137339412735268;
-0,00115001676280497;
-0,000763341365801856;
-0,000417628146375729;
-0,000224176308999396;
-0,000148803966041716;
-7,6096074488833E-5;
7,42508354871448E-5;
0,000279375525434994;
0,000445637634658847;
0,000504922148118122;
0,000484567089514947;
0,000485900603104662;
0,000587809820570929;
0,000759560108919861;
0,000863295103828423;
0,000753460626204639;
0,000398181234837186;
-7,51605452313182E-5;
-0,000451256395293855;
-0,000565158062626003;
-0,000405157239405277;
-0,00010586223570461;
0,000157746504919003;
0,000290528588098873;
0,000321973011501949;
0,000350996259054249;
0,000446355889057802;
0,000588582786185305;
0,000697812939199701;
0,00071607408012069;
0,000666856182123523;
0,000636647404754757;
0,000692687468070737;
0,00080882589948747;
0,000867855300466845;
0,000746206809223101;
0,000417045019713656;
-1,12653247475655E-5;
-0,000355961216833092;
-0,000477253114744458;
-0,000365364914232224;
-0,000134382043007776;
6,76331824362214E-5;
0,000160317729256864;
0,000168679572404212;
0,000176267943451586;
0,000241056205239483;
0,000346572682131952;
0,000425517860829951;
0,000429126963816718;
0,000377209637333946;
