1,00674932492164E-12;
5,55305974440569E-13;
1,24103524523398E-12;
1,38177530607852E-12;
5,45245184983764E-13;
7,74505049329177E-13;
2,78979927829534E-13;
-4,416322223799E-13;
4,18067516810239E-13;
7,73922601607903E-13;
-3,19971066645572E-14;
5,2673355139692E-13;
6,17590021225193E-13;
-3,26739257410946E-13;
5,29540901357098E-13;
3,89794497338922E-13;
-4,22384987242946E-14;
4,68718268685286E-13;
-6,07150905564353E-13;
-2,98885641843011E-13;
5,59721464371836E-13;
3,06239349963115E-13;
8,78912095068467E-13;
1,17569323586703E-12;
1,56538159828342E-12;
1,2467312152797E-12;
-9,99421566889638E-14;
1,57459395041012E-13;
7,17418883232219E-13;
9,01762266464929E-13;
1,04376788299975E-12;
7,20934593863693E-14;
-1,18309817145795E-13;
5,03646631178351E-13;
2,27777882795134E-13;
2,87710331904872E-13;
5,18220138821515E-13;
-1,74234653680648E-13;
-1,16480211098137E-13;
4,2027478713972E-13;
1,60155363563307E-13;
6,21833923276422E-13;
6,2351669586699E-13;
1,94515637235857E-13;
8,39604982813511E-13;
5,073939681739E-13;
5,14104112577466E-13;
1,00826333380777E-12;
-1,11190149539392E-13;
-2,19885711141742E-13;
4,36303677471904E-13;
2,79215073982825E-14;
5,90485097711847E-14;
1,48135691675032E-13;
-1,86003690182743E-13;
-9,22808396439113E-14;
3,64458283717917E-13;
3,02241506119945E-13;
8,639710521211E-14;
5,38109133005844E-13;
-5,92609704927751E-14;
-9,15455163625041E-14;
1,12579034031177E-12;
7,3214549082669E-13;
8,67307518623477E-13;
1,18797964198645E-12;
3,55355209207521E-13;
8,77832796163455E-13;
1,31544482287066E-12;
6,6956456649868E-13;
4,58695081369438E-13;
3,72971338924477E-13;
9,51553884375181E-14;
-1,04105825548052E-13;
3,91782432443464E-13;
5,78196800474505E-13;
-9,39220813950623E-14;
-7,71924847938689E-14;
8,03662504597561E-14;
-1,54633551343263E-13;
-1,35791932193872E-13;
2,58740098101021E-13;
-3,06521104010642E-13;
-9,03622907988846E-13;
1,06286982976715E-12;
1,38748853036112E-12;
-5,55066108911736E-13;
3,44428032613349E-13;
7,09828572421674E-13;
-3,46002038115901E-13;
6,1577033413923E-13;
6,21150127839236E-13;
-8,16546724238211E-14;
-3,66061827110959E-14;
-4,32923724536352E-14;
7,23496101601545E-13;
3,57964794850258E-13;
-2,05562425242019E-13;
6,27189441350218E-13;
-2,30531146340291E-13;
-7,65141329608893E-13;
3,87331514087043E-13;
6,64679099670549E-13;
1,14842960975602E-12;
1,34105841771199E-12;
7,40380901689008E-13;
3,02140813315896E-13;
8,07234579809847E-13;
1,39384952919195E-12;
1,51819438193239E-13;
2,8468718607407E-14;
9,20541161393195E-13;
8,46302884746894E-13;
3,64247832448687E-13;
-4,8258989378896E-13;
-3,29730637481708E-13;
-2,20326594733539E-13;
-2,22443682888354E-13;
3,4177401900754E-13;
6,06209741382948E-13;
6,13118768714025E-13;
-6,85829239254566E-14;
9,36491029150191E-14;
7,10647223875971E-14;
-7,77118649573653E-14;
1,24575414635632E-12;
9,62937185169919E-13;
1,3115974776073E-13;
5,83808786140043E-13;
7,53037673133445E-13;
6,26874828814317E-13;
7,3170558420823E-13;
3,06198650199281E-13;
-8,39481610230632E-15;
4,97803829053683E-13;
5,24133972510251E-13;
7,71535719791242E-13;
1,02622472235456E-12;
6,44112467012341E-13;
1,33006344299408E-13;
-3,31237765074644E-13;
-6,44559815000997E-14;
3,90024925913228E-13;
4,03754906119273E-13;
1,86599031011497E-13;
-1,0468104073595E-13;
-1,45978273307105E-13;
5,46358270669816E-13;
1,07221516954592E-12;
3,61895686990461E-14;
-6,43114455096732E-14;
1,09246423312701E-12;
1,68661584948715E-13;
1,54709273709984E-13;
1,41201062050556E-12;
6,64661944852273E-13;
3,30960561770574E-13;
2,65658310952996E-13;
-1,61085597611139E-13;
1,26276430714404E-13;
-1,55258485684575E-14;
2,213380771406E-14;
7,11089154278595E-13;
9,28160627091154E-13;
1,50837516964255E-13;
-1,05726993566989E-13;
8,32921157766614E-13;
5,50046779892751E-13;
-1,55650757513974E-14;
1,89300984561754E-13;
-1,58340138063103E-13;
2,5160756624445E-13;
6,40879761552828E-13;
5,12975530745191E-13;
4,42322599817631E-13;
6,20450033891271E-14;
7,25473482451336E-13;
2,22401536640663E-13;
-3,88362055089663E-13;
1,02997841199196E-12;
5,72853376236469E-13;
-3,42355315928275E-13;
6,78294947769855E-14;
2,53588728662245E-13;
5,39323270335203E-13;
7,94094137640318E-13;
6,59524153918826E-13;
6,26163518515446E-14;
-1,58699128487233E-14;
3,73167170769563E-13;
3,36642973515208E-13;
5,92869828359319E-13;
5,99979945200194E-13;
3,79262951218171E-13;
6,42406494548725E-13;
3,47432279759529E-13;
1,86584279826837E-13;
4,04295853124504E-13;
6,31057545317894E-13;
8,39586754270854E-13;
-1,66325714280721E-13;
4,04474411787982E-14;
9,84576309447781E-13;
4,21645900479309E-16;
3,12974013169474E-13;
1,28440871266077E-12;
7,31711179990759E-13;
2,58372875671796E-13;
1,44359327748951E-13;
1,82955012680664E-13;
-5,56336268329868E-14;
3,41556907229128E-13;
1,18085301022745E-12;
4,73324401677231E-13;
2,06144611564954E-13;
5,75720137600618E-13;
-1,18983775315349E-13;
5,62189282384221E-14;
3,76003125027748E-13;
-6,46301405822255E-14;
3,53404163809402E-13;
6,52873256714921E-13;
4,86791311136691E-13;
6,42256135098434E-13;
2,74328576138581E-14;
-4,85646680755099E-13;
3,53931310957978E-13;
3,65151702817029E-13;
7,74385967861124E-13;
1,62061222905104E-12;
4,28055413673061E-13;
5,05170303675611E-13;
1,10115613349244E-12;
2,16722238910564E-13;
7,21208753211676E-13;
1,28604784287393E-12;
5,47035482930536E-13;
5,37985351055876E-13;
9,33403899090521E-13;
2,49382767584543E-13;
1,08568841915946E-13;
6,63935852424164E-13;
5,52512731355984E-13;
2,20700078292543E-13;
-6,14812362492463E-13;
-2,62652984885424E-14;
8,67398802531522E-13;
-1,52278539094743E-13;
-5,32886645135756E-14;
5,33608484217433E-13;
5,6584460264472E-13;
7,51517674348008E-13;
5,53270963853342E-13;
4,6924990742731E-13;
2,75838388490819E-13;
4,99843531251782E-13;
7,7088748474715E-13;
4,32621546713321E-13;
1,02561124120822E-12;
7,1191406271592E-13;
-1,75229395127272E-14;
7,11751690089554E-13;
-9,32370853520617E-14;
-7,97034687486392E-14;
1,03883758162125E-12;
-2,65809424876832E-13;
-9,63828871544488E-14;
1,20861094991211E-12;
3,43653236383863E-13;
4,71698902346658E-14;
8,03207347685284E-13;
7,44974487618901E-13;
6,40412775222456E-13;
1,13743504462647E-12;
1,29382733326349E-12;
2,27209616147491E-13;
-2,63692617056847E-13;
3,29619928339974E-13;
2,05010352051845E-13;
4,42361674571455E-13;
-2,13379000864443E-13;
-9,91132160571936E-13;
-2,41417879638929E-14;
-4,68700328562117E-13;
-2,23761562389645E-13;
7,23859504288263E-13;
6,04751685406478E-14;
3,00739941187755E-13;
2,09541866003372E-13;
9,20312825565853E-14;
7,72936478356369E-13;
6,26506076415206E-13;
1,16302495042881E-14;
-4,15171289283428E-13;
8,13744185961396E-13;
1,46605290994881E-12;
7,896343893245E-13;
1,03493399720742E-12;
6,86552647597409E-13;
1,16150825878211E-13;
3,08480378051241E-13;
4,91138140602524E-14;
-1,70243162240634E-13;
7,42670350855653E-13;
5,85877960370231E-13;
-3,98249024867194E-13;
-1,41449162526356E-13;
1,8960474841792E-13;
5,39444051818925E-13;
6,10238237501878E-13;
6,76010178125061E-13;
8,07915719221833E-13;
7,08227468255225E-13;
5,63949644380475E-13;
6,96136712598289E-13;
1,43885111576432E-12;
8,76846645470721E-13;
5,525611751168E-13;
5,90833264328054E-13;
-3,05739850746418E-13;
-1,48155652220037E-13;
3,81157780195322E-13;
7,71926076236757E-13;
1,79507327864211E-13;
-6,28001585544782E-13;
4,89754438471444E-13;
8,09638536148957E-13;
1,71521631264809E-16;
1,66503466591843E-13;
8,07754997294491E-13;
5,64800259461076E-13;
-1,21565669642065E-13;
5,79745166518351E-13;
4,33587357965781E-13;
-4,70148178840128E-14;
5,55818044876378E-13;
1,99271530715879E-13;
1,0632470678901E-12;
1,75905688131487E-12;
1,11866129503637E-12;
6,38795847587687E-13;
-4,46733134083896E-13;
-1,25865111865602E-16;
2,53032176893164E-13;
-1,92563887292879E-13;
9,38642806021472E-13;
8,71993957489208E-13;
-4,93061023227306E-15;
1,81520718371092E-13;
4,53050979738839E-13;
8,79390755572816E-13;
1,18427939115208E-12;
7,43612737760432E-13;
5,62900689637683E-13;
4,64251901990801E-13;
-8,38973751077346E-14;
1,30787965359201E-13;
3,72667656905958E-13;
-1,69300563338546E-13;
3,83079124214652E-13;
1,30696874324946E-12;
5,49606661134095E-13;
5,94034263823848E-14;
4,84819421458792E-13;
1,46848252626051E-13;
-1,06082058376316E-13;
2,45375165077006E-13;
8,93378546122462E-13;
9,05827927719965E-13;
2,39426929110753E-13;
3,94962677060204E-13;
3,49007805761584E-13;
5,68128846181243E-13;
8,96103091001253E-13;
4,03675929852664E-13;
6,95468367473183E-13;
8,38884392283642E-13;
6,30040152044838E-13;
6,79360476618877E-13;
3,20647818968783E-13;
9,46951049459649E-14;
-2,82429459824233E-13;
-9,20928312430929E-13;
-1,58137599186591E-13;
4,33809801369104E-13;
9,26275269562331E-14;
9,5727055857404E-13;
7,97818990698203E-13;
1,22929850876847E-13;
3,65255881719493E-13;
2,38334523369988E-14;
6,92767533131422E-13;
1,08043593061242E-12;
5,98667400085438E-13;
8,24788912074248E-13;
3,01516943298396E-13;
3,16035612145815E-13;
7,03885463399732E-13;
-1,37715257179144E-13;
3,5893819824576E-13;
8,93891846703312E-13;
-4,2848598077404E-13;
-3,19468692229092E-13;
6,33654152930593E-13;
4,68907880174251E-13;
7,71056603961326E-13;
4,36963842734596E-13;
-8,07563510813271E-14;
7,15781843523009E-13;
5,11458820612003E-13;
-3,34478323622345E-14;
4,17973791766282E-14;
6,63958933626446E-13;
8,73791346335332E-13;
-4,55816937542601E-14;
1,60932385929434E-13;
1,36227376564641E-13;
3,85628604514403E-13;
1,35263310119272E-12;
5,36686706626588E-13;
2,07144820003375E-13;
3,2861071492177E-13;
5,4127553557297E-14;
-1,90435973413634E-14;
-5,22325234085057E-13;
-3,88213540348486E-13;
2,24998464641576E-14;
8,21194933273707E-13;
7,36816589998324E-13;
-2,75862536216433E-13;
4,31817716883187E-13;
1,89219536522005E-13;
2,05113029586343E-14;
1,35548746416917E-12;
5,92593721188295E-13;
2,71255922139102E-13;
1,71743172320057E-12;
1,39709018262359E-12;
1,44172585530481E-13;
-2,56352858335982E-13;
1,58052119992378E-13;
5,36798513147407E-13;
2,72067369608467E-13;
6,89720361335938E-13;
5,07237416734966E-13;
-5,27178359008321E-13;
7,54990390852169E-14;
4,65080692249107E-13;
8,13542945534075E-14;
2,33716860758274E-13;
3,73534628006521E-13;
7,61519124427035E-13;
7,33284017972057E-13;
2,1014017072132E-13;
4,49287825528471E-13;
8,18289802249351E-13;
6,42495410470857E-14;
-2,54285976412019E-13;
2,77351458205246E-13;
6,49507892493937E-13;
7,09161722406613E-13;
5,83597951748662E-15;
3,21535906170855E-13;
3,57656951668381E-13;
-4,16419727170412E-13;
-2,38123821506735E-13;
-1,68612138839135E-13;
7,38753827691156E-13;
6,86613654851617E-13;
6,67685806875723E-14;
7,85902917889442E-13;
6,68674369907169E-14;
-4,75900824286842E-13;
-2,98520539581925E-15;
-2,80983675356049E-14;
9,15526683933735E-14;
1,70156946694221E-13;
7,70301621089338E-13;
1,41572412226896E-12;
5,89956216262887E-13;
2,39869445419207E-13;
8,12297675438663E-13;
4,18131107932509E-13;
7,1598431733784E-14;
-2,32903075771788E-14;
1,68314967205393E-13;
1,1462568772454E-12;
7,52647617242953E-13;
-5,64168348554884E-13;
-2,25928059902657E-13;
5,12629826290966E-13;
7,25829570393665E-13;
1,03117850151617E-12;
2,07388601565872E-13;
1,07914417774337E-13;
5,51342496702205E-13;
-8,12359427966714E-14;
5,0070613928323E-13;
5,18561794764533E-13;
2,7382827531443E-13;
4,98893314675862E-13;
-2,69094199782837E-13;
2,18131633284648E-13;
3,11308034797236E-13;
1,04514527319382E-13;
9,18380434401885E-13;
3,53067652633539E-13;
4,65125132097002E-13;
6,18644024793559E-13;
7,2831188806449E-14;
8,75000192233712E-13;
6,18616119367933E-13;
5,71421073474105E-14;
8,66352599638457E-13;
6,79793444216173E-13;
-9,45050797503725E-14;
3,55554237477102E-13;
4,78345988969217E-13;
1,25712365614526E-13;
2,33594192883946E-13;
5,65795879163346E-13;
5,52597489966501E-13;
6,101065316494E-14;
3,36139559100613E-13;
-7,19750937020401E-14;
-6,52975696353497E-13;
-1,31336238770462E-13;
-2,08490897833602E-13;
5,55683497805811E-13;
1,31317142857657E-12;
2,73610331742271E-13;
7,76566741816493E-14;
5,59829990273143E-13;
7,60453282751973E-13;
4,97231625018737E-13;
-2,06355781827584E-13;
6,69428368836522E-14;
2,31092286180008E-13;
6,59492495857009E-13;
1,05927429559261E-12;
6,28751873287602E-13;
5,29469348475899E-13;
-3,24989778526726E-13;
-2,78029232707976E-13;
6,05529956587359E-13;
4,1327489205991E-13;
9,40565417020037E-13;
6,95967089951814E-13;
-5,64712606348439E-13;
-1,23604782063756E-13;
4,90066957658727E-13;
4,7250242762236E-13;
7,27992215062897E-13;
8,18029423995632E-13;
8,12898889457661E-13;
1,69021255859147E-13;
-2,6676493949692E-13;
3,53220744123924E-13;
4,8690899416956E-14;
-1,42458221011551E-13;
4,23913279523918E-13;
-1,84399351737955E-13;
-1,62182129878558E-13;
3,63142046873406E-13;
-1,00664904858222E-14;
1,9919931506717E-13;
5,93165886694373E-13;
6,35640384977078E-13;
8,78671321730486E-14;
5,06524633826078E-14;
9,69047894734615E-13;
9,50712891133247E-13;
6,08162062845881E-13;
1,61001154220265E-13;
2,70227481817094E-13;
6,61499623449842E-13;
3,4108806346074E-13;
7,13173279324429E-13;
4,93654762954165E-13;
4,30163850643878E-13;
6,97756866144831E-13;
9,80224258977339E-14;
6,92881589765975E-13;
8,19424203000921E-13;
4,32923521688738E-13;
4,71913127548828E-13;
1,67658073707176E-13;
9,29810380110717E-13;
5,01714788305394E-13;
-5,98155514483678E-13;
2,63760954297783E-13;
2,00504507568279E-13;
-4,53184484790607E-14;
7,43585495178582E-13;
4,50949139524726E-13;
2,42145676436929E-13;
3,02692130720294E-13;
-2,07056278264126E-13;
3,18562730014112E-13;
7,76354647169167E-13;
3,95104490317163E-13;
6,01619190005445E-13;
9,0728374348475E-13;
1,16558559930078E-12;
2,61629631527112E-13;
-3,05967666499276E-13;
3,90646677986054E-13;
-5,32801870202262E-14;
5,29498678719758E-13;
1,0263268287478E-12;
3,09923083222005E-13;
1,47371566729724E-13;
2,64225260803249E-13;
1,12029712894736E-12;
4,25263091573749E-13;
2,72034792517289E-14;
1,32813355910706E-12;
6,53770207714582E-13;
-2,93782487178679E-13;
-1,47992237090765E-13;
4,53458047595433E-13;
5,20550003651938E-13;
-5,83665612386707E-14;
3,6759121441583E-13;
3,69191593757335E-13;
5,44317245572361E-14;
-4,34768355473332E-14;
-3,91121793302331E-13;
2,74251940417054E-13;
5,62373827629983E-13;
1,73641463784375E-13;
6,21574430152926E-13;
6,42635183286292E-13;
4,41639380781849E-13;
5,28417122507789E-13;
2,27984143663423E-13;
6,07195877810012E-13;
4,78752081694985E-13;
-3,6977928986852E-13;
4,03788093414982E-13;
1,07296132792158E-12;
3,11455308005972E-13;
-1,72244545250246E-13;
3,31427773060252E-13;
6,72889546845524E-13;
1,33481827513435E-14;
1,03840102770126E-13;
9,2416530923677E-13;
4,20062785889201E-13;
-1,90137420720262E-13;
-1,7891952964961E-13;
-6,06111117770561E-14;
7,54935016238068E-13;
8,5955751874342E-13;
1,32067154062475E-13;
-8,69791089517063E-14;
2,79875833586761E-13;
9,99521591653378E-13;
6,30339948432525E-13;
-1,20124753899575E-13;
1,53057594244233E-13;
6,499944517817E-13;
1,11169430294707E-12;
6,16229716895718E-13;
-3,82704439048117E-13;
1,71979692934309E-13;
7,31648380950612E-13;
4,39402333550314E-13;
5,51861594608961E-13;
1,82172785571198E-13;
-1,2132565516184E-13;
4,20932878030266E-13;
7,08578535820639E-13;
7,1208539243774E-13;
3,35042874266189E-13;
3,50424291636043E-14;
7,39624289231884E-13;
9,21963823883607E-13;
-4,58657196685718E-14;
-3,59989733749995E-13;
-7,86069600914337E-14;
1,78850056527383E-13;
-5,38695751369105E-14;
-2,8170824074421E-13;
2,81514896426095E-13;
3,92012559942211E-13;
6,85487633776027E-13;
7,63900628051043E-13;
2,58978756803562E-13;
4,76550903396167E-13;
2,27004971433665E-13;
-2,04565380497755E-13;
3,00121336577544E-13;
1,00524035263355E-12;
7,28909835202976E-13;
2,90912554862705E-13;
1,1085520293217E-12;
3,30600592144415E-13;
-8,25325948017947E-13;
5,50126420597284E-13;
5,21583171248809E-13;
6,42675857388411E-14;
6,75739148545094E-13;
1,22173815125821E-13;
4,28324561110041E-13;
6,9341012788225E-13;
-1,85731842512155E-13;
3,95476421867431E-13;
6,42262537310983E-13;
5,26281261531214E-14;
6,13588497335727E-13;
4,42375249000554E-13;
-9,83877156233789E-14;
3,27528177189813E-13;
1,08543001017104E-12;
1,28511088773739E-12;
3,93637774339066E-13;
3,22799172361817E-13;
9,51311993509834E-13;
7,08906991247819E-13;
-1,7526558967613E-14;
-4,73903953386343E-13;
2,55306636853196E-13;
1,09609072872493E-12;
6,37017932940935E-13;
4,02143372243884E-14;
-1,45224191441139E-13;
1,22252641362421E-13;
5,84028751904298E-13;
6,60832180967913E-13;
4,47698291812634E-13;
6,3783002478727E-13;
1,00508338479486E-12;
1,30023809674192E-13;
-6,30370858722641E-14;
2,5603216609976E-13;
-4,11211219448227E-13;
3,37354740760845E-14;
9,26649675776191E-13;
5,32704361737586E-13;
1,12646819470957E-13;
2,32746961322148E-13;
-1,5126175888726E-13;
3,19604920237785E-13;
9,40745571400974E-13;
4,00005227703358E-13;
5,28132095521908E-14;
3,55264194416802E-13;
6,5065861458572E-13;
1,38711479696808E-13;
5,21440208938822E-13;
8,45943119129514E-15;
-6,81895010017218E-13;
3,18205436437852E-13;
-6,08954399552565E-14;
2,96067588655137E-13;
3,98708225141607E-13;
1,41794462386491E-13;
1,3251096123353E-12;
5,79815319644282E-13;
-5,36975361432621E-14;
1,97038769368101E-13;
-5,95790949170394E-14;
5,93754985484369E-13;
2,51078049769874E-13;
-8,06416677727604E-13;
3,35926941857247E-13;
9,17542123208787E-13;
-2,32796577891316E-13;
1,15464618575783E-12;
1,42168410632097E-12;
-6,03365243164505E-13;
7,29847437970186E-13;
1,00961268166406E-12;
7,58302730523013E-14;
5,3511698577616E-13;
2,44782855180323E-13;
8,88301092477897E-13;
9,22356614366884E-13;
6,89439681059646E-13;
6,50005108135309E-13;
8,97260859172659E-14;
-1,65290008922665E-13;
-5,6497332098168E-13;
4,31775720113022E-13;
5,51059042387552E-13;
3,04632717042119E-13;
8,13564604170407E-13;
-6,62970238991873E-15;
2,06360387747374E-13;
7,83136850186353E-13;
6,68454386216836E-14;
-1,61721248937563E-13;
5,77771855147991E-13;
5,429811844184E-13;
1,50472856451555E-14;
-3,36302990276299E-13;
-3,37791412406519E-13;
8,09345333340138E-13;
9,73194277257996E-13;
2,27134011855307E-13;
2,19510024699463E-13;
8,12869749781959E-13;
1,13113318889673E-12;
8,34163148666982E-13;
8,04766753859371E-13;
7,53357312150036E-13;
7,60902227860931E-13;
7,08834082337404E-14;
2,11350256022253E-13;
1,15676981067822E-12;
3,64585916996294E-13;
2,08290152042757E-13;
1,57550948832109E-13;
3,38916676252273E-13;
6,21450119235869E-13;
-2,92250677175585E-14;
2,13411210142554E-13;
-3,57740141520249E-13;
7,07708483232548E-15;
9,39649671715613E-13;
2,50057279114954E-13;
1,71401769888997E-13;
3,58377242016053E-13;
3,87374467797037E-13;
3,57593184782732E-14;
6,56553257035247E-13;
1,22398289866448E-12;
-3,74587095812171E-14;
2,77405504570714E-13;
2,8246289892001E-13;
-3,60254740483456E-13;
7,90371882993908E-13;
1,22569017266344E-14;
-1,36214800410078E-13;
1,07348183735076E-12;
3,25231146761658E-13;
1,04365343682897E-12;
1,02414876821398E-12;
-5,58690610358024E-14;
6,65257490460007E-13;
2,94139715326715E-13;
4,91422083962291E-13;
1,1674675411531E-12;
-1,00223856704376E-13;
-2,70098353945209E-13;
2,63803386130773E-13;
-4,417021554982E-13;
1,72294431157772E-13;
1,08988831154963E-12;
-7,65728841762542E-14;
-2,25662218299034E-13;
5,63316269522143E-13;
1,24650258876571E-13;
2,31566071968342E-13;
4,52972567852691E-13;
1,86912902961775E-13;
5,4457908059505E-13;
1,20174589367619E-12;
1,28575453376758E-12;
6,43711638307751E-13;
4,90532449142008E-13;
6,1493914204952E-13;
8,66092622150513E-13;
4,61736417297897E-13;
-1,44270477349086E-13;
7,2617908252854E-13;
4,51773962218155E-13;
-1,73315627802518E-13;
4,0807440450277E-13;
6,32420137199704E-13;
9,26577225112047E-14;
-1,9995403862146E-13;
6,78496011430923E-13;
8,17764315472393E-13;
3,06989224548483E-13;
-2,45298308136355E-13;
-4,10470797856629E-13;
1,03560234833977E-13;
-1,02807823228436E-13;
4,01102532912848E-13;
7,77142868204841E-13;
8,50247554864868E-14;
3,64024744677519E-13;
8,07004665664793E-13;
7,6599685007063E-13;
2,00312004176932E-13;
-1,21801854210355E-13;
5,96590577639048E-13;
2,2848891631589E-13;
-4,49565954173055E-13;
-1,82949753475196E-14;
3,33456425272185E-13;
2,38393209216892E-13;
-6,62620064160814E-14;
6,43294638562259E-13;
1,04532754812537E-12;
4,9984167173276E-13;
6,98565365205827E-13;
4,85252447439433E-13;
0,00933343404662125;
0,0226297298257897;
0,0163727372763458;
0,00943309617793802;
0,0121693917863888;
0,00702616733134177;
0,00563481713018237;
0,00458271005369356;
0,0008405000906816;
0,0010323923730459;
-0,00119043949463746;
-0,00199195265782659;
-0,00280713693532557;
-0,0045536813199541;
-0,00488732499996742;
-0,00585590070846019;
-0,00594121727328369;
-0,00618248832299767;
-0,00699357666729701;
-0,00792070354667479;
-0,00934888799420183;
-0,010242888711389;
-0,010518499394042;
-0,0101085231427657;
-0,00920766466645005;
-0,00843029680152238;
-0,00783043416851658;
-0,00745747149699095;
-0,0070480532787474;
-0,0064186770690438;
-0,00567545363240488;
-0,00495848727229787;
-0,00445308141436722;
-0,00409076741147198;
-0,00366382586805948;
-0,0030265674370913;
-0,00222823254435814;
-0,00157282907393441;
-0,00136107645970485;
-0,00166524557413457;
-0,00222572542157879;
-0,00258706177258332;
-0,00240676232122987;
-0,00165718471545001;
-0,000624734014663499;
0,000316669697854818;
0,000963663523751467;
0,0013758688691352;
0,00176513174833488;
0,00227846193187628;
0,00287371183675654;
0,00337820905262997;
0,00366494227497193;
0,00378442559150716;
0,00392474763674807;
0,00423344806259527;
0,00465410314793441;
0,00492912948545866;
0,00478539611556677;
0,00416205590807255;
0,00329839411591954;
0,00260120493676642;
0,0023840467591728;
0,0026713344716362;
0,00320917063055992;
0,00366539555852649;
0,0038587682677359;
0,00384594464805448;
0,00381730502371964;
0,00390618887428719;
0,0040763893073531;
0,00417461995737834;
0,0040891481632635;
0,00386593851134432;
0,00367395077460065;
0,00364551935649796;
0,00373088376150246;
0,00370125625876191;
0,00331394893893992;
0,00251555483951431;
0,00151956437349097;
0,000688088782622613;
0,000299921507155924;
0,000376496335461377;
0,000692035009956806;
0,000951432382381015;
0,000993755271000059;
0,000869183490268271;
0,00074630464982135;
0,000742935836409556;
0,000826535917869303;
0,000860914881475751;
0,000746775454466193;
0,000524376747034624;
0,00034264181494965;
0,000317918804714839;
0,000405552501708779;
0,000402860404387103;
9,51196661180513E-5;
-0,000565180949010113;
-0,0107236164879091;
-0,0246910037827988;
-0,0187063544874493;
-0,0116223592941983;
-0,0139972387359671;
-0,00853592289747962;
-0,00701192127231909;
-0,00596902286069688;
-0,00223033989615758;
-0,00231727179423897;
8,97661344825429E-5;
0,00103463609706188;
0,00186474291528167;
0,00353260259836369;
0,00382392664444157;
0,00488786326938532;
0,00516656254272001;
0,00552145619937003;
0,00617835279665831;
0,00664177265157884;
0,00746064874630169;
0,00787759597662216;
0,00802158625574696;
0,00784053012519572;
0,00735462448661728;
0,00695105593292212;
0,00655991790463522;
0,00626843174517129;
0,00594145075913562;
0,00548465812342727;
0,0049785507567437;
0,00445879659192862;
0,00403463682769323;
0,00366783364137211;
0,00326335428937018;
0,0027632349315392;
0,00218226985163944;
0,00167054996129708;
0,00136622431355604;
0,00130576063908157;
0,00137147127005283;
0,00134804346753916;
0,00107699073147033;
0,000543583800710229;
-0,000116334502576046;
-0,000724583160921179;
-0,0011843470401508;
-0,00152244936040804;
-0,00184024513570922;
-0,00220794459647556;
-0,00260531817115069;
-0,00294924153605911;
-0,003177768623024;
-0,00331523397766858;
-0,00345292230424764;
-0,00366309226859404;
-0,00391872199524429;
-0,00409377840158212;
-0,00405387359003095;
-0,00376838329998384;
-0,00335502044679706;
-0,00301538525452401;
-0,00290602835874231;
-0,00304040644681755;
-0,00329290963338668;
-0,00349792677231808;
-0,0035646612496482;
-0,00352164921137943;
-0,00346521642126693;
-0,0034634000661938;
-0,00349852997940165;
-0,00349315078211734;
-0,00339050036380297;
-0,00321419526747981;
-0,00305115661479198;
-0,00297002122004534;
-0,00294586743893267;
-0,00286092459300349;
-0,00258939496242558;
-0,0021030915527153;
-0,001512836128141;
-0,00100788060557934;
-0,000734996238045019;
-0,000706570812890281;
-0,000804732263039142;
-0,000874202719528877;
-0,000829829986554201;
-0,000698122803043185;
-0,000568858967972541;
-0,000505246883431996;
-0,0004903074404382;
-0,000451225007878035;
-0,000334548728053194;
-0,000161839329387005;
-1,36443028681565E-5;
4,66544122101706E-5;
4,29415637780284E-5;
8,55694750779031E-5;
0,000292250952347502;
0,000689730464529702;
0,00117541312210095;
0,0015738887588306;
0,00174942933564795;
0,00169131747926542;
0,00150982607083365;
0,00134983223754644;
0,00129097283887779;
0,0013092095384198;
0,00132185063142901;
0,00127090372511292;
0,0011727145698496;
0,001095303654061;
0,00108867139070849;
0,00113332918280432;
0,00115522383476951;
0,00109623070254842;
0,000978922469061472;
0,000905712284054261;
0,000985677447576878;
0,00124377308541761;
0,00158554303214819;
0,00184943190515358;
0,00191061458718817;
0,00175959518901026;
0,00149834145326411;
0,00126056787023419;
0,00111977160146725;
0,00105394594265314;
0,000987128154467318;
0,000866119300473398;
0,000706078702555841;
0,000569606171135845;
0,000502666785050105;
0,000487363045488957;
0,000455721296936524;
0,000354429512360815;
0,000204210373732441;
9,89339125353882E-5;
0,000138466950534069;
0,000345511935879623;
0,000633403626882589;
0,000854135512582879;
0,000893432898081455;
0,000742587387245926;
0,000494783542524198;
0,000272121619568195;
0,000141579696053232;
8,28694878749429E-5;
2,6472244106739E-5;
-7,63033802706124E-5;
-0,000211769231544653;
-0,000323008905050868;
-0,00036832170623826;
-0,000364219264705154;
-0,000372793465965786;
-0,000442732977533808;
-0,000555323120103116;
-0,000625342764848243;
-0,000562198638121414;
-0,000345503529928771;
-5,42358162650372E-5;
0,000177000838859717;
0,000244345290806015;
0,000139815373297801;
-5,21469024522769E-5;
-0,000220953272465386;
-0,000306058212882433;
-0,00032601171692994;
-0,000343916846704548;
-0,00040396275772248;
-0,000493856149768989;
-0,000562215372955049;
-0,000571455608295107;
-0,000536624095740403;
-0,000513919677170484;
-0,000547380098021285;
-0,000620159082343812;
-0,000655416111234651;
-0,000571530062452644;
-0,000350239367605199;
-6,28363676576449E-5;
0,000169348862825272;
0,00025277955881962;
0,00018030240036928;
2,79291275356704E-5;
-0,000104873119111946;
-0,000163699952527997;
-0,000165257795586118;
-0,000166248195309969;
-0,000206336749494055;
-0,000274461381367076;
-0,000324502688638099;
-0,00032275122942282;
-0,000282699344055991;
-0,000254692679095269;
-0,000278135968776508;
-0,000337890838904272;
-0,000365144785697114;
-0,000286869560445083;
-8,67513113024757E-5;
0,000171472697558478;
0,000379420174519989;
0,000453623038429386;
0,000387792735205218;
0,000249849502612327;
0,000128576257912674;
7,25119560059599E-5;
6,67932636009321E-5;
6,09497578837675E-5;
1,97224792462072E-5;
-4,69756486559258E-5;
-9,80592001364508E-5;
-0,000103515482858633;
-7,53095230920147E-5;
-5,81340132709418E-5;
-8,69258274885875E-5;
-0,000148179527774369;
-0,000180784471830569;
-0,000119949453365281;
4,87826877987981E-5;
0,000268925661414816;
0,000444501442746388;
0,00050166940884918;
0,000434943445004476;
0,000304474202192862;
0,000188803011632834;
0,000130842823018474;
0,000117472225401034;
0,000104147790706078;
5,97871293466808E-5;
-6,82634188029708E-6;
-5,94403395500949E-5;
-7,1596313549915E-5;
-5,38344754583673E-5;
-4,54978422374128E-5;
-7,73087020624195E-5;
-0,000137355360065883;
-0,000171888970439305;
-0,000123980005264706;
1,90364533177474E-5;
0,000207530674254805;
0,000357263613297211;
0,000403486629810987;
0,000341428864947639;
0,000223832623609115;
0,000119498071462678;
6,59781531574117E-5;
5,17705302784163E-5;
3,79085639855285E-5;
-2,77342388566239E-6;
-6,25929167579046E-5;
-0,000109894616559306;
-0,000121603014634282;
-0,000106937320399429;
-0,000100217081848403;
-0,000128215597644675;
-0,000180549765905823;
-0,000210430678424946;
-0,000168350685221918;
-4,33440255232564E-5;
0,000121401740252073;
0,000252676818260754;
0,000294263639736329;
0,000242043414008672;
0,000141780417267241;
5,31144174744923E-5;
8,55972968884868E-6;
-1,87151199082831E-6;
-1,192061743034E-5;
-4,50877480193078E-5;
-9,47281471009484E-5;
-0,000133496091515643;
-0,000141483881171059;
-0,000126672695776233;
-0,000118681201666591;
-0,000140589989585818;
-0,000183445044809675;
-0,000206958180830549;
-0,000168546842105719;
-5,882134424159E-5;
8,50531663468462E-5;
0,000200162827773483;
0,000238248482149758;
0,000195800877527056;
0,00011208618579137;
3,82199086208132E-5;
2,0358893948686E-6;
-5,03339410253033E-6;
-1,18590257420877E-5;
-3,85248952972743E-5;
-7,93429337208443E-5;
-0,000110961931715808;
-0,000116404944810912;
-0,000102492315081146;
-9,44703955039322E-5;
-0,000111986229436945;
-0,000147403039786944;
-0,000166448210059934;
-0,000132942786140631;
-3,8942866969108E-5;
0,0094174082600604;
0,0228121611950338;
0,0165882740325442;
0,00961344523533143;
0,012279525726578;
0,00707430649998698;
0,00565270244374474;
0,00459483491241318;
0,000846987920009264;
0,00101643913146742;
-0,00124082705639867;
-0,00206909250263323;
-0,00288906355845998;
-0,00462417410523136;
-0,00495137984389928;
-0,00593499799403852;
-0,00605040987393235;
-0,00630808419622756;
-0,00709158510564262;
-0,00794051195310515;
-0,00926632412670909;
-0,010078399963106;
-0,0103266646437991;
-0,00994634320598879;
-0,00910437765153901;
-0,00837910364208249;
-0,00780496526465852;
-0,00743739444000392;
-0,00703328503597497;
-0,00642317501610922;
-0,00570916854969445;
-0,00501505682841647;
-0,00451432182587002;
-0,00414325735058039;
-0,00371168135858019;
-0,00308750439529236;
-0,00231464599679613;
-0,00167341372701937;
-0,00143959083804956;
-0,0016800308360158;
-0,00215688263159764;
-0,00245133743845338;
-0,00224888355266411;
-0,00152383257813867;
-0,000539836906024072;
0,000358661112172321;
0,000984277005053338;
0,00139169292343321;
0,00177624528300464;
0,00227352095725061;
0,00284464551563615;
0,00333020684198988;
0,0036127806492149;
0,00373900736385079;
0,00388276945364445;
0,00418061598959238;
0,00458043879128655;
0,00484378690975577;
0,00471761341362386;
0,00414539920987123;
0,00334889997456177;
0,0027054678797409;
0,002506233152735;
0,00277407588869828;
0,00327332734725675;
0,00369538694481836;
0,00387175236070962;
0,00385512905072774;
0,0038227556979008;
0,00389890416235047;
0,00404997848235233;
0,00413320426685454;
0,0040444256170776;
0,00382653243680349;
0,00363727161596567;
0,00360032983094973;
0,00366935784093946;
0,0036305992786668;
0,00325709695532956;
0,00249879619535059;
0,00155545169358836;
0,000766188462136002;
0,000392344977003509;
0,00045419456641097;
0,000740138009047433;
0,000973334358864167;
0,00100269267070021;
0,00087532695714594;
0,000749692674051978;
0,000736642533425835;
0,00080565482070699;
0,000828599216995885;
0,00071196296461704;
0,000493643938021053;
0,000314020672972053;
0,000282880756668542;
0,000358174803034946;
0,000348601632018459;
5,12971439797323E-5;
-0,00057876351680089;
-0,0106975168158269;
-0,0246330284053273;
-0,018637347564182;
-0,0115639930867706;
-0,0139605997205074;
-0,00851852894455886;
-0,0070040147776091;
-0,00596312711863728;
-0,0022264441820941;
-0,00232046760834743;
7,58831983864044E-5;
0,00101236129208814;
0,00184057221727886;
0,00351130226374845;
0,00380407618663288;
0,00486332460093068;
0,00513309234965393;
0,00548297265005058;
0,00614721943776222;
0,00663207756909142;
0,00747909251587128;
0,00791868317343751;
0,00807067185031181;
0,00788243330537235;
0,00738159082791243;
0,00696477326754958;
0,00656709540532725;
0,00627418725649669;
0,00594577590191173;
0,00548407526753756;
0,00497061874359713;
0,0044450644255385;
0,00401946733079871;
0,00365441319691414;
0,00325074574274046;
0,00274739497430006;
0,00216042774662418;
0,0016452828141874;
0,00134557393603479;
0,00129882907211089;
0,00138256823109777;
0,00137368892690213;
0,00110794345467656;
0,000570321107963323;
-9,86597011051073E-5;
-0,000714966205529606;
-0,00117872217820971;
-0,00151774278865075;
-0,00183647696439858;
-0,00220718698337931;
-0,00260900623902763;
-0,00295646925173526;
-0,00318601846905209;
-0,00332268538130089;
-0,00346009168862421;
-0,00367220805554654;
-0,00393127903167854;
-0,00410835680173704;
-0,00406616435203773;
-0,00377359050004324;
-0,0033509000530483;
-0,00300368179261305;
-0,00289132640237994;
-0,00302735311219718;
-0,00328384539615098;
-0,00349243040849709;
-0,00356093638284764;
-0,00351837625964626;
-0,0034624241894626;
-0,00346195329778542;
-0,00349899977999833;
-0,00349518155223057;
-0,00339315543598944;
-0,00321682409177473;
-0,00305391646609692;
-0,00297358918600384;
-0,00295064848466886;
-0,00286648825119305;
-0,0025946208466289;
-0,0021068611406007;
-0,0015146716595164;
-0,00100805305387159;
-0,000734128672682041;
-0,000705162584334974;
-0,000802990956950077;
-0,000872200500955997;
-0,000827695694004072;
-0,000696024769561357;
-0,000566833568097926;
-0,000503136120520602;
-0,00048795106718176;
-0,000448733586264842;
-0,000332323246852791;
-0,000160219371191816;
-1,24855515818464E-5;
4,79824574693883E-5;
4,49517906604956E-5;
8,78572559405393E-5;
0,000293249366300504;
0,000687459831158777;
0,0105022949577895;
0,0241937466928523;
0,0181116742748228;
0,0111162801825676;
0,0136750250882891;
0,00837526477728344;
0,006926775424715;
0,00589321394385398;
0,00216391158025135;
0,00230613538082796;
-1,28366234788831E-5;
-0,000890210450995358;
-0,00171199174085634;
-0,00341500714317425;
-0,00372749083224624;
-0,00475407837433605;
-0,00495444757372185;
-0,00526777080374038;
-0,00600153081903046;
-0,00667774621777923;
-0,00777359420025894;
-0,00841116315911914;
-0,00862760895154043;
-0,00836482144514839;
-0,00771832729066981;
-0,00717266074720529;
-0,00671057981147565;
-0,00640285876078107;
-0,00605972046907275;
-0,00554910225660668;
-0,00496239695223864;
-0,00437919599062853;
-0,00394044731947933;
-0,0035949920704742;
-0,00320064954911397;
-0,00266303973900963;
-0,00201138645452106;
-0,00145938288531005;
-0,00121182606595018;
-0,00131931214834976;
-0,00160551772588554;
-0,00175694573971083;
-0,00154051958933209;
-0,000936791949659571;
-0,000142896515379233;
0,000584011127367;
0,00110451244185107;
0,00145880963288605;
0,00179242949286746;
0,00220601443414869;
0,00267050286759047;
0,00306739755010055;
0,00330930432370718;
0,00343100255491325;
0,00356162260550342;
0,00380255960785026;
0,00411518775151032;
0,00432264988686298;
0,00423747566777307;
0,0038179601922876;
0,00322864176496192;
0,00274919954221458;
0,00259528964727032;
0,00278394006958693;
0,00314089977839751;
0,0034381170894027;
0,0035512421483127;
0,00351943910225658;
0,00347382052917785;
0,00350630013197876;
0,00359223657420559;
0,00362647576274523;
0,00353241919294498;
0,00334190774416962;
0,00317137543362845;
0,00311207995525779;
0,00313002761689083;
0,00306805457064675;
0,00275940423700255;
0,00216752073752641;
0,00143948596407543;
0,000824666417057092;
0,000515113665733023;
0,000525765368271927;
0,000701391559044437;
0,000839009955880711;
0,000827970107826041;
0,000702945975126699;
0,000580135373194274;
0,000540781219506909;
0,000562582404130231;
0,00055184049301705;
0,000440244662284977;
0,000255594118188062;
0,000100537777433862;
5,52866706348497E-5;
8,91242929020301E-5;
6,24350039224177E-5;
-0,000172718237267064;
-0,000649063002873712;
-0,0105705533436622;
-0,0243470089716982;
-0,0182935117584461;
-0,0112683395421465;
-0,0137677347306248;
-0,00841580546168098;
-0,00694197597579998;
-0,00590359696144167;
-0,00216960313320338;
-0,00229333134706711;
5,38271753730116E-5;
0,000952927863869374;
0,00177847620840964;
0,00347213141473643;
0,0037792583972886;
0,00481754589677071;
0,00504136687813469;
0,005367158097909;
0,00607890345585435;
0,00669397070581885;
0,00771048347303575;
0,00828498729043816;
0,0084804103964496;
0,0082399072733008;
0,00763756992224662;
0,00713076451659879;
0,00668782971828868;
0,00638423225404465;
0,00604514387675383;
0,00554863164517417;
0,00498304427653645;
0,0044162447095732;
0,00398090414237412;
0,00362939975187654;
0,00323186886181608;
0,00270322843702051;
0,00206885144184223;
0,00152625875354445;
0,00126369516818298;
0,00132863894099235;
0,00155963334269883;
0,00166733514467001;
0,0014365287032915;
0,000848459031610048;
8,52850157414097E-5;
-0,000614588168560574;
-0,00112157227079495;
-0,00147259189372308;
-0,00180299829251009;
-0,0022066298949579;
-0,00265652832793747;
-0,00304205080256807;
-0,00328125842352862;
-0,00340652749885938;
-0,00353887472690985;
-0,00377367552403184;
-0,00407488056933989;
-0,0042760740976497;
-0,00420027887147676;
-0,00380757400356698;
-0,00325293111294885;
-0,00280084812282065;
-0,00265600228371819;
-0,00283522055857719;
-0,00317360384760274;
-0,00345453228944729;
-0,00355949990189847;
-0,00352562196451042;
-0,00347797643087458;
-0,00350455456691179;
-0,00358199964086878;
-0,00360965420143626;
-0,00351393220327804;
-0,00332525269537745;
-0,00315557196029771;
-0,00309295867245027;
-0,00310489187324706;
-0,00303969958627677;
-0,00273589140727192;
-0,00215754916601482;
-0,00144676037708066;
-0,000845441060119431;
-0,000540586820066855;
-0,000547352767200248;
-0,000715021913070836;
-0,000845752933631257;
-0,000831316647389201;
-0,000705394958357313;
-0,000581704325102837;
-0,000540034901521983;
-0,000558667388999178;
-0,000545524416066103;
-0,000433218578238718;
-0,000248968625216433;
-9,40545981806101E-5;
-4,79157804962775E-5;
-8,03646787078399E-5;
-5,30548568093698E-5;
0,000181138237760888;
0,000655276277873294;
0,00124097572519959;
0,00171949878775389;
0,00192209814204804;
0,00183584205943625;
0,00159798669482017;
0,00138829496139165;
0,00130527613606207;
0,00131900605730897;
0,0013272364880387;
0,00125846239137162;
0,00113291496325542;
0,00103430496876536;
0,0010239558795748;
0,00107776573123107;
0,00110485494477114;
0,00103410303858271;
0,000893213017793806;
0,000807245811607997;
0,000909010024045424;
0,00122850515108536;
0,00165044630954487;
0,00197839503680788;
0,00206101847349267;
0,00188710387691472;
0,00158030725892463;
0,00130229855429006;
0,00114165522945068;
0,00107164762173992;
0,0010007076582752;
0,000864888468187895;
0,000682463027934596;
0,000528504300099548;
0,000457947916682484;
0,000449223018321207;
0,000421041696011128;
0,000309845855276525;
0,000140431718500356;
2,4512368521089E-5;
8,05850638205711E-5;
0,000335255223781146;
0,000685479379221858;
0,000955939467713422;
0,00101168617055247;
0,00084273474109639;
0,000559210675935301;
0,000304961909664426;
0,000158651574869852;
9,63072621265545E-5;
3,6335542513405E-5;
-7,8235293597813E-5;
-0,00023129668003417;
-0,000356334952838876;
-0,000404780633669401;
-0,000395981417975561;
-0,000402213189531272;
-0,000479962521682985;
-0,000607386584448261;
-0,000685703689601361;
-0,000610232642435967;
-0,000357698627200844;
-1,94987824431492E-5;
0,000249183114816724;
0,000328992755731688;
0,000211058912776779;
-7,45479112250345E-6;
-0,000199724692134434;
-0,000296533326862087;
-0,000319193954689576;
-0,000339755691364253;
-0,000408503655217935;
-0,000511340236866278;
-0,000589833786226321;
-0,00060139079881729;
-0,000563153932715293;
-0,00053873913422094;
-0,00057782009008936;
-0,000661259115752119;
-0,000702436867291466;
-0,000609652197776296;
-0,000362649628454021;
-4,16475217489291E-5;
0,000217376539946598;
0,000309955575940946;
0,000228386334263709;
5,76877652232331E-5;
-9,12862457849525E-5;
-0,000158107469908771;
-0,000161435318002838;
-0,000164169056296457;
-0,000210152929941776;
-0,000287061675505553;
-0,000343959823955224;
-0,00034375883085202;
-0,000301396189517944;
-0,000272210720780575;
-0,000299350741893877;
-0,000366119004951133;
-0,000397231021265516;
-0,000313080061258623;
-9,6136536632815E-5;
0,000183988529871878;
0,000409444240508669;
0,000489812384711694;
0,000418549243744306;
0,000269344983293333;
0,000138146823511212;
7,72137168205263E-5;
7,04356544952532E-5;
6,35350548468639E-5;
1,87405925073742E-5;
-5,32419095885207E-5;
-0,000108450126250135;
-0,000114905265165943;
-8,54522890201849E-5;
-6,76752762790924E-5;
-9,86154061627927E-5;
-0,000163843126569243;
-0,000198637436168514;
-0,000134655943735757;
4,31037047663029E-5;
0,000274920532158756;
0,000459820728675102;
0,000520447942511163;
0,000451314073136391;
0,000315548398150317;
0,000195219014750866;
0,000134976084280781;
0,00012106013651572;
0,000107176618753495;
6,11623898475634E-5;
-7,81086200328968E-6;
-6,22787964910519E-5;
-7,502850994101E-5;
-5,69948052234618E-5;
-4,86108436181825E-5;
-8,12999453852089E-5;
-0,000142770480360046;
-0,000178111273041937;
-0,000129428645187179;
1,5916244120981E-5;
0,000207313499741446;
0,00035934493532039;
0,000406673767859364;
0,000344741523116443;
0,000226891178250213;
0,000122354004274881;
6,87344267060724E-5;
5,44096787921017E-5;
4,04079071392017E-5;
-3,03155212649455E-7;
-5,99968240782288E-5;
-0,000107217168165711;
-0,000119160363574699;
-0,000105029007775805;
-9,87094258554486E-5;
-0,000126490736291018;
-0,000178070578962853;
-0,00020756430059847;
-0,000166681360002377;
-4,49621639619519E-5;
0,000115325436619432;
0,000243004552422121;
0,00028373038573586;
0,000233775277690751;
0,000137506595857211;
5,23978859788202E-5;
9,60221181706817E-6;
-5,54750571835907E-7;
-1,03584735351047E-5;
-4,21611408157509E-5;
-8,95622615618545E-5;
-0,000126594313022356;
-0,000134476986442688;
-0,000120831601171966;
-0,000113574810560904;
-0,000134317426536769;
-0,000174570203751641;
-0,000196666508864869;
-0,00016105083840726;
-5,92363841639903E-5;
7,4107040005246E-5;
0,000180758070781866;
0,00021636510940718;
0,000177956483124402;
0,000101751288713106;
3,45563271772483E-5;
1,68055524170759E-6;
-4,77222398597126E-6;
-1,10156616230747E-5;
-3,51527193672156E-5;
-7,19771452351425E-5;
-0,000100482883767341;
-0,000105520981920838;
-9,32704052184938E-5;
-8,62380393167138E-5;
-0,000101796786594;
-0,00013308884454111;
-0,000149863104219819;
-0,000120440464664435;
-3,81009376201769E-5;
6,93550018155203E-5;
0,000155401532878814;
0,000184703071896905;
0,000154973222563537;
9,5095152329693E-5;
4,22772484556619E-5;
1,6577001350152E-5;
1,17071479660976E-5;
6,92223919774443E-6;
-1,20553482183058E-5;
-4,10881030203348E-5;
-6,36214460645004E-5;
-6,77604794775353E-5;
-5,83828801152093E-5;
-5,31368684943983E-5;
-6,55917574659671E-5;
-9,03502084536327E-5;
-0,000103802845872755;
-8,13200738948824E-5;
-1,77568996528569E-5;
6,52400315021967E-5;
0,000131610651084837;
0,000154081345961339;
0,000130976296540105;
8,46230111282661E-5;
4,36583513758085E-5;
2,3453867987099E-5;
1,91597423558839E-5;
1,4907921818613E-5;
-1,70250513205496E-7;
-2,28916151178314E-5;
-4,06679040152913E-5;
-4,4501496923698E-5;
-3,81116963400139E-5;
-3,48253817142389E-5;
-4,48322926838205E-5;
-6,40365822464011E-5;
-7,47320576504579E-5;
-5,85497695984427E-5;
-1,1741553216907E-5;
4,95069952079345E-5;
9,8416453754974E-5;
0,000114856228210338;
9,76863409750201E-5;
6,34233510403329E-5;
3,31128865472441E-5;
1,79784614145344E-5;
1,44402915131731E-5;
1,09399069602957E-5;
-3,82595722090795E-7;
-1,71909498344512E-5;
-3,04016321650055E-5;
-3,35755293280066E-5;
-2,94115150660332E-5;
-2,74286682598668E-5;
-3,48419036435915E-5;
-4,87056718010511E-5;
-5,65139941226776E-5;
-4,54082983478129E-5;
-1,28684156682031E-5;
2,97219729981991E-5;
6,37380110393502E-5;
7,53201565104233E-5;
6,3794816549152E-5;
4,05759377389497E-5;
2,00491243768881E-5;
9,80092190540677E-6;
7,36395675089479E-6;
4,95274196555954E-6;
-2,66115213499313E-6;
-1,3884785253507E-5;
-2,27009461155444E-5;
-2,49070494915035E-5;
-2,23103262013091E-5;
-2,11054467292671E-5;
-2,59126459445126E-5;
-3,4791756211217E-5;
-3,9771694512165E-5;
-3,27949653480406E-5;
-1,24088131139943E-5;
1,4185365477755E-5;
3,54584628473753E-5;
4,30032970047428E-5;
3,65497483242937E-5;
2,30777812694667E-5;
1,11905351228841E-5;
5,31957122336534E-6;
3,96339374930112E-6;
2,60727005433193E-6;
-1,69810505041177E-6;
-8,00417324582116E-6;
-1,29472499048666E-5;
-1,42581004480095E-5;
-1,2971766543005E-5;
-1,24099900781904E-5;
-1,49528513457278E-5;
-1,95285456454469E-5;
-2,20773231628641E-5;
-1,86787007281666E-5;
-8,79669130265495E-6;
3,97117148374861E-6;
1,4203377014433E-5;
1,81817875824061E-5;
1,59820901917893E-5;
1,07748243881912E-5;
6,19946950936615E-6;
3,98212287901849E-6;
3,45087301761003E-6;
2,89433634054738E-6;
1,31471817145316E-6;
-8,91417456879004E-7;
-2,62983767378177E-6;
-3,28282026988324E-6;
-3,2243514671036E-6;
-3,32273135470945E-6;
-4,0470664012704E-6;
-5,06671318656568E-6;
-5,6548471774532E-6;
-5,41250432196962E-6;
-4,58139125541991E-6;
-3,69178977424088E-6;
-2,97338793130112E-6;
-2,16230736167892E-6;
-8,90557861489994E-7;
7,80613399841638E-7;
2,2838691590532E-6;
3,05484562165891E-6;
3,12468719259395E-6;
3,15310511454881E-6;
3,79090491815078E-6;
4,96753547808154E-6;
5,86165269929133E-6;
5,69879546344612E-6;
4,66295372606454E-6;
3,95216113911176E-6;
4,7046263114133E-6;
6,62656418921298E-6;
7,64379642641269E-6;
5,19944923400868E-6;
-1,59870173289489E-6;
-1,07077129689609E-5;
-1,80075682559047E-5;
-1,99022168825297E-5;
-1,57807684073532E-5;
-8,40636466085788E-6;
-1,85913890932708E-6;
1,38623658298931E-6;
1,94751170084058E-6;
2,45900968419568E-6;
4,94240156062769E-6;
8,93752280108014E-6;
1,20310923267677E-5;
1,22934176074298E-5;
1,03718500399774E-5;
9,1765854210539E-6;
1,11754836246067E-5;
1,5556873977891E-5;
1,79311836362333E-5;
1,330182780009E-5;
2,41807830223274E-7;
-1,70835925196398E-5;
-3,09726165996533E-5;
-3,50893341054129E-5;
-2,86249341375113E-5;
-1,65618791903011E-5;
-5,86137901802364E-6;
-5,62585902200223E-7;
4,32888269781106E-7;
1,37352573060914E-6;
5,3995432473751E-6;
1,17316938621302E-5;
1,66587382826836E-5;
1,7310861900074E-5;
1,47129496949883E-5;
1,31661749473259E-5;
1,62164438776702E-5;
2,26309576107623E-5;
2,61448276346245E-5;
1,978922992645E-5;
1,70717390308771E-6;
-2,22216992128833E-5;
-4,14084543083394E-5;
-4,73126616088174E-5;
-3,89680552326446E-5;
-2,31402957018009E-5;
-9,10107415584071E-6;
-2,14174651798199E-6;
-7,78789220791745E-7;
5,255010966051E-7;
5,80261446882646E-6;
1,40179843064237E-5;
2,04274067744238E-5;
2,14147660284426E-5;
1,83053160920301E-5;
1,6502352635621E-5;
2,04037132004657E-5;
2,84426420227988E-5;
3,28745832716191E-5;
2,51784985822815E-5;
3,16152934880362E-6;
0,00930748556453694;
0,0225804313146782;
0,0163161136051407;
0,00938625975669491;
0,0121412970372031;
0,00701469762619771;
0,00563159190753283;
0,00458113201440579;
0,000840508290101345;
0,00103864553246498;
-0,00117451543278175;
-0,00196847209597041;
-0,00278240357979486;
-0,00453244212177189;
-0,00486807919118757;
-0,00583209935770347;
-0,00590813436115026;
-0,0061442694126282;
-0,00696406642426701;
-0,00791619158112333;
-0,0093774137968721;
-0,0102979290087074;
-0,0105819684583727;
-0,0101611586144368;
-0,00923940727896804;
-0,00844350384727299;
-0,00783445127510904;
-0,00745963707221698;
-0,00704842840336626;
-0,00641209497837732;
-0,00565812792911543;
-0,00493275830704695;
-0,0044258988039215;
-0,00406735350589707;
-0,00364253884387872;
-0,00300024520791198;
-0,00219172332703712;
-0,00153066821442425;
-0,00132834616040206;
-0,00165965119092139;
-0,00225598747216564;
-0,00264611709327892;
-0,00247506400886351;
-0,00171394858378292;
-0,00065911845401465;
0,00030214354914841;
0,000958980019666991;
0,00137317690202451;
0,00176437208949703;
0,0022851532897899;
0,00289188942547714;
0,0034053789651545;
0,0036937157160349;
0,00380925804653977;
0,0039473754523703;
0,00426144384665782;
0,00469290202369011;
0,00497393644549712;
0,00482031039182384;
0,00416843991763383;
0,00326707856854008;
0,00253959824550911;
0,00231263389676296;
0,00261187346215607;
0,00317300381248927;
0,00364990424226267;
0,00385352313570084;
0,00384278023076919;
0,00381616531921027;
0,00391280849198699;
0,00409495490191165;
0,00420254656374406;
0,00411878694024815;
0,00389155547487822;
0,00369733623609283;
0,00367448060338964;
0,00377101561908315;
0,0037476164425989;
0,00335018049820956;
0,00252250618875686;
0,00148781845851675;
0,00062523142112878;
0,000226924216348365;
0,000315617911310956;
0,000654875144575397;
0,000935331317995638;
0,000988090225486828;
0,000865644931378964;
0,000744840667889453;
0,000749379683453349;
0,000845141712383218;
0,000889059975305251;
0,000776704473170082;
0,000550279915234878;
0,000366328548580132;
0,000347280316707662;
0,000446237312815222;
0,000449875001084799;
0,000131960838278471;
-0,000557821110907429;
-0,0107552306846981;
-0,0247539716055696;
-0,0187796027723375;
-0,0116835318041304;
-0,0140346861038896;
-0,00855229832580204;
-0,00701785405958378;
-0,00597282206408227;
-0,00223205273095147;
-0,00231106602689453;
0,000108140712161796;
0,00106256429282663;
0,00189449283673831;
0,00355838496150462;
0,00384754054798603;
0,00491715643480794;
0,00520714762874571;
0,00556836959635679;
0,00621520670589754;
0,00664940480598189;
0,00742963637969522;
0,00781547442806303;
0,00794920690324717;
0,00778000763824481;
0,00731748322140876;
0,00693468885969752;
0,00655384570169623;
0,00626446680074429;
0,00593955100465516;
0,00549057135724767;
0,00499646355087295;
0,00448613885991766;
0,00406380867730439;
0,00369314665365555;
0,0032865728411457;
0,00279205724987434;
0,00222219826622866;
0,00171671826157813;
0,00140257762218006;
0,00131353330194686;
0,0013414317246107;
0,00128754343428773;
0,00100639249403772;
0,00048448019174931;
-0,000152688691668874;
-0,000740716462077491;
-0,00119046008285555;
-0,00152650884384703;
-0,00184228768823586;
-0,0022023754986988;
-0,0025880636335028;
-0,00292279574014706;
-0,00314951054640985;
-0,00329068532113729;
-0,00343037330893912;
-0,00363508079066978;
-0,00387991683554388;
-0,00404889331717607;
-0,00401845318779972;
-0,00376059201768904;
-0,00338379953917296;
-0,0030736461250278;
-0,00297411432597555;
-0,00309747360743313;
-0,00332809004410408;
-0,00351364475764572;
-0,00357073518813786;
-0,00352574490575789;
-0,00346736495218904;
-0,00345821511749886;
-0,00348209016048453;
-0,00346784979050046;
-0,00336342508488946;
-0,00319064797803061;
-0,00302949804251455;
-0,00294309442598438;
-0,00290856087065866;
-0,00281775573501811;
-0,00255525701910782;
-0,00209538495526974;
-0,00154013273423931;
-0,00106341738842057;
-0,000799993002995125;
-0,000761111893607507;
-0,000838429338314553;
-0,000889356116609921;
-0,000835794838182288;
-0,000702201512473433;
-0,000571077120335179;
-0,000500469949953928;
-0,000474797507883164;
-0,000427256269732054;
-0,000308860679511099;
-0,000139473890888118;
6,95504189131479E-6;
7,22859034752557E-5;
7,84595828258573E-5;
0,000126686585904239;
0,000324834127478732;
0,00069726871391036;
0,00114976516234033;
0,0015214447813438;
0,00168796283598245;
0,00163967917259946;
0,00147785375960348;
0,00133536416599716;
0,00128517806419766;
0,00130519604299212;
0,00131959815149236;
0,00127526225399034;
0,00118721508771138;
0,00111780556823858;
0,00111282381980427;
0,00115438106658937;
0,00117463985644543;
0,00112041077616364;
0,00101243604109934;
0,0009445268695754;
0,00101650032370647;
0,00125107505257728;
0,00156165867626651;
0,00180034470261108;
0,00185299705418739;
0,00171113403277183;
0,00146827242139407;
0,00124687778317902;
0,00111419701238475;
0,00105003855066819;
0,000984872749370932;
0,000870057989325824;
0,000719518803393484;
0,000590550483299918;
0,000525181892268355;
0,000507010081269598;
0,000473866860585013;
0,000377047751317704;
0,000235566618210048;
0,000135267746160026;
0,000167380934330002;
0,000352521977442456;
0,00061135151980245;
0,000808575822107274;
0,000839874313442602;
0,000697486504809282;
0,000466739485467263;
0,000259275841987787;
0,000136264161360595;
7,91010358267972E-5;
2,4240385192994E-5;
-7,27795791997759E-5;
-0,000199416956357068;
-0,000303675914282973;
-0,000347505874272077;
-0,000346033916726745;
-0,000355973891028634;
-0,000421747630651677;
-0,000526222513160554;
-0,000591604886583624;
-0,000535292503879117;
-0,000338830052259207;
-7,44268211524755E-5;
0,000135058887763278;
0,000194961624060172;
9,81789199429076E-5;
-7,80935137232282E-5;
-0,000232911282253894;
-0,00031108560591831;
-0,000329615371951314;
-0,000346102913119312;
-0,000400843273292912;
-0,000482598571971912;
-0,000544515186394433;
-0,000552366349014023;
-0,000519927075539017;
-0,000498453781458003;
-0,000528064109768747;
-0,000593364654712633;
-0,000624334259730944;
-0,000546687018987833;
-0,000343936487781002;
-8,11704040039967E-5;
0,000131046899498913;
0,00020760708948519;
0,00014216755689021;
4,11078462391472E-6;
-0,0001159190828145;
-0,000168418153831024;
-0,000168676450681471;
-0,000168369534970227;
-0,00020360592841271;
-0,000264287552017492;
-0,000308428966698708;
-0,000305385903392304;
-0,000267491100573185;
-0,000240583929979151;
-0,000260495798419897;
-0,000313411895816618;
-0,000336731496430636;
-0,000264106937649189;
-8,0843188475708E-5;
0,000154964413388584;
0,000344723626382478;
0,00041263114600653;
0,00035314035949795;
0,000228155166201053;
0,000118450386582811;
6,81171076865608E-5;
6,35749003601019E-5;
5,89091280476329E-5;
2,20843935572234E-5;
-3,78598011193931E-5;
-8,35823476299954E-5;
-8,78463817554486E-5;
-6,15685287768737E-5;
-4,53655028601898E-5;
-7,09426815279191E-5;
-0,000125990672150194;
-0,00015501224590348;
-9,92525343165214E-5;
5,42805623016754E-5;
0,00025418971833506;
0,0004133286550727;
0,000464771844326448;
0,000403707391933509;
0,000284870132820652;
0,000179591386388358;
0,000126779309989033;
0,000114464894867321;
0,000102200921557863;
6,18028138562268E-5;
1,26910079936205E-6;
-4,65119353926749E-5;
-5,75753383128147E-5;
-4,15213005950542E-5;
-3,40360219194224E-5;
-6,29430713714775E-5;
-0,000117402646475822;
-0,000148697297985645;
-0,000105307534358739;
2,41159969925351E-5;
0,000194495768302856;
0,000329494588396821;
0,000370551676287832;
0,000313504420698814;
0,000206260687522102;
0,000111183076624151;
6,22484493110767E-5;
4,89807932767161E-5;
3,60656526033724E-5;
-1,07938198992107E-6;
-5,54711492646666E-5;
-9,84513479489939E-5;
-0,000109165838030195;
-9,59982370453905E-5;
-9,00150552359122E-5;
-0,000115411270729978;
-0,000162756164460939;
-0,000189732299599371;
-0,000151639771328635;
-3,86845372246113E-5;
0,000109982664736324;
0,000228161209906763;
0,000265123401487081;
0,000217295042392431;
0,000126162825507146;
4,56687576937749E-5;
5,16157088709885E-6;
-4,44078117641498E-6;
-1,36519888611949E-5;
-4,36895846631774E-5;
-8,85263934855136E-5;
-0,000123463132455818;
-0,000130553543469409;
-0,000117042784434472;
-0,00010968154978311;
-0,000129277542342517;
-0,000167715244592024;
-0,000188644599845494;
-0,000153717261535516;
-5,45781491496238E-5;
7,51544266301225E-5;
0,000178727157575113;
0,000212707272414395;
0,000174069223624738;
9,83298243647398E-5;
3,16085674887091E-5;
-1,0369384136599E-6;
-7,3824657597339E-6;
-1,34735993631834E-5;
-3,73962498764679E-5;
-7,40025148661382E-5;
-0,000102255895801552;
-0,000106894990193841;
-9,40981806225108E-5;
-8,66076660260701E-5;
-0,000102086108133481;
-0,000133627717841218;
-0,000150394613952468;
-0,000119900840039452;
-3,51075332443028E-5;
7,54932171808304E-5;
0,00016388540839769;
0,000193378515742428;
0,000161457162496685;
9,8134212800955E-5;
4,23211530396573E-5;
1,51283565399596E-5;
9,99305730127828E-6;
4,99326031470067E-6;
-1,50676764160681E-5;
-4,58464731682879E-5;
-6,96714005780359E-5;
-7,37439093121838E-5;
-6,32549899318854E-5;
-5,72577877292569E-5;
-7,05225715051928E-5;
-9,72522233076957E-5;
-0,000111665515375561;
-8,66504005162902E-5;
-1,6368607620382E-5;
7,53936504882189E-5;
0,000148631050790373;
0,000172829510352228;
0,000145938648833544;
9,29311791610442E-5;
4,61230114688102E-5;
2,30157191786912E-5;
1,81573406537639E-5;
1,33950473582774E-5;
-3,82940069306691E-6;
-2,99093311603116E-5;
-5,02457365891965E-5;
-5,42875773808328E-5;
-4,63251642762151E-5;
-4,20490402943786E-5;
-5,35958189466147E-5;
-7,61816484267163E-5;
-8,86327265714546E-5;
-6,87295712546489E-5;
-1,17255218572813E-5;
6,28743410044766E-5;
0,000122347022027108;
0,000141788258864031;
0,000119564818637458;
7,6067200183695E-5;
3,76205389798357E-5;
1,84498653588461E-5;
1,41093641350769E-5;
9,86146336016234E-6;
-4,46414833699788E-6;
-2,59318609348241E-5;
-4,27283933997618E-5;
-4,63392179605208E-5;
-4,02411238463821E-5;
-3,70851729858908E-5;
-4,66298812611997E-5;
-6,50108263657834E-5;
-7,52195790078961E-5;
-5,94561611577844E-5;
-1,39590510604695E-5;
4,56300933614477E-5;
9,3155802148333E-5;
0,000108768845737073;
9,12079829099781E-5;
5,67320617359211E-5;
2,62692164910028E-5;
1,10942359792266E-5;
7,66615007382064E-6;
4,31806228241455E-6;
-6,97536172461544E-6;
-2,38836346466305E-5;
-3,70972786167496E-5;
-3,99308253980733E-5;
-3,5130839023433E-5;
-3,26217752011714E-5;
-4,00306675001819E-5;
-5,43189327969125E-5;
-6,22115859012462E-5;
-4,98667477381519E-5;
-1,44032279597378E-5;
3,19967391531409E-5;
6,90536286111818E-5;
8,14377076132844E-5;
6,82186022746582E-5;
4,19623748662103E-5;
1,87769833801726E-5;
7,30432726072429E-6;
4,81186341609098E-6;
2,37200097632573E-6;
-6,1284671905174E-6;
-1,88987174435572E-5;
-2,88594772397099E-5;
-3,09529379062305E-5;
-2,72745073895094E-5;
-2,53221524480376E-5;
-3,08274470342022E-5;
-4,14861909539811E-5;
-4,73402684196823E-5;
-3,80615919513476E-5;
-1,15481512024542E-5;
2,30897199646669E-5;
5,07853515266565E-5;
6,02157738464877E-5;
5,07431998110046E-5;
3,16624732931539E-5;
1,4814520678611E-5;
6,51246990824848E-6;
4,74009620266659E-6;
2,9924020931778E-6;
-3,15397406196573E-6;
-1,23850167205512E-5;
-1,95902157407723E-5;
-2,11472548089809E-5;
-1,85759925947592E-5;
-1,72342285466814E-5;
-2,11830644351442E-5;
-2,87655325201211E-5;
-3,29438687529633E-5;
-2,64813322098812E-5;
-7,95952738986343E-6;
1,62139259879791E-5;
3,55545020345415E-5;
4,22586868009205E-5;
3,59448810018802E-5;
2,30367130646696E-5;
1,1632486109975E-5;
6,00436684664383E-6;
4,76449130552234E-6;
3,52983534545097E-6;
-6,44049257526161E-7;
-6,86087343546715E-6;
-1,17320292566767E-5;
-1,28895702993769E-5;
-1,13499376337698E-5;
-1,06018729192701E-5;
-1,32489400613928E-5;
-1,8199530630296E-5;
-2,09625445004451E-5;
-1,69948083019567E-5;
-5,47224221284123E-6;
9,55159010897531E-6;
2,15796419088646E-5;
2,58687231997608E-5;
2,22589836066752E-5;
1,46789181744448E-5;
7,97695934136254E-6;
4,65433706010674E-6;
3,86843686981902E-6;
3,075502875946E-6;
6,11719612511423E-7;
-2,9891294660046E-6;
-5,82907880564181E-6;
-6,62509966489962E-6;
-5,95815993296471E-6;
-5,70215507850866E-6;
-7,20263257429268E-6;
-9,85680535215737E-6;
-1,13707899751125E-5;
-9,52326312664473E-6;
-4,00134054124019E-6;
3,16937370091675E-6;
8,9237524786121E-6;
1,11503106268399E-5;
9,87893678528371E-6;
6,8938985604047E-6;
4,25321946404663E-6;
2,93880222083617E-6;
2,57575565792807E-6;
2,19632334986809E-6;
1,23284878874173E-6;
-9,18991518826929E-8;
-1,15542022505289E-6;
-1,60202657966139E-6;
-1,64035645916749E-6;
-1,76556038989014E-6;
-2,25028815401639E-6;
-2,90933851925025E-6;
-3,3216651664651E-6;
-3,24299065829754E-6;
-2,79459890318869E-6;
-2,27636330924093E-6;
-1,83606750004149E-6;
-1,35019477591003E-6;
-6,28488745797084E-7;
2,94019044820579E-7;
1,11005158507841E-6;
1,51488376791814E-6;
1,52980732334219E-6;
1,52000754925662E-6;
1,84383319246892E-6;
2,46078310247906E-6;
2,91658606769684E-6;
2,78502055186093E-6;
2,17165855736357E-6;
1,74263056965218E-6;
2,12782420711217E-6;
3,16064856916397E-6;
3,68804951951773E-6;
2,2945839294757E-6;
-1,50435461311249E-6;
0,00932687327345821;
0,0226191518663526;
0,0163611755854749;
0,0094239080337132;
0,0121643785367212;
0,00702484789891618;
0,0056353325578437;
0,0045835533041904;
0,000841639579955688;
0,00103492510234982;
-0,00118567647310606;
-0,00198547137830702;
-0,00280052447018667;
-0,00454815812165744;
-0,00488248290377549;
-0,00584995475960399;
-0,00593284071438808;
-0,00617280868994019;
-0,00698650699708197;
-0,00792094022172648;
-0,00935878506161281;
-0,0102604901856027;
-0,0105383163865437;
-0,0101246337513199;
-0,00921695205018853;
-0,00843354654686606;
-0,00783068866908552;
-0,0074571502656864;
-0,00704719258957743;
-0,00641555592698634;
-0,00566879060716893;
-0,00494907960197621;
-0,00444332941061974;
-0,00408249201927909;
-0,00365643729271786;
-0,00301749331005078;
-0,00221559574163137;
-0,00155826079990023;
-0,00135010119692095;
-0,00166441151001066;
-0,00223827357840741;
-0,00261029991217699;
-0,00243322687757777;
-0,00167889199198167;
-0,000637509003781894;
0,000311800264049444;
0,000962712440605785;
0,00137568889895005;
0,0017656840307933;
0,0022819659275692;
0,00288180373296422;
0,00338986562044428;
0,00367711790100558;
0,00379482325924908;
0,00393410086664895;
0,00424495179418547;
0,00467006909477933;
0,00494752916399792;
0,00479943557672882;
0,00416372951400658;
0,00328376215551433;
0,0025735341346737;
0,00235234427081928;
0,00264519488796828;
0,00319359618601121;
0,00365917464781705;
0,00385718205635019;
0,00384528312360061;
0,00381752830557627;
0,00390990235632041;
0,00408550351485444;
0,00418793824470676;
0,00410312927844951;
0,00387792016103553;
0,00368477615645218;
0,00365885873028001;
0,00374937995260681;
0,00372257804384884;
0,00333033731820678;
0,00251789776884932;
0,00150339107021123;
0,000657096627668226;
0,00026427789208519;
0,000347005754794272;
0,000674321345833958;
0,000944148636755102;
0,000991639741638231;
0,000868109378721444;
0,000746232171277903;
0,000746756322732781;
0,000836362731747244;
0,000875424272367529;
0,000762062809421864;
0,000537512385096575;
0,000354548390213127;
0,000332611615971822;
0,000425913923833821;
0,000426339861555214;
0,000113261827929096;
-0,000562284650926175;
-0,0107408198347236;
-0,0247243052882614;
-0,0187447641947336;
-0,0116542160430992;
-0,0140164782087256;
-0,00854398424596881;
-0,00701444330301098;
-0,00597042098177659;
-0,00223065289936708;
-0,00231341028972301;
0,000100055511808783;
0,00104994306254733;
0,00188091547501652;
0,0035465295179996;
0,00383658362013465;
0,00490349660416815;
0,00518821404726061;
0,00554642893891991;
0,0061977302095677;
0,00664512073832541;
0,00744286044810878;
0,0078428667714013;
0,00798143424924084;
0,00780716509904376;
0,00733439309952952;
0,0069424643600825;
0,00655709443304472;
0,00626678385254422;
0,0059409414238193;
0,00548849839421746;
0,00498907939328945;
0,00447455200689087;
0,00405132035473362;
0,0036822270416391;
0,00327646349339662;
0,00277943849291672;
0,00220469966947834;
0,00169642599735934;
0,00138637234794224;
0,00130945596072401;
0,00135346604180275;
0,00131263240807647;
0,00103596614523134;
0,000509438323803093;
-0,000137108346085801;
-0,000733501775250109;
-0,00118739101332684;
-0,00152429243785331;
-0,00184092193155755;
-0,00220418812050961;
-0,00259475124136909;
-0,0029333468296038;
-0,00316090504843458;
-0,00330066279785044;
-0,0034396268574466;
-0,00364664632870133;
-0,00389596295395541;
-0,0040675152607435;
-0,00403336403355599;
-0,00376444191775162;
-0,00337293944321234;
-0,00305085122997438;
-0,00294719125660668;
-0,00307471735821728;
-0,00331384662539174;
-0,00350700176059505;
-0,00356785838438066;
-0,00352364206752546;
-0,0034660367465833;
-0,00345978079746772;
-0,00348809545129608;
-0,00347737923000606;
-0,00337373775709027;
-0,00319969171982085;
-0,00303790121865815;
-0,00295361160663147;
-0,00292316050082764;
-0,00283471259643059;
-0,0025688720106731;
-0,00209899257557278;
-0,00153041616234298;
-0,00104287511241205;
-0,000775679352154845;
-0,000740527871020731;
-0,000825509954995697;
-0,000883286021202198;
-0,000833118511286544;
-0,000700221890113298;
-0,000569797195434065;
-0,000501803939371477;
-0,000480142670809427;
-0,000435790965411189;
-0,000318117406869754;
-0,000147604524202452;
-6,1458779053073E-7;
6,27979897961302E-5;
6,52807994273465E-5;
0,000111366802940542;
0,00031249805877359;
0,000693912969488649;
0,00115838105494133;
0,00153980214454009;
0,00170973943363509;
0,0016581471358504;
0,00148947878604873;
0,00134086825617955;
0,0012876495126805;
0,00130704570443367;
0,00132082105118589;
0,00127414338547853;
0,00118250153267834;
0,00111022839835753;
0,00110458588742568;
0,00114713296048532;
0,00116787762667025;
0,0011119213685593;
0,00100063634056857;
0,000930797457705633;
0,00100541104956784;
0,00124797617484914;
0,00156922622226773;
0,00181660581589304;
0,00187233402524704;
0,0017275634883958;
0,00147864642308982;
0,00125182949887684;
0,00111646248127997;
0,00105175407764374;
0,000986031714973056;
0,00086913686730677;
0,000715403497037041;
0,000583885557395959;
0,000517916741196909;
0,000500606051135247;
0,000467878465598877;
0,000369516759436052;
0,00022509131888927;
0,000123066975195008;
0,00015749402893466;
0,000349680984385701;
0,000617930190573776;
0,000822845573265254;
0,000856888649741324;
0,000711971813064891;
0,000475916634905138;
0,000263694298044255;
0,000138325380817574;
8,06805260376988E-5;
2,53302012790793E-5;
-7,35207051114375E-5;
-0,000202970894117597;
-0,000309479927038553;
-0,000353850986656422;
-0,000351638340369779;
-0,000361227729660824;
-0,000428367526028171;
-0,000535438123103295;
-0,000602350456318088;
-0,000544031171611745;
-0,000341415545077162;
-6,87724866157381E-5;
0,000147454208133389;
0,000209784999318593;
0,000110827156469856;
-7,00507213416805E-5;
-0,000229002612546141;
-0,000309224515215006;
-0,000328171845156026;
-0,000345085921701707;
-0,000401422167222468;
-0,000485630400966982;
-0,000549513917639758;
-0,000557849015613697;
-0,000524780744581334;
-0,000503016564238539;
-0,000533825613257905;
-0,000601392782015647;
-0,000633706857686731;
-0,00055433897331094;
-0,000346271726237872;
-7,63726056725797E-5;
0,000141693065288934;
0,000220381541202284;
0,00015309490326808;
1,10878067592774E-5;
-0,000112493386500707;
-0,000166751096839212;
-0,000167367125487235;
-0,000167427665791648;
-0,000204040072819144;
-0,000266837921838387;
-0,000312680814898543;
-0,000310066933535442;
-0,000271645833601245;
-0,000244502067288506;
-0,000265455374813667;
-0,000320330003883926;
-0,000344819556636777;
-0,000270739056538824;
-8,29358096997884E-5;
0,000158975160791299;
0,000353751055201092;
0,00042350532558856;
0,000362468939398145;
0,000234139120269242;
0,000121422356158031;
6,95978291184059E-5;
6,47532093972547E-5;
5,97747969551588E-5;
2,17780374838847E-5;
-3,99699128119448E-5;
-8,71471667683798E-5;
-9,17883829409657E-5;
-6,5077867520544E-5;
-4,86871727994935E-5;
-7,51591399560136E-5;
-0,000131879527212901;
-0,000161908158646388;
-0,000104935260588665;
5,24209836689056E-5;
0,00025748326650803;
0,000420870148225721;
0,000473897770750489;
0,000411562544575845;
0,000289936140645305;
0,000182140518807968;
0,000128082647489314;
0,000115516549801621;
0,000102990387659803;
6,16079984323789E-5;
-4,41790116532617E-7;
-4,94499098703635E-5;
-6,08415071374549E-5;
-4,44394524886377E-5;
-3,68101905156156E-5;
-6,64763465716885E-5;
-0,000122344638146321;
-0,000154495464081044;
-0,000110113320993968;
2,24783524907968E-5;
0,000197141220810746;
0,000335682988511039;
0,000378081974891525;
0,00032001236862255;
0,000210484827044816;
0,00011334121964764;
6,33843111302145E-5;
4,99111081966389E-5;
3,6779840549448E-5;
-1,17804045558633E-6;
-5,68230970601611E-5;
-0,000100822045236911;
-0,000111818938650021;
-9,8379177640123E-5;
-9,22906368349205E-5;
-0,000118321378908268;
-0,000166833863457994;
-0,000194527465910074;
-0,000155641743439003;
-4,01125205789045E-5;
0,000112047456732018;
0,000233127451620463;
0,000271208993157459;
0,000222580927662515;
0,000129620892870366;
4,74681170597036E-5;
6,14054686467767E-6;
-3,62573511589596E-6;
-1,30113591726932E-5;
-4,37064970324001E-5;
-8,95584343327673E-5;
-0,000125324723918594;
-0,000132655050615975;
-0,00011893950439423;
-0,000111506710430403;
-0,000131623708034543;
-0,000171010200015442;
-0,000192530458886772;
-0,000156988087009015;
-5,5809589168909E-5;
7,67035862490103E-5;
0,000182598654390886;
0,000217495453425978;
0,000178255478755116;
0,000101096296837019;
3,30812127214546E-5;
-2,03813616041752E-7;
-6,67605289656815E-6;
-1,29041410675962E-5;
-3,73447783971133E-5;
-7,47520585117933E-5;
-0,00010366452603669;
-0,000108504404455762;
-9,55620768867626E-5;
-8,80292522490292E-5;
-0,000103926046171431;
-0,00013621945438534;
-0,000153462648991364;
-0,000122511788070298;
-3,61560919236556E-5;
7,65887851215777E-5;
0,000166784760626569;
0,000197011409461202;
0,000164662181853679;
0,000100281398510257;
4,34985885511208E-5;
1,58268959962841E-5;
1,05978720075797E-5;
5,49448084837009E-6;
-1,49600856484463E-5;
-4,63490073708866E-5;
-7,0680689618833E-5;
-7,49182061326727E-5;
-6,43353821835095E-5;
-5,83208626300424E-5;
-7,19119034916602E-5;
-9,92174472055045E-5;
-0,000114004061930138;
-8,86705655002229E-5;
-1,72482471093658E-5;
7,60942363070805E-5;
0,000150675035993003;
0,000175442843749284;
0,000148275740465646;
9,4528541627124E-5;
4,70358333400355E-5;
2,35909917381895E-5;
1,86678537502237E-5;
1,38314014888083E-5;
-3,67684509429959E-6;
-3,01982001470717E-5;
-5,09064012505562E-5;
-5,50807877387898E-5;
-4,70689079948182E-5;
-4,2796520019161E-5;
-5,4587616335043E-5;
-7,75935961476883E-5;
-9,032622003731E-5;
-7,02252583224198E-5;
-1,24502775013568E-5;
6,32348109847597E-5;
0,000123645836678008;
0,000143510436268809;
0,000121141390677274;
7,7180818716281E-5;
3,8298153274128E-5;
1,8913086464524E-5;
1,45329956541614E-5;
1,02366580332393E-5;
-4,2766685836767E-6;
-2,60381215761098E-5;
-4,30879763006314E-5;
-4,68021137841616E-5;
-4,06923326636001E-5;
-3,75575607673587E-5;
-4,72743174598109E-5;
-6,5938789692793E-5;
-7,63479932692175E-5;
-6,04904006228244E-5;
-1,45428463642201E-5;
4,57013587197115E-5;
9,38125185394175E-5;
0,000109720270702013;
9,21249565298573E-5;
5,74242411631075E-5;
2,67396198256252E-5;
1,14563853390173E-5;
8,01033553863748E-6;
4,63604942477441E-6;
-6,76190585534011E-6;
-2,38359598851847E-5;
-3,71999634522212E-5;
-4,01107154599168E-5;
-3,53306923024493E-5;
-3,28569640622604E-5;
-4,03747683075695E-5;
-5,48279044377652E-5;
-6,28500179869178E-5;
-5,04989448578522E-5;
-1,48597130657447E-5;
3,18256456949982E-5;
6,9163855221919E-5;
8,17303450114936E-5;
6,85700109380699E-5;
4,22913681077141E-5;
1,90666013136725E-5;
7,5760460618913E-6;
5,08395875021737E-6;
2,63689196651376E-6;
-5,89692669858098E-6;
-1,87233621226357E-5;
-2,87459857332296E-5;
-3,08935297469421E-5;
-2,7261127141346E-5;
-2,53553072102561E-5;
-3,09149298343045E-5;
-4,16366386044503E-5;
-4,75586554098843E-5;
-3,83472656631831E-5;
-1,1890567867855E-5;
0,00935615306213955;
0,0226801668757137;
0,0164326901722354;
0,00948371212613655;
0,0122010740829993;
0,00704111541971778;
0,00564152109974545;
0,00458765734694046;
0,000843708489224611;
0,0010294811450527;
-0,00120254531358065;
-0,00201125043822222;
-0,00282802555136564;
-0,00457206570541139;
-0,00490442271416237;
-0,00587695494874525;
-0,00596983053494175;
-0,00621529515808524;
-0,00702004863800685;
-0,0079289041496651;
-0,00933320570101897;
-0,0102080607647277;
-0,0104769646055853;
-0,0100731044892364;
-0,00918486759782166;
-0,00841866382571206;
-0,00782430880900727;
-0,00745255774490907;
-0,007044352115089;
-0,00641907308659758;
-0,00568195292399786;
-0,00496978168139901;
-0,00446554954264754;
-0,00410177940694709;
-0,00367415111986858;
-0,00303950813350942;
-0,0022460281864332;
-0,00159335840859845;
-0,00137781424353028;
-0,00167086967443794;
-0,00221683168897555;
-0,00256651426649267;
-0,00238199273691141;
-0,00163577844738414;
-0,000610508835916593;
0,000324535235040192;
0,000968377512477389;
0,00137983531007167;
0,00176833810127655;
0,00227932194105423;
0,00287114752192268;
0,00337293241747787;
0,00365886856687997;
0,00377892289012976;
0,00391943543084039;
0,00422669960863687;
0,00464485541348047;
0,00491843418435075;
0,00477633428097609;
0,00415798046594113;
0,00330081027226103;
0,0026088562238446;
0,00239379992740319;
0,00268009961585509;
0,00321543778973424;
0,00366944480431075;
0,00386171395897314;
0,00384857350111028;
0,00381959583161678;
0,00390766607299117;
0,00407676851866621;
0,00417410473645447;
0,00408819809932693;
0,00386484530046808;
0,00367266442795678;
0,00364383902987598;
0,00372874682155731;
0,00369880371709791;
0,00331133258358922;
0,00251275314949856;
0,00151646662571429;
0,000684798002345601;
0,000296945130011723;
0,000374551521866581;
0,000691566212744154;
0,000952263476102672;
0,000995232250335738;
0,000870727477183386;
0,00074788676600556;
0,000745016643481921;
0,000829499275343616;
0,000864535502278933;
0,000750286964392867;
0,000527164287781124;
0,00034493147897628;
0,000320705443417491;
0,00040961145646395;
0,000407567662029043;
9,81708565551361E-5;
-0,000566635384501409;
-0,0107310430922924;
-0,0247031674588407;
-0,018719710357239;
-0,0116330143453773;
-0,0140031179798202;
-0,00853758045669749;
-0,00701148119679909;
-0,00596819874185489;
-0,00222916683663886;
-0,00231451221203233;
9,50503446539532E-5;
0,00104186431364588;
0,00187213352154828;
0,00353879020911153;
0,00382936465525058;
0,00489453304281445;
0,00517593014631222;
0,00553226646699554;
0,00618627763091096;
0,00664163367083512;
0,0074498618636182;
0,00785832254567804;
0,00799986061034724;
0,00782284770133138;
0,00734439698163943;
0,00694742301800918;
0,00655955732709528;
0,00626870573609647;
0,00594232013233242;
0,00548799387130477;
0,00498574258102919;
0,00446897597509923;
0,00404519873672437;
0,00367680435935443;
0,00327137109458515;
0,0027730769806866;
0,00219596130634636;
0,00168632628773955;
0,00137812552961625;
0,00130673170261642;
0,00135802675145303;
0,00132308582842497;
0,0010485495008284;
0,000520239564149962;
-0,00013009832192952;
-0,000729868302589523;
-0,00118542881982698;
-0,00152269988128055;
-0,0018397056025806;
-0,00220423981005178;
-0,00259669916188672;
-0,00293680399498032;
-0,00316476842162331;
-0,00330412526204792;
-0,00344292287341868;
-0,00365079467704605;
-0,00390166311905873;
-0,00407412287656389;
-0,00403886169826208;
-0,00376654109623173;
-0,0033705406674815;
-0,00304479004744234;
-0,00293973568290598;
-0,00306821389819042;
-0,00330949961456608;
-0,00350458496054138;
-0,003566397277202;
-0,00352240020803685;
-0,00346502408854278;
-0,00345950069247052;
-0,00348889807203682;
-0,00347905536204343;
-0,00337569451829524;
-0,00320149978915959;
-0,00303967933005216;
-0,00295587763882728;
-0,00292626182387561;
-0,00283832469306138;
-0,00257200874875897;
-0,00210055538782196;
-0,00152987748974742;
-0,00104059339528894;
-0,000772639085857785;
-0,000737731053644637;
-0,000823469342721972;
-0,000881935786253402;
-0,000832109536874197;
-0,000699301328719545;
-0,000568977589973384;
-0,000501256061187558;
-0,000479978647447542;
-0,000435953215436245;
-0,000318448625240588;
-0,000147997953038673;
-1,0904823944238E-6;
6,2148567366019E-5;
6,44104088785523E-5;
0,000110327587127988;
0,000311398300563849;
0,000692838404684211;
0,00115737170892289;
0,00153890306283597;
0,00170905417550611;
0,0016578136886753;
0,0014895712003985;
0,00134131770169996;
0,00128827693642158;
0,0013076956473694;
0,00132147906253185;
0,00127491971709738;
0,00118348518432412;
0,00111134940847625;
0,00110563474051829;
0,00114794477419245;
0,00116851479114815;
0,00111265148382719;
0,00100166391359718;
0,00093194598415602;
0,00100605212958743;
0,00124734568391367;
0,00156695437800104;
0,00181307372152291;
0,00186855398666827;
0,00172462584794538;
0,00147711590001387;
0,00125152617368106;
0,00111676822751613;
0,00105217412590743;
0,000986550364928566;
0,000870098229394567;
0,000717063957939072;
0,000586069688721653;
0,000520111124936825;
0,000502420786169093;
0,000469444199524979;
0,000371397574520322;
0,000227699921068381;
0,000126038173996534;
0,000159591623759317;
0,000349439767973417;
0,000614641621891509;
0,000817165569523138;
0,000850575067991425;
0,000706896547097586;
0,000473047539287765;
0,000262761733294834;
0,000138353106392651;
8,08971614790485E-5;
2,57194045383657E-5;
-7,24237997986438E-5;
-0,000200773160778886;
-0,000306442236792211;
-0,000350733562735036;
-0,00034901379904854;
-0,000358910184605605;
-0,000425552732483574;
-0,000531544800605775;
-0,00059789628824929;
-0,000540743461597829;
-0,00034132588196231;
-7,28637703599875E-5;
0,000140057488132002;
0,000201438874238939;
0,000104030787464173;
-7,40054734358256E-5;
-0,000230455939304913;
-0,000309437827974787;
-0,00032813666893928;
-0,00034481873904671;
-0,000400235448639713;
-0,00048302192908442;
-0,000545812022006705;
-0,000554009384287011;
-0,000521520668049591;
-0,000500106612248553;
-0,000530272020637992;
-0,000596481324723636;
-0,000628075224852076;
-0,000550100796893176;
-0,000345904019824919;
-8,10747276111053E-5;
0,000132966835211282;
0,000210453375972789;
0,000144952981448226;
6,27704650732153E-6;
-0,000114366704887282;
-0,000167168414275902;
-0,000167489675919092;
-0,000167271667510714;
-0,00020280017406768;
-0,000263927562299631;
-0,000308479776198236;
-0,000305680577941383;
-0,000267902200769726;
-0,000241138628194901;
-0,000261333987557571;
-0,000314635267225471;
-0,000338280261763816;
-0,000265761862873236;
-8,23354378028447E-5;
0,000153834517251417;
0,000344041552650883;
0,000412398030968257;
0,000353318234364988;
0,000228679887474869;
0,000119222337356276;
6,90132449236003E-5;
6,44977738659549E-5;
5,98328766008555E-5;
2,30421518570766E-5;
-3,68508128018033E-5;
-8,25901922839354E-5;
-8,70080843566799E-5;
-6,09830318362767E-5;
-4,49913867799668E-5;
-7,06197743216609E-5;
-0,000125608074396678;
-0,000154698994104638;
-9,94057246936146E-5;
5,32135476793135E-5;
0,000252055484686359;
0,000410482187587835;
0,000461966420668218;
0,000401700285150881;
0,000284012235402169;
0,00017969724781878;
0,000127364511610755;
0,000115151390833323;
0,000102963413864221;
6,28719690256184E-5;
2,80517707211271E-6;
-4,46620331169304E-5;
-5,58009906183979E-5;
-4,01095403531469E-5;
-3,28886419671155E-5;
-6,16509463028566E-5;
-0,000115678329711868;
-0,000146825909546368;
-0,000104196543293028;
2,34255406165495E-5;
0,000191556261025929;
0,00032488067953322;
0,000365634941959126;
0,000309696954943898;
0,000204256177264794;
0,000110727436977106;
6,25621506074619E-5;
4,9456569513029E-5;
3,66791683934788E-5;
6,47345281536512E-8;
-5,35185068135852E-5;
-9,59120091678202E-5;
-0,000106634690869433;
-9,39156269064459E-5;
-8,8236678662976E-5;
-0,000113325436632918;
-0,000159931605285254;
-0,000186580545682484;
-0,000149482579562233;
-3,90454446860152E-5;
0,000106415394515408;
0,00022213700384262;
0,000258511151844484;
0,000212034643184029;
0,000123225322277929;
4,47468019905087E-5;
5,24025168158898E-6;
-4,15162873788089E-6;
-1,3175422468032E-5;
-4,25024774767266E-5;
-8,62560964961854E-5;
-0,000120385578027446;
-0,000127426936650003;
-0,0001144294535764;
-0,000107400715700453;
-0,000126556705429104;
-0,000164008794732754;
-0,000184463814989778;
-0,000150711756102376;
-5,46538797966584E-5;
7,11168715670559E-5;
0,000171611893073182;
0,000204772050722504;
0,000167667772872481;
9,46517384885716E-5;
3,03068583060412E-5;
-1,15917639230089E-6;
-7,25688316191654E-6;
-1,31217351367742E-5;
-3,61933349462036E-5;
-7,15017578328448E-5;
-9,87743123334762E-5;
-0,000103316428320063;
-9,10789567076029E-5;
-8,39391021269269E-5;
-9,88721805187261E-5;
-0,000129234815369796;
-0,000145410004458866;
-0,000116224890946022;
-3,49393041397271E-5;
7,11240834124124E-5;
0,000155962243719382;
0,000184451533289952;
0,000154192531504598;
9,38876607968242E-5;
4,07180027543707E-5;
1,48370201499643E-5;
9,97709566514962E-6;
5,23283276151995E-6;
-1,3871593380711E-5;
-4,3191269684639E-5;
-6,59036827833473E-5;
-6,98398177696515E-5;
-5,99400385402622E-5;
-5,43029787462549E-5;
-6,69413637043581E-5;
-9,23463305243059E-5;
-0,000106077210777993;
-8,24626295144482E-5;
-1,59944933114741E-5;
7,08138246171078E-5;
0,000140148738847581;
0,000163202483069985;
0,000138056108489721;
8,82686907740936E-5;
4,42885875516074E-5;
2,25846150510216E-5;
1,80205660425786E-5;
1,35345693796716E-5;
-2,65880274231514E-6;
-2,71653698102278E-5;
-4,62945813350957E-5;
-5,01684137664691E-5;
-4,28109455981495E-5;
-3,88970916794226E-5;
-4,97580141706691E-5;
-7,09154962788227E-5;
-8,26171557031501E-5;
-6,41703816430282E-5;
-1,11806108380701E-5;
5,81878547053672E-5;
0,000113521741154373;
0,000131715449010748;
0,000111278646534693;
7,11225571709203E-5;
3,56170379349937E-5;
1,7905694962649E-5;
1,38709993250948E-5;
9,91274731553344E-6;
-3,33417416087601E-6;
-2,3155342598246E-5;
-3,86823922339808E-5;
-4,21005700016113E-5;
-3,66113215152415E-5;
-3,38136149992083E-5;
-4,26319775429487E-5;
-5,95176699936431E-5;
-6,89308580867265E-5;
-5,46487491836498E-5;
-1,32754946271803E-5;
4,09252979716453E-5;
8,41732737960526E-5;
9,84694453808238E-5;
8,27033857854301E-5;
5,16213933857055E-5;
2,41512435404745E-5;
1,04610992543422E-5;
7,34387590635224E-6;
4,29238790572087E-6;
-5,89799228549141E-6;
-2,11219888251507E-5;
-3,30319124073568E-5;
-3,56544327594551E-5;
-3,14572098161887E-5;
-2,92973121082262E-5;
-3,59558751123343E-5;
-4,87137673746499E-5;
-5,57829016087966E-5;
-4,49181034427548E-5;
-1,3610229690532E-5;
2,73476082782449E-5;
6,00714275947848E-5;
7,10984124408383E-5;
5,96538052330918E-5;
3,67854024940213E-5;
1,65920555784631E-5;
6,60385215187816E-6;
4,42186770078663E-6;
2,28010125070007E-6;
-5,11280596527087E-6;
-1,61912979577477E-5;
-2,48381075794834E-5;
-2,67077070756686E-5;
-2,3617736830159E-5;
-2,20014118491044E-5;
-2,67466039909759E-5;
-3,58670244341352E-5;
-4,08853203589652E-5;
-3,3063557865118E-5;
-1,06719924943095E-5;
1,85571543175641E-5;
4,19352386380005E-5;
4,99934104547914E-5;
4,22515886056061E-5;
2,6503764975674E-5;
1,26035541733604E-5;
5,76392570195882E-6;
4,2971072620613E-6;
2,84441360924385E-6;
-2,2065640033339E-6;
-9,76382092423685E-6;
-1,56651291911774E-5;
-1,69903430783498E-5;
-1,49866032393855E-5;
-1,39645657877455E-5;
-1,71556061283542E-5;
-2,32147210386832E-5;
-2,65583900078999E-5;
-2,1511730055056E-5;
-7,02365900534411E-6;
1,184700423234E-5;
2,69447250835086E-5;
3,22828044010836E-5;
2,76371131260547E-5;
1,79669272230554E-5;
9,43028075799023E-6;
5,22476805553514E-6;
4,28179910491404E-6;
3,33524841891757E-6;
2,30801877106277E-7;
-4,35128034985058E-6;
-7,94548386946894E-6;
-8,86747614872738E-6;
-7,86921887561588E-6;
-7,42220700138168E-6;
-9,32391186337833E-6;
-1,27851429285205E-5;
-1,47258527696286E-5;
-1,21186088366866E-5;
-4,49741308523257E-6;
5,38877090408045E-6;
1,32971861312605E-5;
1,62441518451161E-5;
1,42250765856889E-5;
9,7560292645173E-6;
5,81266964614278E-6;
3,85854670911742E-6;
3,35791538165527E-6;
2,84310869013398E-6;
1,41161946586492E-6;
-6,10631476110561E-7;
-2,21434241912302E-6;
-2,77473597716548E-6;
-2,6190845288858E-6;
-2,64378665960698E-6;
-3,41968073332013E-6;
-4,63397554692005E-6;
-5,34731667155562E-6;
-4,79374333740624E-6;
-3,00574449233555E-6;
-7,60329179164869E-7;
1,03654644702993E-6;
1,95966337906633E-6;
2,19031362868756E-6;
2,16441459580189E-6;
2,15084681115522E-6;
2,13965501741226E-6;
2,04791618959238E-6;
1,9341998861375E-6;
1,95703638569823E-6;
2,1412176420282E-6;
2,26224562980355E-6;
2,04825015871401E-6;
1,53153943162512E-6;
1,14704371752066E-6;
1,35939443482743E-6;
2,07843273276419E-6;
2,4375583635449E-6;
1,29714507768801E-6;
-1,79401608549903E-6;
-5,95225905375866E-6;
-9,27703181121223E-6;
-1,00440983847159E-5;
-7,91699986925313E-6;
-4,20582427638298E-6;
-9,11072396832753E-7;
7,23326034242952E-7;
9,93858066243461E-7;
1,23550383026994E-6;
2,49292159975308E-6;
4,5387968446455E-6;
6,11898377797764E-6;
6,21442701719349E-6;
5,15743707590611E-6;
4,49108015433081E-6;
5,54057231668301E-6;
7,88023766039668E-6;
9,14395887026671E-6;
6,61210911834315E-6;
-5,12296856305492E-7;
-9,96941695297676E-6;
-1,75365901545329E-5;
-1,97134985074859E-5;
-1,60364008570979E-5;
-9,25634869120065E-6;
-3,24417069862797E-6;
-2,59337676478764E-7;
3,07176721853184E-7;
8,39243955554159E-7;
3,10846904801452E-6;
6,68016426871564E-6;
9,45638540880342E-6;
9,80685896904971E-6;
8,30972507618787E-6;
7,4133618560318E-6;
9,14474959552157E-6;
1,2804016924778E-5;
1,480376193339E-5;
1,11397898949254E-5;
7,35446890706243E-7;
-1,30312703308278E-5;
-2,40546740724496E-5;
-2,73966359783668E-5;
-2,24913497164647E-5;
-1,32546761341237E-5;
-5,0666947808482E-6;
-1,00487333017316E-6;
-2,08137810634929E-7;
5,50629652954816E-7;
3,62619538706947E-6;
8,41692023973704E-6;
1,2148803357511E-5;
1,27030031287551E-5;
1,08545770400525E-5;
9,77430407392056E-6;
1,2047788858919E-5;
1,67562128882711E-5;
1,9341443181955E-5;
1,47806083712217E-5;
1,77677969974296E-6;
-1,54060530873474E-5;
-2,9174008411337E-5;
-3,34551898208449E-5;
-2,76044159973736E-5;
-1,64544238551948E-5;
-6,57049690776084E-6;
-1,67092428912995E-6;
-6,96874306222264E-7;
2,37655563906814E-7;
3,94175063921182E-6;
9,68302847665508E-6;
1,41616032869942E-5;
1,4879790545706E-5;
1,27657611244615E-5;
1,15491018515772E-5;
1,42460957216618E-5;
1,97683554864319E-5;
2,28107750391817E-5;
1,75691459405695E-5;
2,5792176483707E-6;
-1,72161636402935E-5;
-3,30869837709419E-5;
-3,80985766700931E-5;
-3,15466298727232E-5;
-1,89600263416914E-5;
-7,80088143895269E-6;
-2,27070555310086E-6;
-1,16120085754311E-6;
-9,13310869448167E-8;
4,08786814027754E-6;
1,05454437815163E-5;
1,55889449383386E-5;
1,64391875339044E-5;
1,41385873558962E-5;
1,28305214169097E-5;
1,58485932658221E-5;
2,19786084853824E-5;
2,53666180705597E-5;
1,96371146318199E-5;
3,20535258477748E-6;
-1,84901185360948E-5;
-3,58943047017382E-5;
-4,14491731469721E-5;
-3,44091729837603E-5;
-2,08045578508029E-5;
-8,73992208865085E-6;
-2,76104761926235E-6;
-1,55270485163313E-6;
-3,83125117139213E-7;
4,13582015695926E-6;
1,11029640316885E-5;
1,6550573420015E-5;
1,75035617416856E-5;
1,50844407261843E-5;
1,37230037546061E-5;
1,69706772105946E-5;
2,35259004005091E-5;
2,7159702132512E-5;
2,11094352381394E-5;
3,71090053095477E-6;
0,00931417197907142;
0,022592027928894;
0,0163291005969845;
0,00939680086991944;
0,0121473526022931;
0,00701677415403128;
0,0056316911243447;
0,00458085744559812;
0,000839883764110763;
0,00103651472928394;
-0,00117902269245711;
-0,00197482649096887;
-0,0027889829520032;
-0,00453800817090767;
-0,0048730358895894;
-0,00583821604745502;
-0,00591671297399796;
-0,00615419335143955;
-0,00697150993777941;
-0,00791659201451021;
-0,00936848856536983;
-0,0102815341750524;
-0,0105633181955146;
-0,0101458606725016;
-0,00923041167274815;
-0,00844009711096407;
-0,00783381842868119;
-0,00745954749087457;
-0,00704885581193063;
-0,00641462571892618;
-0,00566393873934682;
-0,00494112508993033;
-0,00443464187963117;
-0,00407482274991729;
-0,00364926246015986;
-0,00300853180787874;
-0,00220325193027757;
-0,00154397822894616;
-0,00133851022832182;
-0,00166084014880126;
-0,00224530991320311;
-0,00262592679941267;
-0,00245191706989306;
-0,00169485507277015;
-0,00064774938793448;
0,00030666267207088;
0,000960102772935688;
0,00137362568496432;
0,0017641741639805;
0,00228238445614706;
0,00288513229586943;
0,00339550921549363;
0,00368334757971864;
0,00380036226820843;
0,00393932725556064;
0,00425151605623112;
0,00467912341405347;
0,00495803382164798;
0,00480806228362343;
0,00416665287331291;
0,00327911413885746;
0,00256272223547632;
0,00233926282073679;
0,00263392440643611;
0,00318625390434204;
0,00365534848931133;
0,00385509849138887;
0,00384358069582395;
0,0038162181285306;
0,00390993385882805;
0,00408755368926693;
0,00419160792733223;
0,00410725068201762;
0,00388163220016842;
0,00368832937986424;
0,00366335176474499;
0,00375557689904076;
0,00372979214875368;
0,00333637858656143;
0,00252025457647742;
0,00150082605869124;
0,000650487429245995;
0,000256096053760038;
0,000339841369438207;
0,000669525332617912;
0,000941488353835863;
0,000990037766452794;
0,000866742816748181;
0,000745115449681689;
0,000746468742577605;
0,000837316291395848;
0,000877389359473918;
0,000764358248167211;
0,000539637605350992;
0,000356643701271667;
0,00033529778578125;
0,000429619025963843;
0,000430682506306402;
0,000117036850170315;
-0,00056045206410666;
-0,0107416201968847;
-0,0247273162569369;
-0,018748740447572;
-0,0116578525951378;
-0,0140190855670977;
-0,0085456419830701;
-0,00701563089204965;
-0,00597149872689367;
-0,00223160386834429;
-0,00231397351315166;
0,000100064044568432;
0,00105043880690633;
0,00188163439740392;
0,00354728015687291;
0,00383741206147028;
0,00490461458185562;
0,00518976199624077;
0,00554828652215288;
0,00619953434405211;
0,0066464688211901;
0,00744353071445705;
0,00784289526140072;
0,0079810223007314;
0,0078065229913773;
0,00733364619346172;
0,00694166179185682;
0,006556263788429;
0,00626595706215023;
0,00594013714572344;
0,00548770716024768;
0,00498829143022905;
0,00447380517506158;
0,00405070351050602;
0,00368181026515497;
0,00327621335620809;
0,00277922116170917;
0,00220441254427152;
0,00169616886487173;
0,00138649247963134;
0,00131037107139763;
0,00135535092532774;
0,00131520010409134;
0,00103854162202943;
0,000511312331396255;
-0,000136285020877497;
-0,00073357358686743;
-0,00118790677704123;
-0,00152489259351722;
-0,00184158680760219;
-0,00220515365255657;
-0,00259618958180467;
-0,00293511848386783;
-0,0031626271861223;
-0,00330204741986116;
-0,00344077346418283;
-0,00364797621208653;
-0,00389778091213672;
-0,00406953884210492;
-0,00403465616640514;
-0,00376390359414533;
-0,00337006548329109;
-0,00304619393690411;
-0,00294214904857523;
-0,00307075907050311;
-0,00331171420319234;
-0,00350645344806994;
-0,00356809538085518;
-0,00352403599634778;
-0,00346656752580613;
-0,00346087073515785;
-0,00349005043078273;
-0,00347997696550148;
-0,00337635500200408;
-0,00320186221630562;
-0,0030397783175085;
-0,00295585124092497;
-0,0029262325422369;
-0,00283818591328775;
-0,00257132916336469;
-0,00209877948750337;
-0,00152675744117;
-0,00103653629778416;
-0,000768643708010839;
-0,000734878923697493;
-0,00082230816675095;
-0,000882221548462067;
-0,000833113544573006;
-0,000700432332666405;
-0,00057020304756707;
-0,000502977604196497;
-0,000482497821615367;
-0,00043903948150879;
-0,000321443918906114;
-0,000150400274032315;
-3,07575777791714E-6;
5,98284427817204E-5;
6,12014140911079E-5;
0,000106726811169079;
0,000309096715911457;
0,000693845721606372;
0,0104960732621838;
0,0241771834511977;
0,0180910778240337;
0,0110982260395396;
0,0136629226944384;
0,00836851890543115;
0,00692267652678597;
0,00588970446914533;
0,00216102820035158;
0,00230531121413695;
-1,0592293390738E-5;
-0,000885469545453006;
-0,00170642299662175;
-0,0034098277156808;
-0,00372236330267206;
-0,00474751925229551;
-0,00494544794052477;
-0,00525724493937058;
-0,00599231371499936;
-0,0066730342659696;
-0,0077749688381307;
-0,00841764731489388;
-0,00863638045049143;
-0,00837296191337714;
-0,00772431211059119;
-0,00717665325420689;
-0,00671359135795853;
-0,00640563262120713;
-0,00606221358382741;
-0,0055507875859247;
-0,00496291485374302;
-0,00437870762244729;
-0,00393943687424826;
-0,00359379848651985;
-0,00319920289468948;
-0,00266101867263363;
-0,00200859994824825;
-0,00145600489704967;
-0,00120830042498574;
-0,00131607276009265;
-0,00160281080106336;
-0,00175488497244827;
-0,00153924079832707;
-0,000936480961143838;
-0,000143630369389202;
0,000582430887416518;
0,0011025090160746;
0,00145674967271034;
0,00179036003825681;
0,0022036955096202;
0,00266774393853052;
0,00306438254602669;
0,00330654696453807;
0,00342890370650155;
0,00356002706324114;
0,00380081065404902;
0,00411278807025434;
0,00432004708763214;
0,00423623434392373;
0,00381996694007144;
0,00323477433674556;
0,0027584353179383;
0,00260501987890151;
0,00279138265730152;
0,00314463639156888;
0,00343864423353772;
0,00355017632015115;
0,00351806996639419;
0,00347219724295887;
0,00350354342522088;
0,00358769718010884;
0,00362062296290995;
0,00352659419009367;
0,00333712488236823;
0,00316729332217189;
0,00310723230743404;
0,00312334742393187;
0,00306050285371547;
0,0027542048085081;
0,00216847737987382;
0,00144840750642328;
0,000839786898585508;
0,000531793453507813;
0,000539089059463485;
0,000708837123559801;
0,000841314513525275;
0,000827724457007326;
0,000702193182798973;
0,000578925319805839;
0,000537711690279605;
0,000556628766263262;
0,000543703420580417;
0,000431938363532067;
0,000248631938490273;
9,44275705824438E-5;
4,7905463233645E-5;
7,89430714815825E-5;
5,08303513536081E-5;
-0,000181179520667205;
-0,000649025243897584;
-0,0105594515427766;
-0,024327203047802;
-0,0182712727829326;
-0,0112502977470993;
-0,0137573009120008;
-0,00841205336562035;
-0,0069415378554644;
-0,00590382918959171;
-0,00217045626276194;
-0,00229662555826509;
4,67671168860313E-5;
0,000942985517524682;
0,00176819973320148;
0,00346343008555776;
0,00377152112069924;
0,00480813046370991;
0,00502837907824504;
0,00535230212342643;
0,00606780488734004;
0,00669320876292029;
0,00772322183487638;
0,00830840558316437;
0,00850696398585635;
0,00826162615852736;
0,00765034730779116;
0,0071356699586098;
0,00668883144934279;
0,00638443778757114;
0,00604460121188423;
0,00554519651220715;
0,0049751590557857;
0,00440493255373573;
0,00396912297919673;
0,0036193627074213;
0,00322287417244216;
0,00269223717222788;
0,00205369047350726;
0,00150888147142233;
0,00125053262299056;
0,00132720120888496;
0,00157354211803754;
0,00169342785465387;
0,0014663050440242;
0,000872942540224306;
9,98443460433211E-5;
-0,000608780568198331;
-0,00112010407208188;
-0,00147201282663185;
-0,00180326265626646;
-0,00221012278867303;
-0,00266498053477639;
-0,00305433783506737;
-0,00329412247753928;
-0,00341753309862129;
-0,00354878935409318;
-0,00378582654351338;
-0,00409164375828555;
-0,00429531611059208;
-0,00421498692398121;
-0,00380956574075257;
-0,00323825134157655;
-0,00277289780115436;
-0,00262395752043388;
-0,00280877069644834;
-0,00315775360465892;
-0,0034480415493161;
-0,00355764951130659;
-0,00352472521734556;
-0,00347799057538669;
-0,00350803231519102;
-0,00359079241959779;
-0,00362256963082296;
-0,00352750890432875;
-0,00333690427571887;
-0,00316610976869364;
-0,00310590366400192;
-0,00312275565368346;
-0,00306022938142153;
-0,00275168842228509;
-0,00215998503019829;
-0,00143165558136627;
-0,000816344716854144;
-0,000507106846540283;
-0,000519635285545944;
-0,000698312961980632;
-0,00083877507981835;
-0,000829163175277144;
-0,000704235094084393;
-0,000581498725344363;
-0,000543440129883219;
-0,000567609748724737;
-0,00055877255316925;
-0,000447191058882385;
-0,000260990111174374;
-0,000104961376484313;
-6,13401663016268E-5;
-9,88961582182269E-5;
-7,43735937849613E-5;
0,000164647610810975;
0,000652492194506889;
0,00125620722004606;
0,00174912613861036;
0,00195629204722715;
0,00186422063539275;
0,00161517671001263;
0,00139558531497751;
0,00130765864374057;
0,00132037620691225;
0,00132762989615032;
0,00125517355949934;
0,00112398216288582;
0,00102097379917501;
0,0010098561948907;
0,00106560865740172;
0,00109379546796489;
0,00102046793606212;
0,000874384593294286;
0,000785566185671323;
0,000892166126425505;
0,00122545771955766;
0,00166555251852942;
0,00200803032528152;
0,00209531143150021;
0,00191562529929783;
0,00159765416916987;
0,00130974962557079;
0,00114420043883653;
0,00107317983013012;
0,001001258579882;
0,000861750374895178;
0,000673672342518616;
0,000515299999061111;
0,000443947627354106;
0,00043712862985842;
0,000410013144270356;
0,000296228600241118;
0,000121621873317449;
2,83654223916994E-6;
6,36792884891653E-5;
0,000332020797547309;
0,000700252622137782;
0,00098514595363036;
0,00104556296962582;
0,000870963761874033;
0,000576441289059633;
0,000312444639798904;
0,000161301888107748;
9,79591050710049E-5;
3,70166412776223E-5;
-8,11957389135119E-5;
-0,000239835917326699;
-0,000369237956285434;
-0,000418492574622076;
-0,000407847213367799;
-0,000413056578591715;
-0,000493369742518533;
-0,000625912707986313;
-0,000707069003990428;
-0,00062695382872692;
-0,000361051739252525;
-5,22597747975488E-6;
0,000277602683962716;
0,000362029043624787;
0,000238635972368899;
9,43280711869515E-6;
-0,00019231867155353;
-0,000293827614045319;
-0,000317459752509513;
-0,000338969249441709;
-0,000411266561794524;
-0,000519540156580275;
-0,000602293761928095;
-0,00061466020873539;
-0,000574655270647106;
-0,000549270532558164;
-0,000590858923500856;
-0,000679283001255006;
-0,0007232385649142;
-0,000625984161513634;
-0,000366061504810748;
-2,80072092674884E-5;
0,000244721406934637;
0,000341808535587777;
0,000255019785251592;
7,40471740392438E-5;
-8,4047047278542E-5;
-0,000155389364422052;
-0,000159651797699262;
-0,000163300245330991;
-0,000212705158363908;
-0,000294854227274076;
-0,000355865031327604;
-0,000356463414072962;
-0,000312424854041905;
-0,000282328599067403;
-0,000311893943196645;
-0,000383464806211657;
-0,000417264992656256;
-0,000328856572739943;
-9,9555552220433E-5;
0,000196895467787739;
0,000435489317280342;
0,000520212104560957;
0,000444008229327783;
0,000285028234998394;
0,000145145441980293;
7,99072438823555E-5;
7,22393129071959E-5;
6,44649959698795E-5;
1,64062142761826E-5;
-6,05767196541533E-5;
-0,000119715631856718;
-0,000126951252670966;
-9,59248262870935E-5;
-7,73007872016191E-5;
-0,000110563636985721;
-0,000180373272185247;
-0,000217743536755292;
-0,00014974532307007;
3,97215079200108E-5;
0,000287020814929952;
0,000484396726188034;
0,000549189534125349;
0,000475422078735796;
0,000330440948390916;
0,000201918218126613;
0,000137613815002169;
0,000122858571168387;
0,000108148390377119;
5,90481130022153E-5;
-1,46529029032129E-5;
-7,28431516939199E-5;
-8,63471931141433E-5;
-6,68495237536331E-5;
-5,76850960714491E-5;
-9,25784974516085E-5;
-0,000158381270462913;
-0,000196168328284524;
-0,000143729890761982;
1,26079080495605E-5;
0,000218558151839187;
0,000382331881361738;
0,000433609904889733;
0,000367370255652577;
0,00024090830382181;
0,000128708480956401;
7,12905888136611E-5;
5,61812657340379E-5;
4,14042850455314E-5;
-2,19906616156292E-6;
-6,63242745362154E-5;
-0,000117039339010062;
-0,000129704885274155;
-0,000114223215071331;
-0,000107190988958698;
-0,000137046522427292;
-0,000192688102643247;
-0,000224485463467951;
-0,000180120584524141;
-4,81658985148188E-5;
0,000125686560612955;
0,000264325516318063;
0,000308764093901204;
0,000254838714162086;
0,000150589811156515;
5,83743469251789E-5;
1,20560171632522E-5;
1,1718592479026E-6;
-9,35269498372656E-6;
-4,38437011129467E-5;
-9,53646391923863E-5;
-0,000135650939764892;
-0,00014421945917915;
-0,000129339144306257;
-0,000121437501865975;
-0,000144116260595194;
-0,000188146603275434;
-0,000212394985700169;
-0,000173577992782147;
-6,23105753073278E-5;
8,35747114032741E-5;
0,000200373205204968;
0,000239442921797209;
0,000197405195514928;
0,000113864900487377;
4,01320222884069E-5;
4,01566914979006E-6;
-3,10555614519342E-6;
-1,00137865652647E-5;
-3,66296448502719E-5;
-7,72536469275727E-5;
-0,000108765763524902;
-0,000114449841927702;
-0,00010107939902971;
-9,34688635049603E-5;
-0,000110820859516357;
-0,0001455988382965;
-0,000164368166648326;
-0,000132026269662126;
-4,10259529535315E-5;
7,79343946367843E-5;
0,000173302538276211;
0,000205808668084113;
0,000172789105019399;
0,000106223047399571;
4,74385688295914E-5;
1,87810605174088E-5;
1,33017849918197E-5;
7,90869066287483E-6;
-1,33364864460699E-5;
-4,58460270408403E-5;
-7,11351928347624E-5;
-7,58780001464241E-5;
-6,54935676614153E-5;
-5,97340845839163E-5;
-7,38372578954459E-5;
-0,00010178781324514;
-0,00011707607246016;
-9,19531163252172E-5;
-2,05178894962667E-5;
7,29488408683566E-5;
0,000147815723107446;
0,00017322972025755;
0,000147167729337156;
9,47657238325414E-5;
4,83995762690286E-5;
2,55180484787982E-5;
2,06728777247119E-5;
1,58691339743088E-5;
-1,26705865316625E-6;
-2,71449058735501E-5;
-4,74277590112348E-5;
-5,18214849184965E-5;
-4,45344610431132E-5;
-4,07966855829819E-5;
-5,23071848314896E-5;
-7,44120724631236E-5;
-8,67838470885879E-5;
-6,82337898680275E-5;
-1,43279261196586E-5;
5,63731056356644E-5;
0,000112965687922917;
0,000132088380192577;
0,000112283784312193;
7,25953824479747E-5;
3,74350177963148E-5;
1,98970729858309E-5;
1,58648338566018E-5;
1,1867677897703E-5;
-1,30766894735639E-6;
-2,09588734053787E-5;
-3,6431487125928E-5;
-4,01212234810533E-5;
-3,51650615366991E-5;
-3,27895417479803E-5;
-4,15638915969287E-5;
-5,8042788845248E-5;
-6,73703776260627E-5;
-5,41597067381255E-5;
-1,52733363742922E-5;
3,57813633962892E-5;
7,66892360226843E-5;
9,06982574618198E-5;
7,68467839567394E-5;
4,8803295269552E-5;
2,39588141828209E-5;
1,15710215576138E-5;
8,69494309298669E-6;
5,8403769361357E-6;
-3,42781408492864E-6;
-1,71907528283999E-5;
-2,80315575236379E-5;
-3,07092270032395E-5;
-2,74200495910921E-5;
-2,58776636587263E-5;
-3,19073486991152E-5;
-4,31252035094736E-5;
-4,94714424438629E-5;
-4,06405825260702E-5;
-1,46287418889195E-5;
1,94802265561171E-5;
4,68834861261664E-5;
5,66063301415837E-5;
4,8119169784401E-5;
3,03957473470244E-5;
1,4699096824991E-5;
6,94058737584353E-6;
5,19775045379581E-6;
3,44946354848619E-6;
-2,32007331837743E-6;
-1,0874700212391E-5;
-1,76146661225141E-5;
-1,93534039462617E-5;
-1,74682922149455E-5;
-1,66202863580094E-5;
-2,02521549370458E-5;
-2,69017199040554E-5;
-3,06693547151356E-5;
-2,56537258314844E-5;
-1,08309486779159E-5;
0,00934198227680196;
0,0226539144588033;
0,0164028389274918;
0,00945923923188546;
0,0121866177394143;
0,00703548930886319;
0,0056402726306871;
0,00458729723232389;
0,000844187147315975;
0,0010332159953987;
-0,00119379471377775;
-0,00199862665162411;
-0,00281484919342665;
-0,00456082356263364;
-0,00489432661042463;
-0,0058645883618023;
-0,00595274696357811;
-0,00619568422240247;
-0,00700513534871865;
-0,00792713529080885;
-0,00934867070555588;
-0,0102372344967045;
-0,0105103236327973;
-0,0101005788200715;
-0,00920125171902829;
-0,00842525844874495;
-0,00782605043838737;
-0,00745330854542092;
-0,00704415981278946;
-0,00641526006361541;
-0,00567257327840757;
-0,00495608911015628;
-0,00445119025005183;
-0,00408948106464913;
-0,00366305439498057;
-0,0030258848617831;
-0,00222721371129501;
-0,00157173783728658;
-0,00136124099601723;
-0,0016685145604209;
-0,00223314039853415;
-0,00259770018181573;
-0,00241780044012687;
-0,00166536857901727;
-0,000628274882024334;
0,000317217284552416;
0,000966238698939118;
0,00137875784394516;
0,00176827690871277;
0,00228313429626913;
0,00288090797755611;
0,00338731313322612;
0,00367400390433312;
0,00379192297952551;
0,00393120670649449;
0,00424117749467795;
0,00466484926977466;
0,00494143017142988;
0,00479406601599612;
0,00416080194746135;
0,00328403930395469;
0,00257644111283648;
0,00235645921147623;
0,0026491601214738;
0,00319676191731388;
0,00366161501616088;
0,00385926035908413;
0,00384722447544524;
0,00381930955747256;
0,00391140941843806;
0,00408669447457018;
0,00418884330051919;
0,00410375619776833;
0,00387823907462774;
0,00368482658863894;
0,00365882185254914;
0,00374944073727135;
0,00372262385660639;
0,00332978594680223;
0,00251593381738116;
0,00149955971804234;
0,000651827788900528;
0,000258861567689833;
0,000342925837805385;
0,000672391408767195;
0,000944109172087273;
0,000992540513626903;
0,00086916025383451;
0,000747405893848275;
0,000748638298130574;
0,000839411648495303;
0,000879353745844031;
0,000765969390084704;
0,000540691491812961;
0,000357244626414948;
0,000335896258919063;
0,000430596949279517;
0,000431741224981852;
0,000116972165523596;
-0,000563188086326177;
-0,0107478083699774;
-0,0247361177826841;
-0,0187578615753317;
-0,0116647578632022;
-0,0140224370636331;
-0,00854589423453749;
-0,00701433994704635;
-0,00596993289716165;
-0,00222981063988692;
-0,00231105140238812;
0,000104802399556898;
0,00105653094867529;
0,00188769109146733;
0,00355223320411977;
0,00384162765651946;
0,00490968184082516;
0,00519686228693274;
0,00555639515620079;
0,00620510957853558;
0,00664526659949185;
0,00743346884335107;
0,00782587363350321;
0,00796220865409403;
0,00779146480063565;
0,00732523370470856;
0,00693909138427048;
0,00655659462563845;
0,00626685100220714;
0,00594154317926407;
0,00549126416184543;
0,00499521438985446;
0,00448329993434913;
0,00406042476405695;
0,00368998203134269;
0,00328341592641281;
0,00278797445795039;
0,00221655121513352;
0,00171007612326369;
0,00139672058209169;
0,00131047817179691;
0,00134219212536451;
0,00129153286065287;
0,00101186319073281;
0,000489611938970447;
-0,000148857245831067;
-0,000738099263025458;
-0,00118844140987484;
-0,00152463486770307;
-0,00184058908251573;
-0,00220118240233288;
-0,00258760431016745;
-0,0029229782109196;
-0,00315004283281179;
-0,0032913615110138;
-0,00343123467611726;
-0,00363632122027552;
-0,00388165363602602;
-0,0040510275328443;
-0,0040207257887191;
-0,00376274484672336;
-0,00338567080006366;
-0,00307513110019888;
-0,00297508083954304;
-0,00309776735870083;
-0,00332765224024158;
-0,00351261756367483;
-0,00356941375818036;
-0,0035243804508365;
-0,00346599015324718;
-0,0034566716935475;
-0,00348025562099968;
-0,0034658507525692;
-0,00336160366850279;
-0,00318926864153546;
-0,00302845891116455;
-0,00294196716186603;
-0,00290702446184238;
-0,00281610600509746;
-0,00255451243875057;
-0,00209676454894543;
-0,00154419198134787;
-0,00106947622568293;
-0,00080634842753778;
-0,000765958849350433;
-0,000840855017278938;
-0,000889690589064529;
-0,000835090713626944;
-0,000701296190565601;
-0,000570004294263888;
-0,000498664467032002;
-0,000471844571805321;
-0,000423463237134178;
-0,000305095372018369;
-0,000136390799845812;
9,57601246591827E-6;
7,53878593106476E-5;
8,27261356975951E-5;
0,000131495896350873;
0,000328112589319526;
0,000696577038662681;
0,00114395353764748;
0,00151166324000303;
0,00167720368727309;
0,00163110328283852;
0,00147307647857617;
0,00133390394040113;
0,00128536418641391;
0,00130571287015082;
0,0013204118164672;
0,00127727062736898;
0,00119107211436103;
0,00112305746634602;
0,00111817542404707;
0,00115886076442658;
0,00117856342157551;
0,00112513872360836;
0,001018945983715;
0,00095193326772824;
0,00102187588645949;
0,00125099301084544;
0,00155448649355539;
0,00178760746227215;
0,00183872212340493;
0,00169957162989448;
0,00146160352102146;
0,00124450205713615;
0,0011139512901027;
0,0010502262812474;
0,000985460648885702;
0,000872209813864114;
0,000724079744778792;
0,000596951224203154;
0,000531788498580808;
0,000512599512455068;
0,000478830371773461;
0,000383075782071567;
0,000243869157375228;
0,000144751582765842;
0,000174446148668597;
0,000352963561493139;
0,000603154720190881;
0,000793555992148577;
0,000822866160297529;
0,000683590822863106;
0,000458580081952654;
0,000256162720006945;
0,000135653988517064;
7,90033591432652E-5;
2,4623161921915E-5;
-7,05464795580791E-5;
-0,000194339957159324;
-0,000296412324197643;
-0,000339949331630903;
-0,000339600242285013;
-0,000350214318368653;
-0,000414719790587262;
-0,000516538989370381;
-0,000580516650458961;
-0,000526910791168113;
-0,000337951639817095;
-8,33589312918645E-5;
0,0001183467817574;
0,000175909300849789;
8,2525559806484E-5;
-8,73905072336148E-5;
-0,00023660596457645;
-0,000312002005049635;
-0,000329960782835761;
-0,000345907626098202;
-0,00039858434703561;
-0,000477172094819865;
-0,00053664216357815;
-0,000544130204953976;
-0,000512884536443272;
-0,000492114458356237;
-0,000520302655955392;
-0,000582664820692744;
-0,000612060742823337;
-0,000537319935564601;
-0,00034269968537524;
-9,05841518334562E-5;
0,000113162385689812;
0,000187118612420331;
0,000125265797836638;
-6,00958059344686E-6;
-0,000120053881197114;
-0,00016958484543336;
-0,000169231561394163;
-0,000168341231586613;
-0,00020136484626092;
-0,000258652935906475;
-0,000300164299010976;
-0,000296703143462315;
-0,000260042430708562;
-0,00023385124982689;
-0,00025223117232995;
-0,000302012818700861;
-0,000323637907070924;
-0,000254043255532589;
-7,93162363911751E-5;
0,000145290972015163;
0,000326121574626764;
0,000391239128730817;
0,000335437570434626;
0,000217489419124421;
0,000114003279315044;
6,67535515959067E-5;
6,28478583652938E-5;
5,87928191065654E-5;
2,42739941623347E-5;
-3,21358726895581E-5;
-7,51116977405175E-5;
-7,89163905347732E-5;
-5,38874102519031E-5;
-3,83994851916935E-5;
-6,23735748359109E-5;
-0,000114166627710433;
-0,000141415155525213;
-8,87432778234362E-5;
5,60369722476246E-5;
0,000244446703557232;
0,000394400835564054;
0,000442935917373926;
0,000385590439006135;
0,00027390042210414;
0,000174944276171982;
0,000125267187521124;
0,000113600661660378;
0,000101961358718232;
6,39139417746561E-5;
6,98185969052797E-6;
-3,79935912795933E-5;
-4,85686592148383E-5;
-3,37567088648811E-5;
-2,69743804156455E-5;
-5,42407638902072E-5;
-0,000105390105118482;
-0,000134869907285564;
-9,45703638298698E-5;
2,60465736628969E-5;
0,000184842196731919;
0,000310572641889812;
0,000348662176206002;
0,000295302480810511;
0,000195192960559529;
0,000106432388949461;
6,06298847575304E-5;
4,80099771753333E-5;
3,57220274968546E-5;
9,31315262239825E-7;
-4,98540652470978E-5;
-9,00191337323228E-5;
-0,000100227066274649;
-8,82768969433143E-5;
-8,29753357548453E-5;
-0,000106722038633525;
-0,000150756882878429;
-0,000175907832126139;
-0,000140861470169004;
-3,66298988373158E-5;
0,000100549136134928;
0,000209521645448884;
0,00024350707552125;
0,000199284350701394;
0,000115170539209606;
4,08964643700477E-5;
3,47318997337529E-6;
-5,49114524501577E-6;
-1,40822076860366E-5;
-4,17963379349962E-5;
-8,30744493418694E-5;
-0,000115227982446122;
-0,000121802950739569;
-0,000109470427052325;
-0,000102762166986594;
-0,000120724040759706;
-0,000155898410426453;
-0,000175018839284857;
-0,000143055462823511;
-5,24438836195482E-5;
6,60464897873377E-5;
0,000160596952826495;
0,000191633526675459;
0,000156478321052612;
8,75573294057384E-5;
2,68839537736651E-5;
-2,76305204301278E-6;
-8,48814455807701E-6;
-1,39740595204258E-5;
-3,56325334426715E-5;
-6,87710377132004E-5;
-9,43074560919261E-5;
-9,84302500128994E-5;
-8,67609457095527E-5;
-7,9889125730353E-5;
-9,37689997842789E-5;
-0,000122132377043282;
-0,000137128767151676;
-0,000109486106958535;
-3,2932314052362E-5;
6,6794249365441E-5;
0,000146447094761439;
0,000173065133731233;
0,000144471604726219;
8,76996331980732E-5;
3,7702077547776E-5;
1,33925046636454E-5;
8,85374816729994E-6;
4,43786082876485E-6;
-1,3441144753917E-5;
-4,0878067886274E-5;
-6,20801249983052E-5;
-6,56422987110125E-5;
-5,62213371404219E-5;
-5,08044165255455E-5;
-6,25226471484995E-5;
-8,61901978633327E-5;
-9,88895339370441E-5;
-7,65887877735302E-5;
-1,41857846078929E-5;
6,71672054327682E-5;
0,00013202723589532;
0,000153447816329546;
0,000129705211834239;
8,29288492943249E-5;
4,16567978960706E-5;
2,12941467413727E-5;
1,70034970281085E-5;
1,27987559703192E-5;
-2,34407161387809E-6;
-2,52354948079507E-5;
-4,3065160243071E-5;
-4,66083551616928E-5;
-3,96479178382422E-5;
-3,59108576973078E-5;
-4,59762268315601E-5;
-6,56404990913268E-5;
-7,64486711675762E-5;
-5,91052250833803E-5;
-9,56364458508374E-6;
5,51663099114294E-5;
0,000106684682526016;
0,000123468050932183;
0,000104195531528883;
6,65700113505271E-5;
3,33448432471638E-5;
1,67627584556983E-5;
1,29574744175091E-5;
9,23692767285613E-6;
-3,12105916587589E-6;
-2,15744699033786E-5;
-3,59972334807313E-5;
-3,91258072270902E-5;
-3,39593610034781E-5;
-3,12995789657636E-5;
-3,94381589878729E-5;
-5,50566088914997E-5;
-6,37047335928394E-5;
-5,03337132663884E-5;
-1,18422772192871E-5;
3,84708878682459E-5;
7,85105034288628E-5;
9,16032465923337E-5;
7,67841283381219E-5;
4,77938596985972E-5;
2,22130203316044E-5;
9,45824780818242E-6;
6,53026257132022E-6;
3,67655538251656E-6;
-5,77306465800881E-6;
-1,98562050507493E-5;
-3,08412866504766E-5;
-3,3212757688305E-5;
-2,92715457843943E-5;
-2,72150440714523E-5;
-3,33005693706537E-5;
-4,49987008121345E-5;
-5,14213332884412E-5;
-4,1293505854787E-5;
-1,23516215391324E-5;
2,54034321834006E-5;
5,54736055716753E-5;
6,54878386580045E-5;
5,47945877277505E-5;
3,36203194310748E-5;
1,49616148479223E-5;
5,7329383137656E-6;
3,70380394607895E-6;
1,72350659599204E-6;
-5,0634217536478E-6;
-1,52075361050175E-5;
-2,30931445077831E-5;
-2,47476456504594E-5;
-2,18541099985914E-5;
-2,03108160874454E-5;
-2,45806480380445E-5;
-3,28303595744567E-5;
-3,73107885074967E-5;
-3,006960222292E-5;
-9,57799435131246E-6;
1,70680398764529E-5;
3,82953184491053E-5;
4,55151208042129E-5;
3,83501723433462E-5;
2,39392298269285E-5;
1,12546016126528E-5;
5,01631596516898E-6;
3,66966251263181E-6;
2,34568335680138E-6;
-2,22094019064509E-6;
-9,03022666650017E-6;
-1,43183913880182E-5;
-1,54617833705705E-5;
-1,36018299012105E-5;
-1,26264072124348E-5;
-1,5430788435737E-5;
-2,07901139013996E-5;
-2,36947128278072E-5;
-1,90893715746113E-5;
-6,0836630353197E-6;
1,07600481756565E-5;
2,41591389246857E-5;
2,88171249874396E-5;
2,45940614677627E-5;
1,59424701071964E-5;
8,3367940678846E-6;
4,59152527434562E-6;
3,73961543738869E-6;
2,89248237140479E-6;
1,63537328815087E-7;
-3,83749462481316E-6;
-6,95143998011398E-6;
-7,72218279817755E-6;
-6,82164267289427E-6;
-6,39853569681217E-6;
-7,99351023710073E-6;
-1,09082473862155E-5;
-1,24990482097332E-5;
-1,02102524748493E-5;
-3,70042689185237E-6;
4,65376404224551E-6;
1,12668042766784E-5;
1,36762157130449E-5;
1,19447303534565E-5;
8,21324954719936E-6;
4,94921890846567E-6;
3,33059274626892E-6;
2,89534181066407E-6;
2,45397543601424E-6;
1,30140063285104E-6;
-2,87996191342355E-7;
-1,52972551539009E-6;
-1,9667494853431E-6;
-1,86893394698995E-6;
-1,89827509053323E-6;
-2,4388807656111E-6;
-3,24303448725677E-6;
-3,6862990931263E-6;
-3,34381854255776E-6;
-2,3405865307945E-6;
-1,19059284172323E-6;
-3,32604088018102E-7;
1,80295348572762E-7;
5,81560834819842E-7;
1,04747265201923E-6;
1,49284903877905E-6;
1,70791079151159E-6;
1,65911561893862E-6;
1,5960212227431E-6;
1,81285268181117E-6;
2,29950510256558E-6;
2,67817305504003E-6;
2,56231192761262E-6;
2,02187727351777E-6;
1,64883648815277E-6;
2,03315485871881E-6;
3,04212467623008E-6;
3,60044125643447E-6;
2,34172777074603E-6;
-1,24948653842729E-6;
-6,12176357959858E-6;
-1,00732278897375E-5;
-1,11377241433228E-5;
-8,94014825326651E-6;
-4,94982011403748E-6;
-1,38714718367723E-6;
3,7882815575681E-7;
6,72913187340561E-7;
9,4534179395986E-7;
2,32282853446958E-6;
4,55758478640398E-6;
6,304238354544E-6;
6,47515556189058E-6;
5,42322619947006E-6;
4,78152003362077E-6;
5,94736357961213E-6;
8,47199014409384E-6;
9,87251702167266E-6;
7,30161766660765E-6;
-7,73232404468324E-8;
0,00932351524274913;
0,0226118877749344;
0,0163525198785898;
0,00941654177027372;
0,0121597147235363;
0,00702260669416335;
0,00563429179101179;
0,00458275822585746;
0,000841094055687563;
0,00103531197985743;
-0,00118385719661843;
-0,00198250650704623;
-0,00279728502255855;
-0,00454529757680609;
-0,00487980239356981;
-0,00584657872807387;
-0,00592814176855882;
-0,00616733064668956;
-0,0069820552510505;
-0,00791963185353243;
-0,00936168576311417;
-0,0102668340595605;
-0,0105458991241212;
-0,0101311020251613;
-0,00922106302819652;
-0,00843554133957659;
-0,00783163499650905;
-0,00745788253538605;
-0,00704770630116606;
-0,00641525223518316;
-0,00566723040571088;
-0,00494651189913403;
-0,00444051437162745;
-0,00408000036104812;
-0,00365409563940956;
-0,00301453733911721;
-0,00221147721685669;
-0,00155345298316194;
-0,00134617815962999;
-0,001663220798304;
-0,00224074891365911;
-0,0026157812619391;
-0,0024398014935429;
-0,00168451493287724;
-0,000641097828044597;
0,000310040404897252;
0,000961858601932562;
0,00137501950099237;
0,00176520405069979;
0,00228219525053366;
0,00288312416978094;
0,00339206343285379;
0,00367953673137179;
0,0037969699275469;
0,00393612490475834;
0,00424751337229396;
0,0046736422800091;
0,0049517066176932;
0,00480285962842041;
0,00416480491990417;
0,0032816790988934;
0,00256885441189062;
0,00234670885412247;
0,00264036098443637;
0,00319049634099058;
0,0036576368105998;
0,00385641784558976;
0,00384467585727025;
0,0038170832972402;
0,00391006588581041;
0,00408660392833331;
0,00418979443648817;
0,0041051812914347;
0,00387974686134037;
0,0036865049571895;
0,00366105307606738;
0,00375244498342814;
0,00372616750978033;
0,00333329433077028;
0,00251886133493031;
