-2,47438871683538E-8;
-5,20903687457152E-8;
-6,16241745362252E-8;
-5,17569745812068E-8;
-3,08716907135272E-8;
-1,09122662582963E-8;
4,92418348225094E-10;
3,61656016197417E-9;
3,96583111140052E-9;
6,35623289172322E-9;
1,09787754644011E-8;
1,4482287382166E-8;
1,44941533676561E-8;
1,29945235632018E-8;
1,50652926836854E-8;
2,38099375234484E-8;
3,59253557883653E-8;
4,22853143296884E-8;
3,39405327090966E-8;
9,27229350899474E-9;
-2,33573122159671E-8;
-4,99434587734792E-8;
-5,93671962590296E-8;
-5,00489150712807E-8;
-3,00456076342569E-8;
-1,08687163616839E-8;
1,11838241005152E-10;
3,14132663882929E-9;
3,50737764877181E-9;
5,8386203845131E-9;
1,03169790784707E-8;
1,37199243995006E-8;
1,37700106695729E-8;
1,23706288722627E-8;
1,44116340197821E-8;
2,28844642970293E-8;
3,46205784296387E-8;
4,08569367446139E-8;
3,29863236015874E-8;
9,42325374597134E-9;
-2,18464788299856E-8;
-4,74150848863437E-8;
-5,66151823007337E-8;
-4,78963434738449E-8;
-2,8924318515093E-8;
-1,06822590886565E-8;
-2,15996773512786E-10;
2,69065256868105E-9;
3,06545806407139E-9;
5,3132937212326E-9;
9,60707164008031E-9;
1,28792771868405E-8;
1,29610135435611E-8;
1,166684112117E-8;
1,36553722926225E-8;
2,17791037842224E-8;
3,30309296987808E-8;
3,90772704260982E-8;
3,17208614382572E-8;
9,42486197205922E-9;
-2,02543151807971E-8;
-4,46035259831076E-8;
-5,3488767181905E-8;
-4,5401138755072E-8;
-2,75709529194088E-8;
-1,03785298646342E-8;
-4,93852600357417E-10;
2,2675544676183E-9;
2,64483331395622E-9;
4,79099690062252E-9;
8,86780811704192E-9;
1,19835821855242E-8;
1,20918401146644E-8;
1,09064089144431E-8;
1,28240724399617E-8;
2,05403258756339E-8;
3,12266471965972E-8;
3,70277331581551E-8;
3,02106787197743E-8;
9,30061861159672E-9;
-1,8620382277994E-8;
-4,1598543186152E-8;
-5,00932583542576E-8;
-4,26572093964182E-8;
-2,60430215017577E-8;
-9,97845994746897E-9;
-7,25688857771419E-10;
1,875325894801E-9;
2,24846765011791E-9;
4,2784116196193E-9;
8,11763328086014E-9;
1,10570209438853E-8;
1,11858507246026E-8;
1,01097753641225E-8;
1,19409695635662E-8;
1,92053711543079E-8;
2,92654406448108E-8;
3,47823778409921E-8;
2,85176983638685E-8;
9,07042822738549E-9;
-1,69720699496062E-8;
-3,84738096468364E-8;
-4,65254642080132E-8;
-3,97443829293011E-8;
-2,43902566816849E-8;
-9,50283977672225E-9;
-9,12787209844026E-10;
1,51503021505534E-9;
1,88003164622313E-9;
3,78366441288155E-9;
7,36663340196119E-9;
1,01175306734685E-8;
1,02647185407179E-8;
9,29488841106627E-9;
1,10273094055377E-8;
1,78108482758903E-8;
2,72030535634338E-8;
3,24046018388094E-8;
2,66956839707874E-8;
8,75563465791925E-9;
-1,53399389759422E-8;
-3,52970774622428E-8;
-4,28618188170877E-8;
-3,67292033424964E-8;
-2,2654681456004E-8;
-8,97051576379172E-9;
-1,06103039099898E-9;
1,18621720327578E-9;
1,53945915667917E-9;
3,31005736014381E-9;
6,62747196022592E-9;
9,18138673504102E-9;
9,33991300899152E-9;
8,47589632541889E-9;
1,01033236732192E-8;
1,63858291632036E-8;
2,50861862018462E-8;
2,99485213479711E-8;
2,47881191296884E-8;
8,37189473653158E-9;
-1,37459176809885E-8;
-3,21222199851471E-8;
-3,91730047973042E-8;
-3,36751760378479E-8;
-2,08767440647446E-8;
-8,39906799493791E-9;
-1,17258561645254E-9;
8,92271396554877E-10;
1,22800898952367E-9;
2,86177613077886E-9;
5,91049915506791E-9;
8,26256152906691E-9;
8,43068663623232E-9;
7,66641924760941E-9;
9,18138967281899E-9;
1,49555477325619E-8;
2,29511839410131E-8;
2,74632007771516E-8;
2,2838903760621E-8;
7,9345297521005E-9;
-1,22074708983701E-8;
-2,89959454400975E-8;
-3,55154316268338E-8;
-3,06299804981901E-8;
-1,90881451330497E-8;
-7,80125316878158E-9;
-1,25308736522258E-9;
6,28311392019629E-10;
9,48724181168043E-10;
2,44324543021567E-9;
5,22101343270724E-9;
7,37110801409135E-9;
7,5446240049348E-9;
6,8760522302422E-9;
8,27542672779225E-9;
1,35423360083917E-8;
2,08346041048661E-8;
2,49873246150063E-8;
2,08804039440019E-8;
7,45899720597225E-9;
-1,07383533755594E-8;
-2,59550196232295E-8;
-3,19387228394714E-8;
-2,76396400367661E-8;
-1,7315849286021E-8;
-7,19017739806307E-9;
-1,30425152032748E-9;
3,96790195155039E-10;
6,97282649358776E-10;
2,05456294035388E-9;
4,5666102116357E-9;
6,5175565608485E-9;
6,69360728273476E-9;
6,11385324451304E-9;
7,39765167567422E-9;
1,21631962291802E-8;
1,87603210074646E-8;
2,25559327476812E-8;
1,89430913312539E-8;
6,95697658741754E-9;
-9,34866195035334E-9;
-2,30322443230722E-8;
-2,84817682057795E-8;
-2,47347902597693E-8;
-1,55830818171984E-8;
-6,57658089915559E-9;
-1,32940635340485E-9;
1,94998100867538E-10;
4,74945298121268E-10;
1,69812901337643E-9;
3,95180308611859E-9;
5,70654034449097E-9;
5,88114990115168E-9;
5,38643941201171E-9;
6,55510741634408E-9;
1,08325209946148E-8;
1,67546716935377E-8;
2,019495852256E-8;
1,70479693078926E-8;
6,43885097915607E-9;
-8,04835842303294E-9;
-2,02496047786351E-8;
-2,51728720378152E-8;
-2,19454413168799E-8;
-1,39071589901732E-8;
-5,96765248848083E-9;
-1,33246553414959E-9;
2,21835783617484E-11;
2,80313571023215E-10;
1,3733015943387E-9;
3,37801115340201E-9;
4,94323934363259E-9;
5,11557360681286E-9;
4,6983800998369E-9;
5,75302105712794E-9;
9,56116025464421E-9;
1,48335561650242E-8;
1,7928947115598E-8;
1,52186193297961E-8;
5,91506118381137E-9;
-6,83985162401034E-9;
-1,76254616812031E-8;
-2,20394725713894E-8;
-1,92931109532478E-8;
-1,23032459354934E-8;
-5,37293047305952E-9;
-1,31681390205198E-9;
-1,23323557273378E-10;
1,12524076855965E-10;
1,08001001015819E-9;
2,84697761683573E-9;
4,23112492977681E-9;
4,39967556492309E-9;
4,05429181934031E-9;
4,99893008997241E-9;
8,35905298559258E-9;
1,30105063942551E-8;
1,57731747190961E-8;
1,34683022057608E-8;
5,39160986032399E-9;
-5,72845854978227E-9;
-1,51723109234717E-8;
-1,90959748178817E-8;
-1,67932275606694E-8;
-1,07829489928359E-8;
-4,79735748654493E-9;
-1,28530098292202E-9;
-2,45585839268732E-10;
-3,17982232734835E-11;
8,18353904316181E-10;
2,36176851679407E-9;
3,57475144604974E-9;
3,73613258139464E-9;
3,45529181724993E-9;
4,29578346795864E-9;
7,23164559186545E-9;
1,12965781816522E-8;
1,37406140203711E-8;
1,18074638429E-8;
4,87757588170688E-9;
-4,71202567197234E-9;
-1,28982005989914E-8;
-1,63551091076974E-8;
-1,44568481962155E-8;
-9,35485239854075E-9;
-4,24757186657895E-9;
-1,24092106306407E-9;
-3,44075950970734E-10;
-1,51591091285066E-10;
5,87743079006401E-10;
1,92050838722742E-9;
2,97167754283509E-9;
3,12606129074727E-9;
2,90361242174885E-9;
3,64316289498956E-9;
6,18252878276999E-9;
9,69897200868322E-9;
1,18412888032176E-8;
1,02484174345934E-8;
4,37709722240691E-9;
-3,79472579312721E-9;
-1,08078725152476E-8;
-1,38230692646925E-8;
-1,22917529507784E-8;
-8,02326990700635E-9;
-3,72469352385716E-9;
-1,18511887097596E-9;
-4,20972331058121E-10;
-2,49363178706099E-10;
3,85496296254398E-10;
1,52227317382034E-9;
2,42413115177148E-9;
2,5707452837456E-9;
2,3992479065515E-9;
3,04409130896619E-9;
5,21465684185095E-9;
8,21918646427951E-9;
1,00783877242753E-8;
8,79474926722891E-9;
3,89554300666625E-9;
-2,96916926156414E-9;
-8,89944348628662E-9;
-1,15029962679015E-8;
-1,03009464742753E-8;
-6,79231358534049E-9;
-3,23334937590872E-9;
-1,12245351770294E-9;
-4,80257703489494E-10;
-3,27558334908624E-10;
2,09765488229771E-10;
1,16695743165318E-9;
1,93037593690105E-9;
2,06585717048455E-9;
1,94068758767481E-9;
2,49725573939554E-9;
4,32803370558284E-9;
6,86376839075947E-9;
8,45867346823519E-9;
7,45047286416825E-9;
3,43538233110495E-9;
-2,23753584358431E-9;
-7,17508758840055E-9;
-9,39476304554426E-9;
-8,48544228158765E-9;
-5,66232088095172E-9;
-2,77388706958831E-9;
-1,05274621988852E-9;
-5,22320981635923E-10;
-3,88875832160139E-10;
5,95763544595366E-11;
8,53079541175301E-10;
1,48990693891318E-9;
1,61495580327583E-9;
1,53079898089727E-9;
2,00554235042098E-9;
3,52340424152188E-9;
5,62754464811915E-9;
6,97933654296478E-9;
6,21776841567223E-9;
3,00039723883158E-9;
-1,59146944828065E-9;
-5,62655706868982E-9;
-7,49392027733499E-9;
-6,8424195060058E-9;
-4,63514907014567E-9;
-2,3498677848975E-9;
-9,78140053141905E-10;
-5,49598734213895E-10;
-4,34762198077017E-10;
-6,56517162443857E-11;
5,78163613988408E-10;
1,09805435260616E-9;
1,21367191353921E-9;
1,16404223558335E-9;
1,56261233515425E-9;
2,79933814708649E-9;
4,51262969416792E-9;
5,63881312276068E-9;
5,09469237377883E-9;
2,593076772413E-9;
-1,02841003953039E-9;
-4,248913797541E-9;
-5,79325382945932E-9;
-5,36735497179065E-9;
-3,70734926878896E-9;
-1,96035363081122E-9;
-9,01613199405741E-10;
-5,64002945630537E-10;
-4,65894846961461E-10;
-1,70251951880298E-10;
3,39218379425283E-10;
7,55482896205029E-10;
8,61238858670679E-10;
8,40668496064173E-10;
1,16947213731871E-9;
2,1517566441389E-9;
3,5121690639529E-9;
4,43460510314566E-9;
4,07890895600179E-9;
2,2120407808078E-9;
-5,41966187243424E-10;
-3,03497243805701E-9;
-4,28715337619507E-9;
-4,05500915560646E-9;
-2,87581466568997E-9;
-1,60482644493503E-9;
-8,24488235772123E-10;
-5,6726507486236E-10;
-4,84588143601E-10;
-2,5408454859168E-10;
1,35581594140163E-10;
4,5771822003222E-10;
5,5330716788239E-10;
5,58525972653081E-10;
8,23783932993125E-10;
1,57743710225323E-9;
2,62360897475269E-9;
3,36207845127467E-9;
3,17096391725168E-9;
1,86222209819835E-9;
-1,28949799980854E-10;
-1,97522646055785E-9;
-2,96282222219533E-9;
-2,89733260036487E-9;
-2,13889775000536E-9;
-1,28265562594414E-9;
-7,45998488501976E-10;
-5,61661155687107E-10;
-4,92809439134563E-10;
-3,21536949985094E-10;
-3,81914563833585E-11;
2,01416251486927E-10;
2,8658212355336E-10;
3,12483503661532E-10;
5,21618599236873E-10;
1,07500840693821E-9;
1,84148807279277E-9;
2,41399553853939E-9;
2,36337932292582E-9;
1,54102598575783E-9;
2,1853313742556E-10;
-1,06043320058084E-9;
-1,81299131368215E-9;
-1,88618439047024E-9;
-1,48940623941537E-9;
-9,94336623894224E-10;
-6,69410951781276E-10;
-5,47118335060017E-10;
-4,91785370205725E-10;
-3,71868129837575E-10;
-1,81336809303434E-10;
-1,49894559176828E-11;
6,06070531211894E-11;
1,03046678724117E-10;
2,61739526003195E-10;
6,3845063712396E-10;
1,1601445873511E-9;
1,58628704083949E-9;
1,65189060500989E-9;
1,24734172586551E-9;
5,05146226178364E-10;
-2,79522200488182E-10;
-8,24338346074325E-10;
-1,01233268005007E-9;
-9,24355430367043E-10;
-7,38334828833753E-10;
-5,94981381090193E-10;
-5,26305674862847E-10;
-4,8250638488383E-10;
-4,08078324632475E-10;
-2,98132271069392E-10;
-1,958504720481E-10;
-1,30388650930525E-10;
-7,34810139282809E-11;
4,13084678488901E-11;
2,63033818644559E-10;
5,71456505863741E-10;
8,69214202853521E-10;
1,03129199750887E-9;
9,82152730510446E-10;
7,3561582135969E-10;
3,76988614721047E-10;
1,60167475056814E-11;
-2,65143576164629E-10;
-4,37029583320653E-10;
-5,11542634340101E-10;
-5,22455223512984E-10;
-5,02599419386409E-10;
-4,68796769104442E-10;
-4,30870517385979E-10;
-3,9146169315642E-10;
-3,44187766515088E-10;
-2,86406719853055E-10;
-2,19629885933696E-10;
-1,44790576029134E-10;
-5,5467761884965E-11;
7,06248208586377E-11;
2,55586313556165E-10;
4,9558486676811E-10;
7,46034759725284E-10;
9,18594960131573E-10;
9,20624251463865E-10;
7,17872129223172E-10;
3,63647188155326E-10;
-2,17396545331845E-11;
-3,1443755213825E-10;
-4,54917105068288E-10;
-4,72615579499834E-10;
-4,47758482487595E-10;
-4,43550655689718E-10;
-4,62569333552696E-10;
-4,61843076157745E-10;
-4,13138194213485E-10;
-3,39676591031931E-10;
-2,98820512024599E-10;
-3,2103212773726E-10;
-3,50670394107874E-10;
-2,63914214391954E-10;
3,89866254753197E-11;
5,35934061456513E-10;
1,05592181275001E-9;
1,36216511594718E-9;
1,29608567602366E-9;
8,8469819374058E-10;
3,2567399248924E-10;
-1,43213346642367E-10;
-3,88765667097179E-10;
-4,3993894983397E-10;
-4,23833730310202E-10;
-4,47459420172105E-10;
-5,16090497768179E-10;
-5,54761694766134E-10;
-5,1350405633145E-10;
-4,35187418138797E-10;
-4,2357634733116E-10;
-5,38154720070756E-10;
-6,9770384760472E-10;
-6,94824686645028E-10;
-3,44468209924353E-10;
3,50963940488855E-10;
1,15569049764479E-9;
1,71161031814985E-9;
1,76017772114751E-9;
1,30900244995459E-9;
6,13252898326303E-10;
1,90391058630139E-12;
-3,29153588121963E-10;
-4,0582930117672E-10;
-3,9660107999722E-10;
-4,44065842408872E-10;
-5,52128696033121E-10;
-6,22990835933109E-10;
-5,89210916516902E-10;
-5,08117337559874E-10;
-5,21751325142375E-10;
-7,13257504898191E-10;
-9,79075341010156E-10;
-1,04531998810874E-9;
-6,61093600370401E-10;
1,90509862256039E-10;
1,22178849648339E-9;
1,97769736527457E-9;
2,12274950207558E-9;
1,64569638726824E-9;
8,44748665537261E-10;
1,23625911811672E-10;
-2,72396772970143E-10;
-3,71234722310069E-10;
-3,6925615340055E-10;
-4,33799535410856E-10;
-5,73054322883262E-10;
-6,70869939433705E-10;
-6,43883546042058E-10;
-5,61073642116631E-10;
-5,95978602293748E-10;
-8,49365587571959E-10;
-1,20084051842799E-9;
-1,32631185698642E-9;
-9,19045049861202E-10;
5,158675798157E-11;
1,25741195859783E-9;
2,17160559558722E-9;
2,39515080667839E-9;
1,90284652920704E-9;
1,02726977864648E-9;
2,25180905762186E-10;
-2,20899362050501E-10;
-3,35743899824819E-10;
-3,37977364557106E-10;
-4,17966250935583E-10;
-5,82560872982473E-10;
-7,00522182847271E-10;
-6,80583132225691E-10;
-5,97847750056664E-10;
-6,48543355725104E-10;
-9,5111694216255E-10;
-1,36971239761461E-9;
-1,54081601299986E-9;
-1,12122262367623E-9;
-6,62806628593888E-11;
1,26786155011191E-9;
2,3008240700461E-9;
2,58868392407045E-9;
2,09108451062654E-9;
1,1660755212032E-9;
3,07939020851074E-10;
-1,74080761694489E-10;
-3,0012979898629E-10;
-3,0704637342341E-10;
-3,98621890774398E-10;
-5,81671235534315E-10;
-7,1503471817676E-10;
-7,00386077850106E-10;
-6,19191651528623E-10;
-6,84036068320725E-10;
-1,023637380807E-9;
-1,49126166183687E-9;
-1,69953442860158E-9;
-1,27616292190258E-9;
-1,64903543116766E-10;
1,25791816196597E-9;
2,3762061182797E-9;
2,71371990586843E-9;
2,21916023626921E-9;
1,26454574258281E-9;
3,72369053407817E-10;
-1,3117730210926E-10;
-2,66533714636353E-10;
-2,76603344706169E-10;
-3,75381786099111E-10;
-5,7195005637987E-10;
-7,17573775877565E-10;
-7,07081287115104E-10;
-6,27682979858322E-10;
-7,03785125700409E-10;
-1,06839849251575E-9;
-1,57168832221761E-9;
-1,80893522990081E-9;
-1,38810498892421E-9;
-2,46040770785273E-10;
1,23134832756186E-9;
2,40489805372374E-9;
2,77882849077483E-9;
2,29367383324564E-9;
1,32898367112269E-9;
4,21493398268079E-10;
-9,36187522054285E-11;
-2,3380856347954E-10;
-2,46481762061528E-10;
-3,50387562925952E-10;
-5,54757430205047E-10;
-7,07601529896872E-10;
-7,01964837837869E-10;
-6,26371789295953E-10;
-7,09762758100362E-10;
-1,09051827625075E-9;
-1,61684910648043E-9;
-1,87483499397597E-9;
-1,46116311795401E-9;
-3,10253138026953E-10;
1,18850309798099E-9;
2,39189362283628E-9;
2,79280770957905E-9;
2,32375615455654E-9;
1,36524535022805E-9;
4,5726246401576E-10;
-6,02604758244454E-11;
-2,02223567486616E-10;
-2,17094232703922E-10;
-3,24336402814576E-10;
-5,32725997491237E-10;
-6,8912562172831E-10;
-6,86961939172112E-10;
-6,15625468035029E-10;
-7,04346496977597E-10;
-1,09354928370866E-9;
-1,63074666506749E-9;
-1,90179500399379E-9;
-1,50256958585079E-9;
-3,61398285227221E-10;
1,13632573498512E-9;
2,34709614882034E-9;
2,76150392629471E-9;
2,313111582699E-9;
1,37676415059742E-9;
4,81721875895732E-10;
-3,03814309572469E-11;
-1,7194569871535E-10;
-1,89363198224357E-10;
-2,97369751222875E-10;
-5,05769898348127E-10;
-6,6331639366912E-10;
-6,64373517503415E-10;
-5,98090189969222E-10;
-6,90192140331341E-10;
-1,07991300908742E-9;
-1,61942155304184E-9;
-1,89879626509845E-9;
-1,51646950724282E-9;
-3,99800553771339E-10;
1,07497948670204E-9;
2,27516317798859E-9;
2,69800107815325E-9;
2,27316763428206E-9;
1,36495395599084E-9;
4,93795442138431E-10;
-5,84724394132852E-12;
-1,45072230735019E-10;
-1,63272148682462E-10;
-2,70058096258686E-10;
-4,75023868573565E-10;
-6,31689782166174E-10;
-6,35732848740004E-10;
-5,73686639245088E-10;
-6,6771836724592E-10;
-1,05354916351218E-9;
-1,5875825931943E-9;
-1,87023996702703E-9;
-1,50686553346219E-9;
-4,25936936560286E-10;
1,00706253660402E-9;
2,18021409531085E-9;
2,60446130257432E-9;
2,20628355416543E-9;
1,33572684310811E-9;
4,98178035403396E-10;
1,67004402171828E-11;
-1,18841265212596E-10;
-1,37610464256449E-10;
-2,42650828194119E-10;
-4,4255522565841E-10;
-5,96013579124154E-10;
-6,02437311408263E-10;
-5,45497365248421E-10;
-6,39400739094113E-10;
-1,01576087734684E-9;
-1,53788855097274E-9;
-1,81826106538591E-9;
-1,47657812188997E-9;
-4,4278596382152E-10;
9,35669702803325E-10;
2,07023694109282E-9;
2,48850078404116E-9;
2,11797705823784E-9;
1,29273699198899E-9;
4,95538961430227E-10;
3,64033324800471E-11;
-9,39337275308743E-11;
-1,1366238817638E-10;
-2,15750471128918E-10;
-4,08609922128896E-10;
-5,57379960745263E-10;
-5,66035072098831E-10;
-5,13766079596604E-10;
-6,06562471303472E-10;
-9,6997985502461E-10;
-1,47376483658221E-9;
-1,74954070239745E-9;
-1,43192692098893E-9;
-4,51963319085082E-10;
8,60995809702245E-10;
1,94708488668646E-9;
2,35523783197564E-9;
2,01418700536732E-9;
1,23884067237871E-9;
4,85556578432433E-10;
5,05157408805908E-11;
-7,24451575957941E-11;
-9,20794056583294E-11;
-1,90114862674868E-10;
-3,74218458320638E-10;
-5,16461550011589E-10;
-5,26061682595279E-10;
-4,79697087033765E-10;
-5,70097681788494E-10;
-9,17533333185881E-10;
-1,39848366269256E-9;
-1,66457780072271E-9;
-1,3725062544901E-9;
-4,52592539282692E-10;
7,86725576120682E-10;
1,81596742542185E-9;
2,20873549541915E-9;
1,89714210873743E-9;
1,17480432686501E-9;
4,69798873338125E-10;
6,20250064005072E-11;
-5,38639429884818E-11;
-7,27343804617409E-11;
-1,65886099821434E-10;
-3,39458785166864E-10;
-4,74001372558033E-10;
-4,85633686742578E-10;
-4,43728801563758E-10;
-5,30256809150818E-10;
-8,59845703078853E-10;
-1,31665096480798E-9;
-1,57249261036541E-9;
-1,30437864847512E-9;
-4,46710451516998E-10;
7,12697598223666E-10;
1,679172541479E-9;
2,05487409344248E-9;
1,77254702565725E-9;
1,10466472219836E-9;
4,50954640614963E-10;
7,08582523464168E-11;
-3,70675960961744E-11;
-5,44506966856524E-11;
-1,42626590001528E-10;
-3,05349195133091E-10;
-4,31777823824527E-10;
-4,4486838971592E-10;
-4,07384916547654E-10;
-4,88926883172844E-10;
-7,9892022761375E-10;
-1,22781578170051E-9;
-1,47148710500124E-9;
-1,22970341866148E-9;
-4,3657329163436E-10;
6,39975061835433E-10;
1,53997410365079E-9;
1,89529510493894E-9;
1,64229461310899E-9;
1,03041970316564E-9;
4,28421378175214E-10;
7,84415699754425E-11;
-2,13477806361683E-11;
-3,91206685152295E-11;
-1,21105502787425E-10;
-2,72455856508041E-10;
-3,91469466813247E-10;
-4,03635417863316E-10;
-3,70256317400225E-10;
-4,48838816280703E-10;
-7,36900667142978E-10;
-1,13593386009196E-9;
-1,36591638349367E-9;
-1,14812874563971E-9;
-4,21563884430968E-10;
5,6909469561695E-10;
1,40208228862836E-9;
1,73564221772033E-9;
1,50892873704629E-9;
9,52964841970401E-10;
4,04645904924827E-10;
8,41059446161719E-11;
-8,46853105773555E-12;
-2,53789808756223E-11;
-1,00700988777143E-10;
-2,39689046583434E-10;
-3,5000965320876E-10;
-3,64129967666766E-10;
-3,35434642911534E-10;
-4,08438929948075E-10;
-6,74558048835347E-10;
-1,04292863371111E-9;
-1,25801232881461E-9;
-1,0644003441536E-9;
-4,04225197990006E-10;
5,01166173327543E-10;
1,26598208989912E-9;
1,57629561864339E-9;
1,37643049268133E-9;
8,74646458884437E-10;
3,77571154459143E-10;
8,7112433369898E-11;
2,17145579156268E-12;
-1,38281925308371E-11;
-8,20270314585034E-11;
-2,09917702358249E-10;
-3,11408062616326E-10;
-3,24298466417068E-10;
-2,99614003090638E-10;
-3,68244845606006E-10;
-6,11972023532789E-10;
-9,4977351055768E-10;
-1,14972255332447E-9;
-9,77681260457431E-10;
-3,82830138206027E-10;
4,35973075283861E-10;
1,13208781926421E-9;
1,41896721630098E-9;
1,24464935427067E-9;
7,96167730836903E-10;
3,49810576598851E-10;
8,77873187626083E-11;
1,19046733639244E-11;
-2,24018733284775E-12;
-6,56995872020584E-11;
-1,81336292804048E-10;
-2,73302302714242E-10;
-2,86618344621514E-10;
-2,65674820587711E-10;
-3,28503771437383E-10;
-5,50191212861581E-10;
-8,58260283637754E-10;
-1,04186412795605E-9;
-8,91516502048016E-10;
-3,59182335260559E-10;
3,7764741355837E-10;
1,00517350789466E-9;
1,26770313920164E-9;
1,11692515591344E-9;
7,1880325492108E-10;
3,22059350844658E-10;
8,89128626585422E-11;
2,02609048938848E-11;
6,96506683936855E-12;
-4,99771811838858E-11;
-1,55125075308597E-10;
-2,38676707621121E-10;
-2,50414971263184E-10;
-2,32996472729351E-10;
-2,91862968490208E-10;
-4,92369493954608E-10;
-7,69770746285406E-10;
-9,36950979837876E-10;
-8,07082818385305E-10;
-3,35523691401891E-10;
3,20257642532554E-10;
8,82919600266934E-10;
1,12311414065651E-9;
9,94364950424011E-10;
6,4478977327573E-10;
2,93704276054596E-10;
8,73788672381057E-11;
2,7576245032054E-11;
1,43089583958914E-11;
-3,77739338090546E-11;
-1,30387516060667E-10;
-2,04855431241693E-10;
-2,1783400348766E-10;
-2,03246373800614E-10;
-2,56245643076426E-10;
-4,3589695930051E-10;
-6,83652015286562E-10;
-8,3610024087778E-10;
-7,25339331806157E-10;
-3,10036044489918E-10;
2,69928660938699E-10;
7,68582882141832E-10;
9,83903464965691E-10;
8,76097136765646E-10;
5,72433307086378E-10;
2,66005081036902E-10;
8,50626723174703E-11;
3,10319325752061E-11;
1,95291119391313E-11;
-2,60968083532797E-11;
-1,08455216662018E-10;
-1,74268267327366E-10;
-1,86563306963949E-10;
-1,74902908911199E-10;
-2,21501837213208E-10;
-3,81176986676933E-10;
-6,02561472831286E-10;
-7,3959745906702E-10;
-6,45675351035289E-10;
-2,84945009610811E-10;
2,22381733039757E-10;
6,62155599192353E-10;
8,54358982791331E-10;
7,64937876589658E-10;
5,04583541878601E-10;
2,38808971341293E-10;
8,20064495262699E-11;
3,45494318955495E-11;
2,44913327922101E-11;
-1,41927891599184E-11;
-8,8113966100126E-11;
-1,47180753783113E-10;
-1,57253389322596E-10;
-1,48109522170408E-10;
-1,91462610578833E-10;
-3,31592121979605E-10;
-5,25602546231932E-10;
-6,4834698534634E-10;
-5,70067063417322E-10;
-2,5999903163293E-10;
1,78678866130503E-10;
5,61606107874118E-10;
7,33429550053773E-10;
6,61119919869167E-10;
4,39177036044259E-10;
2,12983296511534E-10;
7,79679151914127E-11;
3,74913119803206E-11;
2,85288778300484E-11;
-6,81573435419958E-12;
-6,9140465902782E-11;
-1,20061717286305E-10;
-1,30656961892429E-10;
-1,24028841959543E-10;
-1,616098963065E-10;
-2,82929672386897E-10;
-4,53392686277122E-10;
-5,62028095532078E-10;
-4,97480340013704E-10;
-2,34091993279952E-10;
1,40961223505346E-10;
4,704884618699E-10;
6,21736022974549E-10;
5,64718396859018E-10;
3,78563020572319E-10;
1,87148163659956E-10;
7,34338970524664E-11;
3,92929087248823E-11;
3,10093957591709E-11;
1,26511260949998E-12;
-5,17858622089012E-11;
-9,64079723732771E-11;
-1,06949106148454E-10;
-1,02162263924043E-10;
-1,35191388859992E-10;
-2,40261347523979E-10;
-3,86620900514625E-10;
-4,81001648982026E-10;
-4,30708856707479E-10;
-2,10450641632101E-10;
1,07580691056765E-10;
3,87251715008415E-10;
5,17846942745583E-10;
4,75181195567346E-10;
3,231284007653E-10;
1,64589350058988E-10;
6,92155916876125E-11;
4,0219880926328E-11;
3,37357064629191E-11;
7,79509709088675E-12;
-3,8150072325453E-11;
-7,56828553470246E-11;
-8,54798495987667E-11;
-8,1913252229521E-11;
-1,10386112735973E-10;
-2,00757152725279E-10;
-3,25121488614233E-10;
-4,07479635929111E-10;
-3,68682776354437E-10;
-1,8690053240445E-10;
7,61594896735885E-11;
3,11770402710854E-10;
4,25796332601699E-10;
3,93329561058648E-10;
2,70961480177211E-10;
1,42955640087437E-10;
6,3953250550521E-11;
4,01069851636463E-11;
3,44836833827693E-11;
1,22828990469815E-11;
-2,55565829809779E-11;
-5,74035518905981E-11;
-6,56227216260966E-11;
-6,34116267017914E-11;
-8,89984032802509E-11;
-1,64270810649435E-10;
-2,68056424110823E-10;
-3,38683641537459E-10;
-3,10497323938336E-10;
-1,64752086719554E-10;
5,02929552276741E-11;
2,44598802013722E-10;
3,40288210686443E-10;
3,1967626473882E-10;
2,2444590595018E-10;
1,21297404207734E-10;
5,95711276358294E-11;
4,01830348857159E-11;
3,41240820408509E-11;
1,70985851794572E-11;
-1,43853252238105E-11;
-4,1648623036775E-11;
-4,88677598236704E-11;
-4,84949061606673E-11;
-7,00003467576157E-11;
-1,3169282745973E-10;
-2,17431709167661E-10;
-2,76245862799155E-10;
-2,56825712031566E-10;
-1,43620891075342E-10;
2,75270941530549E-11;
1,85085760528062E-10;
2,65731962125101E-10;
2,53438452302742E-10;
1,82017190619932E-10;
1,02905056979904E-10;
5,39445163926405E-11;
3,86961651582583E-11;
3,34382010947229E-11;
1,93688451310615E-11;
-4,89395386908043E-12;
-2,66684047567532E-11;
-3,36542493046377E-11;
-3,40223768652814E-11;
-5,15717676435334E-11;
-1,01151987963607E-10;
-1,71379291426415E-10;
-2,22731075995963E-10;
-2,10537018302607E-10;
-1,23805042685429E-10;
8,00588082015232E-12;
1,3167156736798E-10;
1,97673219322691E-10;
1,94139189378443E-10;
1,4347843778591E-10;
8,50039697796381E-11;
4,95926336120525E-11;
3,68806627293277E-11;
3,25707581801748E-11;
2,23187440281611E-11;
3,25021514261865E-12;
-1,29530887139832E-11;
-1,96314573042602E-11;
-2,17690329585531E-11;
-3,65257476859795E-11;
-7,6823312236395E-11;
-1,31337231510267E-10;
-1,71315063106138E-10;
-1,66223072763194E-10;
-1,05405790930441E-10;
-8,91770431891548E-12;
8,47613217021072E-11;
1,38859408483847E-10;
1,41565006985874E-10;
1,08744035550444E-10;
6,84004529187717E-11;
4,40171102934184E-11;
3,62332021472152E-11;
3,2493731757769E-11;
2,44886998363019E-11;
9,80298520408471E-12;
-3,70033587895963E-12;
-9,29391823521646E-12;
-1,16961990635709E-11;
-2,27452819901069E-11;
-5,29264599265947E-11;
-9,46018192657523E-11;
-1,26490434248156E-10;
-1,27807155180085E-10;
-8,86006088460418E-11;
-2,1392817844415E-11;
4,64978673624423E-11;
8,81328712576703E-11;
9,48772760406179E-11;
7,81300696529555E-11;
5,47965365757402E-11;
3,94899453502106E-11;
3,37883849694216E-11;
3,11810065938549E-11;
2,53354254809218E-11;
1,45954274471688E-11;
5,88966758857278E-12;
9,78647801511421E-13;
-2,49940661901919E-12;
-1,13345968194742E-11;
-3,36660951269037E-11;
-6,24701285660543E-11;
-8,7585059195415E-11;
-9,42937625669268E-11;
-7,23173794469642E-11;
-3,32294415393675E-11;
1,06057294702225E-11;
4,3783143144605E-11;
5,52448158382135E-11;
5,20881384821772E-11;
4,2798280400896E-11;
3,51866492009887E-11;
3,22721432857638E-11;
3,00346712187192E-11;
2,55146011613532E-11;
1,88575778934622E-11;
1,25554467253743E-11;
8,78576882005591E-12;
5,58160222900715E-12;
-1,73954359409878E-12;
-1,49340721469312E-11;
-3,46334046077636E-11;
-5,50468306825873E-11;
-6,4501341596564E-11;
-5,87869345135223E-11;
-4,0715267962881E-11;
-1,70781050761084E-11;
4,7936150283104E-12;
2,10912780287368E-11;
2,90404956935917E-11;
3,07023114189115E-11;
3,06478741305509E-11;
2,95507941263028E-11;
2,78246834090416E-11;
2,519027234156E-11;
2,22753523012391E-11;
1,93761111658526E-11;
1,49914695765101E-11;
1,15024337832604E-11;
7,2993938240725E-12;
-1,49989322580994E-12;
-1,20049473639598E-11;
-2,38972886222553E-11;
-3,73717420383477E-11;
-4,66274923555477E-11;
-4,76113095182132E-11;
-4,01981198103642E-11;
-2,57055373102059E-11;
-7,72163657225403E-12;
9,19312040227271E-12;
2,12497845795623E-11;
2,63756797885597E-11;
2,67229581717239E-11;
2,59228992591604E-11;
2,59411405795699E-11;
2,5468371956218E-11;
2,32832209900309E-11;
2,11784084610314E-11;
1,73212306654388E-11;
1,27178567915604E-11;
1,10144095138374E-11;
8,32709555365687E-12;
-1,7608397111897E-13;
-1,53732228484193E-11;
-3,46471470257019E-11;
-5,28785920971429E-11;
-6,04669804861765E-11;
-5,15988920850856E-11;
-3,18133945887776E-11;
-7,81052443741705E-12;
1,21162160183096E-11;
2,24283614100333E-11;
2,4846189948805E-11;
2,37088854630473E-11;
2,44065328772137E-11;
2,65247636528084E-11;
2,74358764427899E-11;
2,48208377121905E-11;
2,04901510776792E-11;
1,97778877870472E-11;
2,1442717196233E-11;
2,46054345502898E-11;
2,13612984199084E-11;
3,45550395663141E-12;
-2,45798415843579E-11;
-5,60821776796844E-11;
-7,52157964858652E-11;
-7,21519322909718E-11;
-5,24500738536233E-11;
-2,18574429059218E-11;
5,14503211167863E-12;
1,82003539460598E-11;
2,22225830795136E-11;
2,17896378150688E-11;
2,27887634215615E-11;
2,74743846244889E-11;
3,00848856349682E-11;
2,82968257280543E-11;
2,41241701348688E-11;
2,34335867009735E-11;
3,05020815010393E-11;
3,86724439197521E-11;
3,77388589394564E-11;
2,01537619393699E-11;
-1,60699105219769E-11;
-5,79158211886272E-11;
-8,64044308229392E-11;
-8,97361619629143E-11;
-6,72401650635526E-11;
-3,22833918986362E-11;
-1,79772921111726E-12;
1,52687124320617E-11;
1,96954523024868E-11;
1,93842326922778E-11;
2,25900334116596E-11;
2,83338413712296E-11;
3,13094314891478E-11;
3,02631474366927E-11;
2,65821141481091E-11;
2,75749260273321E-11;
3,70426059681743E-11;
4,89961373206183E-11;
5,25878714505408E-11;
3,37084831045983E-11;
-8,65004939548299E-12;
-5,83707280279996E-11;
-9,49179823565157E-11;
-1,02452802894572E-10;
-7,99843398915618E-11;
-4,1424439770358E-11;
-7,4601339338018E-12;
1,11234757114278E-11;
1,75852190128415E-11;
1,86468826906786E-11;
2,16542326797283E-11;
2,77534325582682E-11;
3,27874357780773E-11;
3,2177646655067E-11;
2,72802232610123E-11;
2,91472457489285E-11;
4,18362792320182E-11;
5,72692297894048E-11;
6,25879819694538E-11;
4,36861359252037E-11;
-1,78192668844826E-12;
-5,81980250662095E-11;
-1,01120088952697E-10;
-1,11712070481541E-10;
-8,88893954861685E-11;
-4,78483709302569E-11;
-1,06122227641906E-11;
9,87186331183133E-12;
1,55626167416374E-11;
1,59461081489032E-11;
2,04683454407764E-11;
2,79787962845992E-11;
3,31313444951982E-11;
3,26624781971982E-11;
2,81650787186829E-11;
3,04596626841429E-11;
4,42090459123999E-11;
6,31580997240938E-11;
7,13984019701476E-11;
5,17344426144889E-11;
4,12266287092922E-12;
-5,64776713421717E-11;
-1,03946850506491E-10;
-1,1680478800635E-10;
-9,49192278240399E-11;
-5,38726155506363E-11;
-1,58101630859631E-11;
6,24692176761177E-12;
1,30503776368062E-11;
1,36935872283293E-11;
1,83366583682565E-11;
2,68666559206796E-11;
3,24473902749197E-11;
3,20472342231447E-11;
2,91527406751468E-11;
3,19702111648848E-11;
4,69582483614653E-11;
6,82038600805738E-11;
7,75910450690252E-11;
5,83401506439983E-11;
9,07736309315397E-12;
-5,4086544390218E-11;
-1,05085059018504E-10;
-1,20886996856265E-10;
-9,91171117171114E-11;
-5,68213508539617E-11;
-1,71747674789428E-11;
4,66000982987328E-12;
1,11738676451543E-11;
1,17345648992832E-11;
1,55888685805777E-11;
2,5045014346904E-11;
3,17821338824326E-11;
3,20845250772729E-11;
2,88436198769901E-11;
3,13470241097532E-11;
4,81623645694041E-11;
7,03080388027879E-11;
8,03934076909063E-11;
6,23501127864483E-11;
1,22072130509751E-11;
-5,2483069418241E-11;
-1,04682332092404E-10;
-1,21599402908733E-10;
-1,00742579785757E-10;
-5,97092701255612E-11;
-1,9480859943667E-11;
3,41072705996081E-12;
8,77483541645684E-12;
1,06701025472341E-11;
1,53728462489483E-11;
2,31029038242961E-11;
3,09012211326085E-11;
3,10986671705834E-11;
2,78697156780446E-11;
3,1857929670641E-11;
4,84174794919569E-11;
7,19917946427205E-11;
8,28980525709039E-11;
6,49245292971283E-11;
1,58255706416918E-11;
0,00933343399695101;
0,0226297297231525;
0,0163727371556621;
0,00943309607627937;
0,01216939172535;
0,00702616730968264;
0,00563481713151047;
0,00458271006082249;
0,000840500098385234;
0,00103239238614529;
-0,010523873519038;
-0,0246216824538757;
-0,0191798741817271;
-0,0139867774707271;
-0,0170567167546349;
-0,0128820679911497;
-0,0115760343314894;
-0,0107651982932726;
-0,00783407669166702;
-0,00895309590179928;
0,00117498550120076;
0,0143787936732258;
0,0086613746993087;
0,00387825425507616;
0,00784905205927222;
0,00445177121628338;
0,00374560023419524;
0,00330772688509003;
0,000786023486589969;
0,00253441886181657;
-0,00685043915962823;
-0,0193372810170546;
-0,0131144562039074;
-0,00796902174011148;
-0,0115128779574442;
-0,00747833862823853;
-0,00597383270769747;
-0,00488055586960994;
-0,00214709987202908;
-0,00419966440528965;
-0,00470872033152887;
-0,00587951064855349;
-0,0056650434791747;
-0,00312125922358561;
-0,00128124787213329;
0,000768841020118152;
0,00130267917110107;
0,00167371477324824;
0,00307173160338418;
0,00544573399505503;
0,0181063056857785;
0,0338794021155569;
0,0285098598789484;
0,0208924622400863;
0,0222627122640205;
0,0163466751058045;
0,014927458447231;
0,014020613174506;
0,00954774134288239;
0,00766941786367283;
0,00268397095453822;
-0,00039753136395676;
-0,00204171346742584;
-0,00323318983751406;
-0,00256381020971699;
-0,00308071610043919;
-0,00354465608868756;
-0,00431697521489295;
-0,00483545954797142;
-0,00423286306635763;
-0,00347145552684632;
-0,00270420284124481;
-0,00274169336881951;
-0,00347230877265404;
-0,00419340284364113;
-0,00453339459532546;
-0,0042678789845348;
-0,00404889919165395;
-0,00453114493091238;
-0,0059257171056669;
-0,00780759632409073;
-0,00922202264761953;
-0,00952320368981151;
-0,00869330079651517;
-0,00736131869413336;
-0,00628870693807059;
-0,00576069591850141;
-0,00548808667780035;
-0,0048968118380108;
-0,00369373160401356;
-0,00214075867074529;
-0,000840820630897612;
-0,000254806946470388;
-0,000314700242795263;
-0,000509347039882755;
-0,000336720040660571;
0,000247576310709924;
0,000764857468902016;
0,000610590742247786;
-0,000420288866401082;
-0,00189983148945867;
-0,00303051104025208;
-0,00320467714427612;
-0,0024186565326767;
-0,00122765694608234;
-0,000288313304611863;
0,000134318009062904;
0,00030788350614829;
0,00073279235606669;
0,00166973843758152;
0,00289487475455039;
0,00387798845229653;
0,00422212391870425;
0,00398739929799436;
0,00362422605428379;
0,00357360014660759;
0,0038730149697214;
0,00410490231709748;
0,00374073603410572;
0,00260402063730991;
0,00107210503134141;
-0,000155545128631263;
-0,000545763711379839;
-9,46157277148944E-5;
0,000713820134575597;
0,00130664153447475;
0,00145236557925277;
0,0013840754186436;
0,00153761081960445;
0,00214076832138136;
0,00300040983809737;
0,00365764825150936;
0,00376961326915014;
0,00338973999607691;
0,00290905222783938;
0,00270905890809638;
0,00282075830963008;
0,00288122488078369;
0,0024326710141344;
0,00132341839453076;
-0,000118381271129897;
-0,0012863889838054;
-0,00171907075016479;
-0,0014132047674061;
-0,000787596995507341;
-0,000337865601978507;
-0,000265029861155116;
-0,000369448604743836;
-0,000276520222894157;
0,000209733276011876;
0,000923801758259889;
0,00147231393423189;
0,00156179659908439;
0,00123858867613007;
0,000837615520629945;
0,00068442208582778;
0,000803514149443347;
0,000882379470410964;
0,000528546533345261;
-0,000387190118569537;
-0,0015830446564169;
-0,00253979207970306;
-0,00286287635133914;
-0,00255000952483709;
-0,00195955967252214;
-0,00151550542260167;
-0,00139064969498991;
-0,00141638915162007;
-0,00127491903640052;
-0,000799812422051909;
-0,000131105762126129;
0,000398342593069723;
0,000540661517081613;
0,00033561474646604;
6,63868508635019E-5;
7,05776746351346E-6;
0,000176457756993261;
0,000308928110053828;
7,24988163104086E-5;
-0,00064118917455566;
-0,00159305397554439;
-0,00234409956689445;
-0,00256132243911499;
-0,00224301514510365;
-0,00169152736752998;
-0,00126448800491272;
-0,00110832787020708;
-0,0010826057392601;
-0,000921394365176822;
-0,00048514306700711;
0,000109731746533458;
0,000586112896165417;
0,000738159280621244;
0,000599826213082219;
0,000407159427146342;
0,000387459469415873;
0,000554794612039045;
0,000686824982064239;
0,000507276969026938;
-7,29476044153392E-5;
-0,000853735231462274;
-0,0014693686028181;
-0,00164296354289225;
-0,00137310921832288;
-0,000910684509956905;
-0,000552409243340368;
-0,000420335260676286;
-0,000399453047124792;
-0,000270945564202921;
8,03730630238261E-5;
0,000559684435441419;
0,00094067368171279;
0,00105578511525613;
0,000933736028118309;
0,000767802135862772;
0,000742928958250863;
0,000869074880550213;
0,000963448107545041;
0,000800456332740325;
0,000308467276260318;
-0,00968130995421002;
-0,0234991836899632;
-0,0174030800562835;
-0,0102624843263219;
-0,0126401402577291;
-0,00722203201995448;
-0,00573943858310787;
-0,00468768550917667;
-0,000861233851214755;
-0,000791196132536407;
0,00179585031699679;
0,00288330945705433;
0,00377304820920248;
0,00540663005248129;
0,00559442256266213;
0,00653101698996188;
0,00670453397737878;
0,00700708109271361;
0,00767255430787069;
0,00819113704920362;
0,00908035268186896;
0,00954393233871531;
0,00967758925773834;
0,00941496942131173;
0,00878860324922402;
0,00822111489384462;
0,0076865643268166;
0,00730576160033564;
0,00695324000583363;
0,00651867170456198;
0,00605003132001371;
0,00554771980656838;
0,00509460493508277;
0,00464163476437693;
0,00410107028594188;
0,00343982879212668;
0,00271025546742783;
0,00210119377485515;
0,00177414151962049;
0,0017591516601346;
0,0019002536866875;
0,00192711245982237;
0,00163599050269245;
0,000999763380743485;
0,000180107002759683;
-0,000596472598131179;
-0,00118875651858674;
-0,00160327911422759;
-0,00194808625293377;
-0,00231477581510851;
-0,00270406776436789;
-0,00304679519144507;
-0,00329122168152635;
-0,00347246178347777;
-0,00368936912365764;
-0,00400710386072164;
-0,00436887749508525;
-0,0046038721037259;
-0,00454205326174101;
-0,00415260254630546;
-0,00359681617865584;
-0,00314412432625888;
-0,00300580021819613;
-0,00320602541088174;
-0,00358248131745836;
-0,00391116736176531;
-0,00405716172613804;
-0,00404012711167676;
-0,00397666878178718;
-0,00396037661825326;
-0,00398449928652964;
-0,00396743931996161;
-0,00384888767912935;
-0,00366296613067732;
-0,00351640239367706;
-0,00348562795484802;
-0,00352280122918555;
-0,00346085319605153;
-0,00312843432440522;
-0,0024914970011782;
-0,00170811496487491;
-0,00104497916696367;
-0,000710597290386057;
-0,000726406216690228;
-0,000929121983465214;
-0,00109735539207802;
-0,00110255172582258;
-0,000971882937214754;
-0,000826347668552363;
-0,000757689897269511;
-0,000751160662040387;
-0,000714571293371736;
-0,000579314366344384;
-0,000376929355555384;
-0,000217591911613465;
-0,000184708064896682;
-0,000237418221610687;
-0,00021288876261202;
5,98992259022487E-5;
0,000618331109021672;
0,00131028578088391;
0,00187608824918727;
0,00211337801294643;
0,00200399594557311;
0,00171032921485483;
0,00144895185100957;
0,00134174875271428;
0,00135611598688835;
0,00136949254401681;
0,0012933145252999;
0,00114904746249262;
0,00103660105866451;
0,00103068060098462;
0,00110244966786728;
0,00114046947794768;
0,00105666679276463;
0,000885381799358039;
0,000783428146936794;
0,000918926291676878;
0,00133133717408203;
0,0018755008901959;
0,00230109829210616;
0,00241351963558512;
0,00219725628492914;
0,00181122477973874;
0,00146445861006123;
0,00127111144598244;
0,00119410126595687;
0,00111090549961281;
0,000936456832631382;
0,00069707766251182;
0,000497243369849113;
0,00041523577272123;
0,00042444974933896;
0,000413543743444125;
0,000291344724163428;
8,57714539382515E-5;
-5,41253455762353E-5;
3,4479902725137E-5;
0,000391792214995616;
0,000880158449309014;
0,0012602852013133;
0,00134643390933212;
0,00112511415184304;
0,000749635470256175;
0,000419321529149007;
0,00023985400453812;
0,000170604442427492;
9,05280658201407E-5;
-8,16021322919198E-5;
-0,000316077412269251;
-0,000506383356821108;
-0,000572620820016025;
-0,000539366658957523;
-0,000516483946271486;
-0,00059662666635935;
-0,000757845385729557;
-0,000859909371822441;
-0,000746917368957218;
-0,00037873631955086;
0,000115153904683739;
0,000508050959495378;
0,000624230865713301;
0,000452000888394748;
0,000137695373225888;
-0,000130409372147189;
-0,000255265404723528;
-0,000279882918124648;
-0,000322314482706958;
-0,000459387373961448;
-0,000658964624894282;
-0,000814322597501883;
-0,000845301635907669;
-0,000774351305969896;
-0,00070843136196934;
-0,000740019217848104;
-0,000852399355346244;
-0,000914659573928599;
-0,000778840795955359;
-0,000405330444479751;
8,52267143067035E-5;
0,00048005905735064;
0,000614470017783433;
0,000478542243433096;
0,000210764934375687;
-1,24329664981418E-5;
-0,000102502213572107;
-0,000103692957157922;
-0,000129720953240962;
-0,000252500964638075;
-0,000438209359249706;
-0,000581365443427361;
-0,000602618805886368;
-0,000522181650321849;
-0,000442912563798936;
-0,000455690662859385;
-0,000548316914649253;
-0,000599465314161883;
-0,000469852385502317;
-0,000120760247023073;
0,000336413092997006;
0,000703725307244645;
0,000828167886869355;
0,000701519881928628;
0,000453768150108136;
0,000248945471700222;
0,000167280728623556;
0,000164194268732845;
0,000131302367522882;
1,88953990542208E-6;
-0,000189254503221569;
-0,0003391692894653;
-0,000370280850982007;
-0,000300590359373077;
-0,000227999466340349;
-0,000240710580156182;
-0,000330465063057691;
-0,000385699988314927;
-0,000276389082752048;
3,48967069327785E-5;
0,000446124065082982;
0,000774626953239031;
0,000879380673241939;
0,000753683593041232;
0,000518507399230872;
0,000325123331705985;
0,000245625244402708;
0,000235788751371433;
0,000193239151471573;
5,65494112298377E-5;
-0,000139214723572187;
-0,00029471628305309;
-0,000335009814293298;
-0,000276004482543087;
-0,000210061412560361;
-0,000221899229069484;
-0,000306713811146276;
-0,000362762751595742;
-0,000269678085098194;
8,32399459063927E-6;
0,000378497152425448;
0,000673568901180919;
0,000764541603270453;
0,000646035715685944;
0,000429684591604183;
0,000253854460070507;
0,000182757093462771;
0,000173074766068378;
0,000128908675163831;
-5,89088249637203E-6;
-0,000196570109719887;
-0,000348290883021753;
-0,000389413701181182;
-0,000333885319125864;
-0,000268114636995337;
-0,000272704934894778;
-0,000345841222289282;
-0,000395497573479899;
-0,00031114939269637;
-5,89203978489326E-5;
0,000277545131882828;
0,000546261098644793;
0,000630139212962499;
0,000524959539248033;
0,000332903850664918;
0,000179521908777653;
0,000121491128362353;
0,000116871572042022;
7,6561372477071E-5;
-5,03725484142795E-5;
-0,000229950785622112;
-0,000372476869667144;
-0,00041011216144925;
-0,000354953605701104;
-0,000287174594791915;
-0,000282768646602218;
-0,000342451911926001;
-0,000383663041432145;
-0,000305710412560148;
-7,67952539092236E-5;
0,00022827567786762;
0,000472514405163677;
0,000550494274376844;
0,000459024948483871;
0,000290899946343194;
0,000159131586875913;
0,000113280897136425;
0,000113177225229192;
7,6702786960923E-5;
-4,19688172769932E-5;
-0,000209993146551975;
-0,000343265341109374;
-0,000378094766871487;
-0,00032483847389524;
-0,000257276783734189;
-0,000246435957051176;
-0,000295133775761879;
-0,000329917664490669;
-0,000259771778399228;
-5,50821846674522E-5;
0,00955127109594823;
0,0230662723203844;
0,0168796352942766;
0,00985971978940048;
0,0124487082376984;
0,00719203502883689;
0,00576399187189498;
0,00471384765428283;
0,000937177455466569;
0,00101729977066731;
-0,00136318942091705;
-0,00229003261455805;
-0,0031389115470466;
-0,00483625409340508;
-0,0051051518173312;
-0,00605927340229604;
-0,00618496170841507;
-0,00645666232982636;
-0,00720663287372282;
-0,00795373081401736;
-0,0091412150067697;
-0,00984233923203801;
-0,0100562220984111;
-0,00971715452974543;
-0,00894515245956604;
-0,00826530161206111;
-0,00769491478248199;
-0,00731920096070022;
-0,00694290738938063;
-0,00641869595011787;
-0,00582290315484885;
-0,00522348037655024;
-0,00475094565320081;
-0,00434408354870623;
-0,00385616949962852;
-0,00320205404916791;
-0,00243688600970101;
-0,00180811475044361;
-0,00154391328554124;
-0,00169146737291044;
-0,00204180444149338;
-0,0022347224819093;
-0,0020008040162135;
-0,00131321570071033;
-0,000392215529449969;
0,000466556482646406;
0,00109072114182848;
0,00150651462651127;
0,00186450004270197;
0,0022799925380476;
0,00273880318906392;
0,00313429257669225;
0,00338965758428982;
0,00354950990039227;
0,00374714814813495;
0,00407487898738863;
0,00446930137741553;
0,0047216965131764;
0,00462284549548678;
0,00413471550872896;
0,00345304822605584;
0,00290184655241294;
0,00273122728168082;
0,00296537195077104;
0,00340842030017965;
0,00379614542829844;
0,0039730548019058;
0,00396493362904849;
0,00390747091522716;
0,00390650682633946;
0,0039518653396733;
0,00395021427623276;
0,00383547349265165;
0,00364892447733751;
0,00351072553832615;
0,00350321914938634;
0,00356887177404591;
0,00352061110135901;
0,00317150843136794;
0,00248874078824525;
0,00164882450250223;
0,000942707655298713;
0,000594722275851082;
0,000626552626430055;
0,000862829028336928;
0,00106673562288434;
0,00109833381154336;
0,0009794839775083;
0,00083038943092026;
0,000745274982806031;
0,000715638518300245;
0,00065928924811091;
0,000518111647467371;
0,000328774122928393;
0,000197120207341297;
0,000194617689075928;
0,000268284340376543;
0,000250564525266777;
-2,51365447108851E-5;
-0,000587909938115904;
-0,0106142695786639;
-0,0244754316438018;
-0,0184565640622997;
-0,0114097054793651;
-0,0138497820002974;
-0,00843234861773715;
-0,00691420213589493;
-0,00586490564521664;
-0,00214997754520576;
-0,00231079955677869;
-5,76403328247655E-6;
0,000857225443268389;
0,00166242008889846;
0,00335971509418054;
0,00369715817624461;
0,00478394650333262;
0,00505355973322237;
0,00539653246078305;
0,00607971675509624;
0,00662397549039824;
0,00755280279112201;
0,00805829863508789;
0,00823089886258127;
0,00801949336255951;
0,0074809929573947;
0,00704378418581484;
0,00665084764435532;
0,00636613356363002;
0,00601770513265593;
0,00549457221736647;
0,0142306813955428;
0,026933839323625;
0,0202298233144218;
0,0129492667804591;
0,0153231387425592;
0,0097027725315741;
0,00772552388583167;
0,00615249071511461;
0,00212699428897165;
0,00232407366599919;
0,000256747562915112;
-0,000495763906136432;
-0,00155853649448742;
-0,0038627485652966;
-0,0048976212413899;
-0,00649904496064776;
-0,00704251506902319;
-0,00761490873997744;
-0,00876300242301922;
-0,010116891725071;
-0,0120233215853979;
-0,0133264565710354;
-0,0138514122648707;
-0,0135563541220788;
-0,0127551295907579;
-0,0121651672838938;
-0,0118223014780397;
-0,0116311733621577;
-0,0111654844367826;
-0,010198605378375;
-0,00897037010692968;
-0,00785585478531384;
-0,00722224852741423;
-0,00701309819876136;
-0,00686989682247686;
-0,00645429726125137;
-0,00571821941491595;
-0,00501271256688147;
-0,00476154649883623;
-0,00511597841676036;
-0,00578259461270919;
-0,00619594508468783;
-0,00593176809852451;
-0,00498642937846919;
-0,00375675324585974;
-0,00271192335966982;
-0,0020391020754491;
-0,00154656527032988;
-0,000873520493914393;
0,000165989227417559;
-0,00792648814681393;
-0,0201683808524219;
-0,0133370449703302;
-0,00626340350572055;
-0,00897986801045535;
-0,00360712886070897;
-0,00174391254216118;
-0,000277964076936317;
0,00343486091248846;
0,00263778249435707;
0,00395018948493076;
0,0040435922436989;
0,00474151816995642;
0,00696465827659286;
0,00801479939550013;
0,00952148283373922;
0,00980066709856368;
0,0100690243505635;
0,0110667971526402;
0,012509435002412;
0,0146345960328786;
0,0160587506074957;
0,0164354922418787;
0,0157345657347315;
0,0144456748954587;
0,0134761038814475;
0,0129114621881593;
0,0125341283543247;
0,0117371054102424;
0,0102191286864277;
0,0083287003414814;
0,00665974755030586;
0,0057446727672152;
0,00551755060099113;
0,00545494656979119;
0,00503876702919708;
0,00417171093793771;
0,00331742815059191;
0,00306825343368181;
0,00364688740554399;
0,00466120642618247;
0,00534413082910829;
0,00511869347945286;
0,00398977456841253;
0,0025064880021197;
0,00130382356083671;
0,000613820245344559;
0,000139934259717264;
-0,000634990405541533;
-0,00196314006946821;
-0,00358843436369591;
-0,00493720125361492;
-0,00557628353277706;
-0,0055551769250178;
-0,00534219862859983;
-0,00541449065458456;
-0,00584482203169464;
-0,00623406037551952;
-0,00605154904702424;
-0,00510463254968514;
-0,00375139196406915;
-0,00267562062822033;
-0,00239926518523392;
-0,0029188313618181;
-0,00374892102656862;
-0,00432703853388579;
-0,00444636496368053;
-0,0043720455886307;
-0,00456340270477524;
-0,00524698277604196;
-0,00619959381925169;
-0,00691694068689429;
-0,00701977119779536;
-0,00655419246326519;
-0,00593546817023965;
-0,00558474216233013;
-0,00556482886434502;
-0,00552232308155556;
-0,00498897466196338;
-0,00379673305152033;
-0,00226433069453896;
-0,000997516881720419;
-0,000458239770424274;
-0,000643891244599755;
-0,00112624761767393;
-0,00140849030585937;
-0,00130662244793169;
-0,00105204196101281;
-0,0010474901556965;
-0,0014921681533703;
-0,00219135293787398;
-0,00270430408914854;
-0,00269993788620477;
-0,00221915731845548;
-0,00162476945441746;
-0,00128316068458509;
-0,00124627726021142;
-0,00120236888899611;
-0,00074075003906753;
0,000285117764511406;
0,00159539772533005;
0,0026596688437865;
0,00307406818982692;
0,00284144499567504;
0,0023369580554392;
0,00199614635056168;
0,00198205169441078;
0,00209560817343703;
0,00198788922152243;
0,00148602005636342;
0,000758540150460373;
0,000187010406686469;
5,77345683624684E-5;
0,000335011398259849;
0,000705376568617084;
0,000853686657965732;
0,00073788680732047;
0,000630336036958298;
0,00088752900492838;
0,00163576475431381;
0,00263164443774042;
0,00341524919013352;
0,00363689868171774;
0,0032992762553248;
0,00272733526948335;
0,00229863349873327;
0,00215590387617599;
0,00212958757946151;
0,00192038655593161;
0,00137947208375494;
0,000650516918268969;
5,95014627761163E-5;
-0,000149428572472883;
-7,64541133208159E-6;
0,000216672371980813;
0,000255272936891364;
7,44245648271031E-5;
-9,09891363328091E-5;
6,44527348173002E-5;
0,000647732117320246;
0,0014489277429966;
0,00207324592776451;
0,00222087906637177;
0,00189380092631281;
0,00136972209825677;
0,000971707605680323;
0,000822949285135571;
0,000780582292613748;
0,000590738257177381;
0,000126443144557884;
-0,000491931960634671;
-0,000990034077846843;
-0,00116290333092123;
-0,00103817774167263;
-0,000842572197528271;
-0,00080150956346379;
-0,000941548092514679;
-0,00106282951308559;
-0,000907337031647411;
-0,000386016614820488;
0,000322080004763962;
0,000882212125232447;
0,00104050090954889;
0,000798161052178295;
0,000389224591659345;
8,63754426372054E-5;
-5,40536455041459E-6;
-4,6226076125676E-6;
-0,000123477949500533;
-0,000468832355490941;
-0,000941563871106027;
-0,00131449224554134;
-0,00141839769316624;
-0,00127735256379615;
-0,00108003062247151;
-0,001012676695936;
-0,00109538187709919;
-0,00116040820791356;
-0,000993052216767346;
-0,000520446282439348;
0,000106904558583292;
0,000609493683029388;
0,000775689111343253;
0,000606185855688723;
0,000295205975131754;
6,94581414222934E-5;
1,73076554657473E-5;
4,25063916648651E-5;
-2,90448216927778E-5;
-0,000285668838387228;
-0,000647309483051595;
-0,000929407369549698;
-0,000994958040686292;
-0,000864552938146054;
-0,00069214567953151;
-0,000628344474586479;
-0,000687390085114449;
-0,000730715256886251;
-0,000582840849712016;
-0,000185369471314173;
0,000337395965056645;
0,000756353413480978;
0,000898418893520477;
0,000763959970631799;
0,000511175916575096;
0,000325114702828366;
0,000279052607359788;
0,000296858539816204;
0,000238937730660244;
3,38494474047466E-5;
-0,000255388688980006;
-0,000482494896436107;
-0,000539353779539028;
-0,000443292446452958;
-0,000316924942026446;
-0,000278803367821576;
-0,000338022132983753;
-0,00038239994794304;
-0,000271801500217609;
3,92343047482847E-5;
0,000450152847938233;
0,000777374116462367;
0,000882599425954114;
0,000765926728470541;
0,000553115799022146;
0,000391659713934588;
0,000341133995472735;
0,000343336636928293;
0,000289563633373566;
0,000123526709086566;
-0,000106948320581628;
-0,000289762645925241;
-0,000342580313225012;
-0,000279782019177922;
-0,000196010335149971;
-0,000181302186676073;
-0,000240345062162646;
-0,00028470322729448;
-0,000205895053901605;
3,00095112113026E-5;
0,000343745477348785;
0,000592454051842835;
0,000668919570898711;
0,000572978059686335;
0,000401377422681928;
0,000267997710756938;
0,000220038966972319;
0,000215106652113657;
0,000171889851066987;
4,75643990728725E-5;
0,00920994642333575;
0,0223702867645798;
0,0160719558299857;
0,00917384171886117;
0,0119646299383864;
0,00682396486915739;
0,00538228037134614;
0,00429419441649852;
0,000610742773300235;
0,000979881779987827;
-0,00100754441593696;
-0,00162222277516645;
-0,00237880568136251;
-0,00419537664218316;
-0,00465662762500946;
-0,00572631558672071;
-0,00585011282626722;
-0,00609579974826272;
-0,00693445440402557;
-0,00794323795632174;
-0,00948454443802176;
-0,0104678474219378;
-0,0107693956968077;
-0,0103313896687562;
-0,00939672172833187;
-0,0086226854427117;
-0,00806112107959476;
-0,00771288212512049;
-0,00725892048617824;
-0,00650085361975551;
-0,00558840217111607;
-0,00473660902036907;
-0,00418621116961862;
-0,0038693065204407;
-0,00352965793332483;
-0,0029636591324439;
-0,00219419468614854;
-0,00154184501849536;
-0,00134353476831437;
-0,00169206242072788;
-0,00231534575534395;
-0,00272565103755232;
-0,00255823219637931;
-0,00179273677427718;
-0,000744880341380797;
0,000187526792246941;
0,000805904224715425;
0,00120206522723098;
0,00162208257599208;
0,00222020782976903;
0,00292531521661366;
0,00351750254515954;
0,00383542893125726;
0,00392892855150453;
0,0040150645855644;
0,00427656889055193;
0,00467481106369878;
0,0049459228968505;
0,0047986925872845;
0,00416077553624818;
-0,00605817091115459;
-0,0200682180248118;
-0,0140321999205157;
-0,00680176435639575;
-0,00900247709783864;
-0,00341864742053917;
-0,00185600305301773;
-0,000827208976549801;
0,00290322473164113;
0,00284517163318886;
0,014628372472538;
0,0288695797539309;
0,0233597471690629;
0,0179324187716094;
0,0207830853861983;
0,0165521204493281;
0,0153133326878742;
0,0144669341269762;
0,0111521111454316;
0,0114821200288375;
0,00970314821565437;
0,00897398300714428;
0,00804917687043496;
0,00596148535210546;
0,00502477927716517;
0,00351662859251029;
0,00285689586049854;
0,00211188935847136;
0,000773051769282481;
-0,000776249529901672;
-0,00285294761118396;
-0,00442090289293946;
-0,00531059992076913;
-0,0054838378447548;
-0,00519611881117585;
-0,00509207080770384;
-0,00521713185451751;
-0,0055097102082433;
-0,0056101343375376;
-0,00530737174594725;
-0,00478883958689276;
-0,0043495249097727;
-0,00428783437558224;
-0,00454737891379356;
-0,00482148078627605;
-0,00483337037234329;
-0,00456116496056169;
-0,00432918363529485;
-0,00451552027336777;
-0,00524589497773275;
-0,00624414012920991;
-0,00698817963451421;
-0,00708383599180342;
-0,0065199501227973;
-0,00565490329469894;
-0,00492361935356603;
-0,00451410571494912;
-0,00427135932536851;
-0,00387743575184808;
-0,00315797379679512;
-0,00224497622612295;
-0,00146948206266285;
-0,00108282806388003;
-0,00104499428557679;
-0,00106686660679869;
-0,000869085857943975;
-0,000439944013116992;
-6,86139549816539E-5;
-0,000114288001859535;
-0,000694871988312288;
-0,00154925099807564;
-0,00219365753440058;
-0,00225592635290051;
-0,00172815683803914;
-0,000944098179812562;
-0,000306691637453995;
1,22213947469343E-5;
0,000164474332676358;
0,000450244688142765;
0,00103311934509547;
0,00178692953483599;
0,00239788148047893;
0,00262873606765524;
0,00251676217937616;
0,0023353616749721;
0,00235047868409364;
0,00257818257198608;
0,00275262285797862;
0,00254040895467068;
0,00183132587238997;
0,000866905158443499;
9,54040729760323E-5;
-0,000138598543734911;
0,000171508657396588;
0,000716463876866711;
0,0011247646048125;
0,0012411268573019;
0,00121083033041291;
0,00131494404089842;
0,00170475742126627;
0,00226004653230596;
0,00268559877203869;
0,00275833458131291;
0,00251218763842182;
0,00220258114693574;
0,00207964423707834;
0,00216220576065876;
0,00220693500658628;
0,00190618657846183;
0,00115695955537604;
-0,00915328174819068;
-0,0232426287727704;
-0,0172791585098722;
-0,0101287286850284;
-0,0124349135654039;
-0,0069827453394126;
-0,00554347109890927;
-0,00456743179981151;
-0,000764888262061878;
-0,000621838313234454;
0,00209646394871707;
0,00327802035941231;
0,00414926014435434;
0,00565798817274448;
0,00569611752196218;
0,00654429215103645;
0,00670475754400952;
0,00699535742391963;
0,00754791458324304;
0,00781279931995351;
0,00837511677885865;
0,00857380376606476;
0,00861148751001462;
0,00842392537468406;
0,00794506246090093;
0,00747946791306131;
0,00695605854250021;
0,00655221004884711;
0,00624376376015964;
0,00597238323875398;
0,00573681941022606;
0,00542126912643653;
0,00501758932460311;
0,00448375589526319;
0,00382868110095309;
0,00312164054282648;
0,00243340261401274;
0,0018682425789965;
0,00147040934192817;
0,0012237573742584;
0,00104852641187856;
0,000827029948024598;
0,000475367060024008;
-3,25772917748793E-5;
-0,000646956609766374;
-0,00127334439689632;
-0,0018191722834897;
-0,00222535296534292;
-0,00248557163875949;
-0,0026342208814381;
-0,00272915512441231;
-0,00283295533377774;
-0,00299644545640622;
-0,00324699133581813;
-0,00357537511440888;
-0,00393204244205186;
-0,00423825757086213;
-0,00441499179668904;
-0,00442030584593126;
-0,00427411019524132;
-0,00405522292939205;
-0,00386787063300297;
-0,00379423060513229;
-0,00385823710725712;
-0,00401871264563342;
-0,00419343323282271;
-0,00429824515446387;
-0,00428044583047725;
-0,00413288885638735;
-0,00388830016142441;
-0,00360274851399091;
-0,00333740429752831;
-0,00314264167601466;
-0,00304429244957273;
-0,00303296316168953;
-0,00306162494813542;
-0,00305779395838537;
-0,00295085849473815;
-0,00270476351006773;
-0,00233923785721235;
-0,00192581300681881;
-0,00155783362195263;
-0,00130879264525641;
-0,00120048631672832;
-0,00119679543182624;
-0,0012241775689379;
-0,00120590293561937;
-0,00109219897314429;
-0,000874251887949952;
-0,000580764608134807;
-0,00026367209295917;
1,92544066444223E-5;
0,000220688933032789;
0,000317656311524882;
0,000321109001966825;
0,000276597317271244;
0,000251488495886199;
0,000309604094851562;
0,000482541095847983;
0,000752066984029678;
0,00105468917350723;
0,0013083401623392;
0,00144864484599295;
0,00145655575860072;
0,00136405598560384;
0,0012368777161353;
0,00114488456364912;
0,00113508043790206;
0,0012178684722383;
0,00136860182362314;
0,00153975486957083;
0,00167737506728651;
0,00173745175998412;
0,00169975139050939;
0,00157634588776209;
0,00141081258863105;
0,00126514477503743;
0,0011964010230719;
0,00123179376377538;
0,0013543750286715;
0,00150803057457187;
0,00162101741436681;
0,00163719063037496;
0,00153971861571635;
0,00135627675819284;
0,00114470704385339;
0,000967699093124922;
0,000868831579913461;
0,000859249390069537;
0,000917609384102814;
0,00100030617758328;
0,00105689702565191;
0,00104630908711793;
0,000950419497347598;
0,000781587108436308;
0,000580636893131636;
0,000403703976058812;
0,000300905741746608;
0,00029494439696737;
0,000369754183994227;
0,00047577905200887;
0,000550535810951385;
0,000545171314099432;
0,000444555057916429;
0,000271973437704286;
7,74607256755229E-5;
-8,35535237383811E-5;
-0,000171317091526223;
-0,000174535379463419;
-0,000111769708621137;
-2,29895652896039E-5;
4,47685148313762E-5;
5,32388942009613E-5;
-1,39014948622854E-5;
-0,000144442545837457;
-0,000300643398084309;
-0,000432253505073099;
-0,000495839764598671;
-0,000472934557018042;
-0,000378746840153266;
-0,000256724497407007;
-0,000160778954644528;
-0,000133021228591268;
-0,000186992493408497;
-0,000303455641747527;
-0,000439659018279574;
-0,000547059706655104;
-0,000589675751956066;
-0,000556228568593394;
-0,000462648188014046;
-0,000345238431343865;
-0,00024745223740196;
-0,000204592533312279;
-0,000231172331510902;
-0,000315206189794479;
-0,000421994658807648;
-0,000506844561807239;
-0,000532443243889887;
-0,000484025909338078;
-0,000375750956831199;
-0,000245208084162018;
-0,000138234199405218;
-9,05657526297351E-5;
-0,000114094045102704;
-0,000193124616453765;
-0,000291493525626361;
-0,000366996011857509;
-0,00038719613626155;
-0,000340860381814898;
-0,000241354858250696;
-0,000121261410789267;
-2,02802045644861E-5;
2,9396760343207E-5;
1,50983615267044E-5;
-5,14368586305152E-5;
-0,000138444306939517;
-0,000206418057719482;
-0,000223600073789825;
-0,000178434265872356;
-8,3895192091423E-5;
2,796956012948E-5;
0,000118834758488064;
0,000158901559166679;
0,000137911291805857;
6,84403204567628E-5;
-1,93154170242346E-5;
-8,90018929991974E-5;
-0,000111559082079063;
-7,58959415541953E-5;
7,01405003034198E-6;
0,000108223163923424;
0,000191787425042056;
0,00022861861589638;
0,000207799273659742;
0,000140715947867484;
5,62383790456626E-5;
-1,10228701308989E-5;
-3,44042429489169E-5;
-5,19250637751034E-6;
6,48221630716042E-5;
0,000148696508462732;
0,000214945458914736;
0,000239165992269518;
0,000212605617274447;
0,000145036425191703;
6,12065432249673E-5;
-7,97106826508831E-6;
-3,67019110190912E-5;
-1,41952170579406E-5;
5,07147589289732E-5;
0,00013251614900417;
0,000198901074118415;
0,000223769206920074;
0,000197796063246777;
0,000131875279342283;
5,20023295755796E-5;
-1,18439918312152E-5;
-3,7684018243076E-5;
-1,93448419523254E-5;
3,25099031044413E-5;
9,55636747808598E-5;
0,000144477088811873;
0,000159681814863418;
0,000133777989316714;
7,40141603780851E-5;
1,8548992765841E-7;
-6,18309475429745E-5;
-8,93801029415299E-5;
-7,2109875547707E-5;
-1,69659956233975E-5;
5,37553335545926E-5;
0,00011122774127751;
0,000132200024558045;
0,000108787262125376;
5,12857966150058E-5;
-1,7115883415887E-5;
-7,07728358090757E-5;
-9,19658838460812E-5;
-7,67588102874241E-5;
-3,47380515899146E-5;
1,59569472463569E-5;
5,54810616327107E-5;
6,85813111090774E-5;
4,90839289239765E-5;
2,00796263214477E-6;
-5,72952936151704E-5;
-0,000107548950251807;
-0,000129062433707026;
-0,000112007442051694;
-6,16535955426672E-5;
2,71292379050458E-6;
5,55931294763447E-5;
7,64535115033527E-5;
5,87254773190714E-5;
1,20551672947674E-5;
-4,30536224245467E-5;
-8,49529613304251E-5;
-9,9743976990016E-5;
-8,54170860170661E-5;
-5,05153842645059E-5;
-9,41543443824297E-6;
2,29292383696018E-5;
3,51054426974356E-5;
2,20627710836257E-5;
-1,31107714046372E-5;
-5,89982513400137E-5;
-9,84737562365627E-5;
-0,000114605019227681;
-9,81354959433639E-5;
-5,28459786767066E-5;
4,78567302340627E-6;
5,24239427898326E-5;
7,21161717255165E-5;
5,84995269935457E-5;
2,05456502808087E-5;
-2,37757035592732E-5;
-5,64655943721492E-5;
-6,70146212469435E-5;
-5,50463322060429E-5;
-2,80987116745758E-5;
2,81785281960588E-6;
2,70699559660049E-5;
3,66336252123087E-5;
2,74819046301774E-5;
1,05105995342958E-6;
-3,46922537613906E-5;
-6,63372490813289E-5;
-7,94986021634921E-5;
-6,55252834181978E-5;
-2,68900377896066E-5;
2,25252039619372E-5;
6,33621813145127E-5;
8,00936637436537E-5;
6,84486741256555E-5;
3,6709411566619E-5;
4,69437044900968E-7;
-2,55826416762071E-5;
-3,39231404049971E-5;
-2,55456847427032E-5;
-7,03612639841971E-6;
1,3574008006831E-5;
2,9423988642296E-5;
3,54462776130521E-5;
2,85322926897943E-5;
8,71754835980148E-6;
-1,90332800140512E-5;
-4,46129424188917E-5;
-5,59764126019703E-5;
-4,51048679545866E-5;
-1,33404046822328E-5;
2,78087000147068E-5;
6,17558655994632E-5;
7,52277741828468E-5;
6,49280731631563E-5;
3,84410177987744E-5;
9,1445631941863E-6;
-1,12575283384855E-5;
-1,78519067805633E-5;
-1,27678529837807E-5;
-1,70253701886907E-6;
9,91907272529598E-6;
1,84914405420206E-5;
2,14941053774425E-5;
1,66316156332137E-5;
2,76536301963909E-6;
-1,77267932359331E-5;
-3,76521787434438E-5;
-4,71024476341844E-5;
-3,87072299046182E-5;
-1,28456051121569E-5;
2,11249759320447E-5;
4,91754226679219E-5;
6,01085614143141E-5;
5,14891539450974E-5;
3,02054192141773E-5;
7,58523978879875E-6;
-7,33767869135417E-6;
-1,19090490805897E-5;
-9,18166758414771E-6;
-4,03026336427018E-6;
3,77393062301159E-7;
3,21093796986682E-6;
4,11794533063561E-6;
1,51690889150741E-6;
-6,69737434778885E-6;
-2,03479524783129E-5;
-3,47879468233768E-5;
-4,20432973364789E-5;
-3,53952246700038E-5;
-1,44128754487768E-5;
1,34808380049202E-5;
3,65995982651149E-5;
4,56452959219412E-5;
3,89382287042817E-5;
2,26841639015483E-5;
6,33099488762236E-6;
-3,45370507464127E-6;
-5,94623327487624E-6;
-4,93017846847484E-6;
-4,52334528221298E-6;
-5,95952964626678E-6;
-7,73397387164714E-6;
-8,37779608359019E-6;
-8,84998389629253E-6;
-1,20327100078359E-5;
-1,95931740460436E-5;
-2,90829794199017E-5;
-3,42632749513849E-5;
-2,90585083695111E-5;
-1,23662563405849E-5;
1,01175670353682E-5;
2,88373404329247E-5;
3,6219920179662E-5;
3,12434093155664E-5;
1,94538476743664E-5;
8,5900374738481E-6;
3,24323384806136E-6;
2,51051899012617E-6;
2,05040227293793E-6;
-1,56282146859336E-6;
0,00932550745381682;
0,0226161275019398;
0,0163571216575469;
0,00941870842005258;
0,0121559845382468;
0,00701030780149002;
0,00561364548776764;
0,00455806223785209;
0,00081966091434389;
0,00102429527529926;
-0,0105144625928885;
-0,0245976306215647;
-0,0191500672367782;
-0,0139605564382789;
-0,017038507697188;
-0,0128700995181124;
-0,0115657476069101;
-0,0107542862285415;
-0,00782497900236093;
-0,00895105042488605;
-0,00816692728061263;
-0,00826840289393459;
-0,00773208771821943;
-0,00557305858629269;
-0,00433422463918393;
-0,00258653527347274;
-0,00190320163441904;
-0,00129106947426189;
-6,80758966796241E-5;
0,0014975841909704;
0,0036819911389647;
0,00530388620470865;
0,00608912983102719;
0,00603902029396284;
0,00556029828401052;
0,00541784432082535;
0,00561766987395901;
0,00590181266072657;
0,00570117866294627;
0,00475776046555358;
0,00344016021262063;
0,00235018627897885;
0,0020207889063786;
0,00241156424339341;
0,00302412182143227;
0,00333348278101637;
0,00318321214829716;
0,00293908634440039;
0,00311793815781786;
0,00394146079844488;
0,0051062294608126;
0,00597972956115157;
0,0060890575246007;
0,00545751513482967;
0,00456335007868725;
0,00393161681480876;
0,00370917615482228;
0,00357460297782108;
0,00303774415092183;
0,00188901123422787;
0,000413607527134125;
-0,000801801596673564;
-0,00131076080899774;
-0,00113862883335762;
-0,000731864504109436;
-0,000576262113225148;
-0,000800012687007538;
-0,00108775668634241;
-0,000972261742140777;
-0,00025668740597352;
0,00078280393943137;
0,00158308394246149;
0,00171654067376642;
0,00120548616957756;
0,000476007256365523;
-4,88291943627914E-6;
-0,000106882462832175;
-0,000120324444730969;
-0,000483511504961314;
-0,0013844776181535;
-0,00256906553405352;
-0,00351398855616033;
-0,00382230683510724;
-0,00351755341285093;
-0,00299904593163279;
-0,00270083743238249;
-0,00273831427248203;
-0,00283226549030048;
-0,0025682067542541;
-0,00177209751610764;
-0,00068979656717525;
0,000178513055388184;
0,000453357181501864;
0,000154591507572757;
-0,000340337719742759;
-0,000618394283129482;
-0,000565382695808904;
-0,00043954492749269;
-0,000629400342935252;
-0,00130117603077918;
0,00710393388405091;
0,0196785110012429;
0,013257305140211;
0,00668984652287089;
0,00998156078592058;
0,00519330498926905;
0,00385415744799463;
0,00279725441679465;
-0,000641753035208098;
0,000314568229129444;
-0,000898833362545209;
-0,000885499111900553;
-0,00141342024074507;
-0,00338216701832285;
-0,00411557050733463;
-0,00529898398244234;
-0,00531456876812875;
-0,0054286131990596;
-0,0063956896819397;
-0,00790708785414745;
-0,010149343762612;
-0,0116806441748067;
-0,0121090584361916;
-0,0113857547654189;
-0,0100144694209069;
-0,00894520957151068;
-0,00832157600443066;
-0,00797846176480262;
-0,00733395514224264;
-0,00607071993120982;
-0,0044829439635609;
-0,00309304969611535;
-0,00237547601832338;
-0,00224523099779981;
-0,00220550454181685;
-0,00179560353022667;
-0,000978669710867976;
-0,000256364603983388;
-0,000225147998887642;
-0,00108255244036475;
-0,00239588258782015;
-0,00335638595174759;
-0,00335447592618776;
-0,00237836260456246;
-0,000982142476569976;
0,000169619099017496;
0,000795819112824381;
0,00114119029498114;
0,00169253115658247;
0,00271238811562995;
0,00399668303627413;
0,00504374263211181;
0,00547816039707339;
0,00536523058554971;
0,00514193928111776;
0,00522636399550261;
0,00563542438647147;
0,00594119822815167;
0,00561655742733465;
0,00449360397164887;
0,00296076365325715;
0,00172825048933086;
0,00133867598498279;
0,00180277195315407;
0,00263726354168028;
0,0032610450201008;
0,00342601225563452;
0,00334649369892647;
0,00344719348841365;
0,00395985583331658;
0,00471043258431902;
0,00526588914886213;
0,00530365902394484;
0,00488268457120907;
0,00438345627801077;
0,00416759934550212;
0,00424685448929261;
0,00424732563471583;
0,0037108505856977;
0,00249367547716387;
0,000936150093325184;
-0,000342407348942062;
-0,00086936923475546;
-0,000635025435955231;
-5,91907486361105E-5;
0,0003525454678734;
0,000382418819499278;
0,000212998338002009;
0,000209769308429072;
0,000573169015444159;
0,00115495908655985;
0,00158446638145384;
0,00158604573567675;
0,00121123654858914;
0,00078615801262756;
0,000618614738980569;
0,000714664453357772;
0,000749753286175648;
0,000329068932414671;
-0,000669932936577264;
-0,0112864264601754;
-0,0256163946637064;
-0,019737265332626;
-0,0125116055237095;
-0,0146592426225172;
-0,00906030922825127;
-0,00753588404864496;
-0,00652040301841552;
-0,0026742138317472;
-0,00245045910599516;
0,000375004522487536;
0,00165288609950622;
0,00258570979676462;
0,00413573694321399;
0,00423461963025985;
0,00518856994001075;
0,00548073297219318;
0,00587192928671018;
0,00644014918901307;
0,00662883010037795;
0,00707468599289536;
0,0071966305058873;
0,00725592599941525;
0,0071923344943575;
0,00689396823982616;
0,00660491726195346;
0,00621618354220816;
0,00590351029230062;
0,00566361891621054;
0,00545746620924427;
0,00528847092477343;
0,00503656587343491;
0,00469457609142938;
0,00423261013256911;
0,00367332489890251;
0,00308477836381524;
0,00251404832718172;
0,00202988151739601;
0,00165177595522085;
0,00136769249869825;
0,00113088085126022;
0,00086752813894896;
0,000525007914362324;
8,20087468588148E-5;
-0,00043108562386482;
-0,000950242017058259;
-0,00141007166935027;
-0,00176759373219381;
-0,00202006956364565;
-0,00219411029961677;
-0,00233008491952013;
-0,00246703359606159;
-0,0026339167127892;
-0,00284801553290931;
-0,0031082803530397;
-0,0033887645390244;
-0,00363793347816609;
-0,00379380465730861;
-0,00381451824548993;
-0,00370673522988161;
-0,00353236547981735;
-0,00338269849119428;
-0,0033320972986201;
-0,00339921221727986;
-0,00354009470329486;
-0,0036774098935289;
-0,00374492724869786;
-0,00371806943394895;
-0,00361384003990191;
-0,00346709879041288;
-0,00330611940264925;
-0,00314575421207726;
-0,002997485658192;
-0,00287906672793501;
-0,00280765203830421;
-0,00277839040614955;
-0,00274872096136467;
-0,00264953330016488;
-0,00242436050812534;
-0,00207237336608713;
-0,00166207263263898;
-0,00130011334467074;
-0,00107209819073424;
-0,000994386124242527;
-0,00100967597488921;
-0,00102803913307877;
-0,000982795487671391;
-0,00086208558947525;
-0,000698257721085411;
-0,000530558175059444;
-0,000375029326743195;
-0,000224838686008353;
-7,48201749599855E-5;
5,82530276735144E-5;
0,000143701439638769;
0,000169874834900856;
0,000172283093350766;
0,000226201904914338;
0,000400435749152161;
0,000703082070481252;
0,00106197302783532;
0,0013599006592454;
0,00150381999831644;
0,00148011630196661;
0,00135701895161259;
0,00123419508561116;
0,00117818270586617;
0,00119041649201197;
0,0012264757992632;
0,00124426513014737;
0,00123840112782903;
0,00123391536584423;
0,00124994005292182;
0,00127081615704381;
0,0012549889303128;
0,00117710819993671;
0,00106616917312096;
0,00100138808525791;
0,00106074319339087;
0,00125811372505018;
0,00151908236354788;
0,00171903604009969;
0,00175973802593331;
0,0016297309873525;
0,00140505513230685;
0,00119173149280494;
0,00105485263984999;
0,000986726616077589;
0,000933070182268896;
0,000849596003966244;
0,000739499127228953;
0,000642264657305734;
0,000588025749840724;
0,000561869476410425;
0,000513319122926676;
0,000405496424313078;
0,000261097402588303;
0,000161075516532429;
0,000189561641628368;
0,000364688879990553;
0,000610851984701608;
0,000798656622439189;
0,00082655358449737;
0,000684677446156961;
0,000454147030373371;
0,000244434552800341;
0,000118169339808586;
5,98326427790686E-5;
7,37979887241116E-6;
-8,49519584614695E-5;
-0,000207096568060828;
-0,000308279851843815;
-0,000349809072873326;
-0,000345951713730477;
-0,000354107327608134;
-0,000420447444098277;
-0,000528040831191063;
-0,000595792620496938;
-0,000535754588976271;
-0,000326589735970066;
-4,38878067419886E-5;
0,000180744881661005;
0,000244376079415674;
0,000138546898889643;
-5,25942820461525E-5;
-0,000218293486824629;
-0,000298892953598034;
-0,000316231724662026;
-0,000337942965910348;
-0,000410346425019519;
-0,000517741834584803;
-0,000600593149409963;
-0,000613538119703248;
-0,000570023065068922;
-0,000532335900091356;
-0,000553684378377743;
-0,000622129436758487;
-0,000657541758314598;
-0,00056994639963852;
-0,000335519744417069;
-2,86318785869251E-5;
0,000219268039471761;
0,000305675444490506;
0,000223526494123287;
5,8391632117366E-5;
-7,93893216419164E-5;
-0,000133386763247827;
-0,000130293634519624;
-0,000141329387342911;
-0,0002125026419483;
-0,000323515908383954;
-0,000408245214514274;
-0,000416280440993087;
-0,000360065204861147;
-0,000304965659565321;
-0,000309207884808309;
-0,000365108871602256;
-0,000394410137108676;
-0,000306640460327655;
-7,61369517863136E-5;
0,0095583558962586;
0,0230969297258752;
0,0169228361472719;
0,00990097908104601;
0,0124755262144256;
0,00719948231622059;
0,00575721864529016;
0,00470579369970579;
0,000942718505232367;
0,00104715432662557;
-0,0013058370020606;
-0,00220949110365814;
-0,00304484851806214;
-0,00474098206588262;
-0,0050205972611428;
-0,00599309202314996;
-0,00613625388717541;
-0,00641372408333788;
-0,00714977165778219;
-0,00786376984161933;
-0,00901002758390678;
-0,00967900275798078;
-0,00988405199582236;
-0,00956254090430438;
-0,00882483851674688;
-0,00818001014404004;
-0,00763276006100667;
-0,00726539722808615;
-0,00688828383328352;
-0,0063615313260057;
-0,00576473124813231;
-0,00516446433736653;
-0,00468992011081352;
-0,0042829789556897;
-0,00380328147908804;
-0,00316863893582467;
-0,0024274286768613;
-0,0018114600715861;
-0,00153391517964696;
-0,00163963524179749;
-0,00193490392904706;
-0,00208513726278046;
-0,00184149585066199;
-0,00117989608958508;
-0,000304710304853908;
0,000511254286472753;
0,00111013647484029;
0,00151691257890899;
0,00187026368820184;
0,00227537770139275;
0,00271841169789467;
0,00310147326484205;
0,00335464756118503;
0,0035191006126335;
0,00371618765882917;
0,00402922254795586;
0,00439996283286695;
0,0046391333922882;
0,00455813869328036;
0,00412364202864958;
0,00351281878525954;
0,00301736666707352;
0,00286179569979157;
0,00306782960872294;
0,00346047070522443;
0,00380368781582701;
0,00395788999959813;
0,0039441344531674;
0,00388114755231741;
0,00386253921997673;
0,00388148238145588;
0,0038594381304654;
0,00374177167225317;
0,0035660801539365;
0,0034360842949692;
0,00342021409010043;
0,00346466902167882;
0,00340472558210732;
0,00307850226928366;
0,00245978310560672;
0,00170402475760768;
0,00106474342165654;
0,000736824045491726;
0,000739770435444055;
0,000922940559920173;
0,00108180183183949;
0,00109325521767329;
0,000971607886046067;
0,00081609957850975;
0,000707145637880569;
0,000642063230249047;
0,00055831080657191;
0,000412879675727884;
0,000238620570805234;
0,000121425751798872;
0,000114940599240484;
0,000168674279706785;
0,000139536481762169;
-0,000110667609495328;
-0,000602903947088166;
-0,0105365166498388;
-0,0243238973248749;
-0,0182824486887622;
-0,0112661269896476;
-0,0137622512818746;
-0,00839113241539376;
-0,00689217697247392;
-0,00584474868511401;
-0,00213837051690753;
-0,00232935368863657;
-6,82850698339081E-5;
0,000760367243734132;
0,00155881653122667;
0,00327309310575015;
0,00362864713033705;
0,00471384085430836;
0,00496357099796155;
0,00529425820795485;
0,00600355675247457;
0,00662161622559376;
0,00764795493411431;
0,00823096024004727;
0,00842696154388124;
0,00818317268201431;
0,00758611863195546;
0,00710139914251337;
0,00668959745690174;
0,00640312586286072;
0,00604384369003993;
0,00548510621512255;
0,00483677810494359;
0,00420350424822252;
0,00374730748469775;
0,00342433665263635;
0,00308249084138283;
0,00260550262560708;
0,00199982704701978;
0,00146589226137081;
0,00120873481500325;
0,00128931709537659;
0,00154489816406578;
0,00167344827411507;
0,00144969410669667;
0,000858687603119022;
9,78060680695604E-5;
-0,000582687495884099;
-0,00105895358945322;
-0,00139148147243905;
-0,00174085378498921;
-0,00220698535262828;
-0,0027410952692265;
-0,00319433569676359;
-0,00345443630330444;
-0,00355052949749974;
-0,00362746805744914;
-0,00381289517101619;
-0,00408892107180975;
-0,0042838008611655;
-0,00420137746396211;
-0,00378783416788837;
-0,00320163354314697;
-0,0027235539514075;
-0,00257107103657609;
-0,00275746391948169;
-0,00310049552492303;
-0,0033688162299651;
-0,00344789621244269;
-0,00339849456380617;
-0,00337215889642451;
-0,00346401095883573;
-0,00362892993939391;
-0,00372741139004359;
-0,00365515031242952;
-0,00343980421134256;
-0,00321815467130385;
-0,00311097893008724;
-0,00310302160301333;
-0,00303533502206014;
-0,00272552933385296;
-0,00212364774702507;
-0,00137706747965315;
-0,000746763213108619;
-0,000434646616013542;
-0,000452602907784654;
-0,000631062059661461;
-0,000755268124087091;
-0,000719432057058556;
-0,000580610778441037;
-0,000479653959386111;
-0,000504273199103047;
-0,000611359665905184;
-0,000670021054751049;
-0,000582275164965947;
-0,000373026122947083;
-0,000168853311944342;
-8,18085680577489E-5;
-9,79818630215853E-5;
-7,02361678721876E-5;
0,000170582742726694;
0,000671486486397344;
0,00129736704819035;
0,00180837003918615;
0,00201926466992493;
0,00192009817205969;
0,00166796622442297;
0,00146112430672322;
0,00139695776227207;
0,00142272475460911;
0,00140887287294481;
0,0012754188913316;
0,00106335269101726;
0,000894607171671676;
0,000860553025647971;
0,000938995497723062;
0,0010137236154712;
0,000981552745078594;
0,000854965955479093;
0,000768951616782772;
0,000878973771146771;
0,00122870603602025;
0,00169503519374535;
0,00205898668941605;
0,00215166608337263;
0,00196454806645112;
0,00164166389600152;
0,00136422903807805;
0,00122081602525726;
0,00116267429681659;
0,00107118162084522;
0,000873566496282544;
0,000608030293483677;
0,000386820064772604;
0,000294029733112141;
0,000309632116929147;
0,000327351199026983;
0,000252488911520632;
9,5726899650422E-5;
-2,04855507312683E-5;
4,5203203227356E-5;
0,000332648372218049;
0,000730171233319267;
0,00103905698904922;
0,00110614559873987;
0,000923855565217667;
0,000622841554304468;
0,000367098177553071;
0,000236223991093117;
0,000185213905499241;
0,000106021631508265;
-6,73121562095406E-5;
-0,000299733664480346;
-0,000488967546626328;
-0,000558446808682441;
-0,000526296280578662;
-0,000489126762210332;
-0,000533338713505574;
-0,000650073759998711;
-0,000729291048356569;
-0,000643616028083624;
-0,000357066707852723;
2,97775814491327E-5;
0,000337955691360724;
0,000429621684358655;
0,000298033292757699;
6,07148035791603E-5;
-0,000135150091672757;
-0,000218632335581678;
-0,000230944714736002;
-0,0002697034553931;
-0,000394189216345626;
-0,000572457143469719;
-0,000712012304046448;
-0,0007436369607686;
-0,000683533211350658;
-0,00061875056356232;
-0,000627417101179166;
-0,00070224653116799;
-0,000745085675183044;
-0,000642001707625816;
-0,000360667519629102;
9,19317666657271E-6;
0,000307850501570713;
0,000412375844488894;
0,000316931516120025;
0,000126459693738372;
-2,79416518939525E-5;
-8,35068212130675E-5;
-7,75581270301423E-5;
-9,74520968383618E-5;
-0,000195907609745275;
-0,000343931474964258;
-0,000458439486449738;
-0,000477251733681564;
-0,000414612707600454;
-0,000348200116938901;
-0,000347984009715633;
-0,000408000260348657;
-0,000441368521187076;
-0,000346957952742181;
-9,58724658003205E-5;
0,000232639516386313;
0,000497338480818532;
0,000589633964345668;
0,000504597013197838;
0,000335184404515111;
0,000197197025063648;
0,000145721831101189;
0,000147290932687242;
0,000124450780180545;
3,07825212394145E-5;
-0,000107570391653879;
-0,000216564854727218;
-0,000240775328015151;
-0,000192569057043691;
-0,000140628567141651;
-0,00014706268929019;
-0,000207085054789126;
-0,000244495423831943;
-0,00017033032762108;
4,10259660655581E-5;
0,000320245036754075;
0,000543606618978815;
0,000616084932373038;
0,000533570576742196;
0,000377629315557057;
0,000249568714787373;
0,000197237349634277;
0,000190861661743316;
0,000162377992065921;
7,12890859124592E-5;
-5,90502829643937E-5;
-0,000163261057250807;
-0,000192397805034051;
-0,00015710267661656;
-0,000117562538831102;
-0,000128437614371648;
-0,000186028431666497;
-0,000224208524693725;
-0,000165516367041068;
1,25181171433325E-5;
0,000249843003671918;
0,000439160059762109;
0,000498137873835979;
0,00042337696746901;
0,000285693934312017;
0,000172767180026105;
0,000125664276042668;
0,000118105488111006;
9,0841948701832E-5;
8,88894659256502E-6;
-0,000107099988058165;
-0,000199970835130398;
-0,000226934946872293;
-0,000197059449174801;
-0,000162571783123945;
-0,000171129340028212;
-0,000220018387304849;
-0,000252522214676523;
-0,000201946059049326;
-4,87942624540864E-5;
0,000155499674011602;
0,000318920530868629;
0,000370938142216614;
0,000308781299986034;
0,000193231088590249;
9,92782062668084E-5;
6,171122949845E-5;
5,75474867418451E-5;
3,57664750283561E-5;
-3,35029173788319E-5;
-0,00013217270796212;
-0,000210804257828551;
-0,000232383160616806;
-0,000204527196342436;
-0,000172045438446261;
-0,000176043743978243;
-0,000214672214802417;
-0,00023990971590398;
-0,000195035896123683;
-6,33227105477195E-5;
0,000111759414594611;
0,000252324092318725;
0,000298744536531511;
0,000248820374889173;
0,000154058637788864;
7,77513759913616E-5;
4,89353931734711E-5;
4,77280137387426E-5;
3,07420039278835E-5;
-2,71738059345185E-5;
-0,000110332919658536;
-0,000176461725712678;
-0,000193905446645015;
-0,000168948776695895;
-0,00013953333955129;
-0,000140677212665345;
-0,000171271819299528;
-0,000191261198076658;
-0,000153086410766403;
-4,25695354592931E-5;
0,000104122103721479;
0,000222064087694974;
0,000261627220645791;
0,000221128625999458;
0,000143574797590864;
8,15569906297301E-5;
5,88843987293484E-5;
5,8563539744357E-5;
4,42305841867791E-5;
-4,94508879406744E-6;
-7,55085482289023E-5;
-0,000131789819990257;
-0,000147072884746874;
-0,00012643015131216;
-0,000101500630363514;
-0,000101695281272757;
-0,000126538204101373;
-0,000143217173668831;
-0,000112527469140062;
-2,26286399946789E-5;
9,69507191100309E-5;
0,000193078007349253;
0,000225213308892437;
0,000192133713950584;
0,000129109917298986;
7,90162096409129E-5;
6,09419585068709E-5;
6,05580311525789E-5;
4,790559229713E-5;
6,07171612792496E-6;
-5,35516845400181E-5;
-0,000101338953523871;
-0,000115095357644969;
-9,88058620920144E-5;
-7,83767017616704E-5;
-7,81005756633966E-5;
-9,80393145758771E-5;
-0,000111920939389983;
-8,81037321079066E-5;
-1,68781922014323E-5;
7,82087439598699E-5;
0,000154661994102549;
0,000180135570863084;
0,000153808569852408;
0,000103964807383337;
6,47224385376593E-5;
5,0941033452954E-5;
5,07259898050876E-5;
3,99105469542802E-5;
5,10341253576267E-6;
-4,41975453283688E-5;
-8,38572823656409E-5;
-9,57894158616039E-5;
-8,30134357595386E-5;
-6,62640447243212E-5;
-6,51998373936677E-5;
-8,03337483010848E-5;
-9,12511347874184E-5;
-7,31022429629875E-5;
-1,81054548085262E-5;
5,55370989145324E-5;
0,000114847968859325;
0,000134807842514542;
0,00011494452162904;
7,72839274439215E-5;
4,81198641102838E-5;
3,85542125595768E-5;
3,89001683367319E-5;
3,01873397833721E-5;
2,16496914015515E-6;
-3,73928134618797E-5;
-6,92972908654059E-5;
-7,91640881970128E-5;
-6,91620002248893E-5;
-5,5397354669536E-5;
-5,3365256892111E-5;
-6,39489130502265E-5;
-7,19329616180917E-5;
-5,85144640553281E-5;
-1,76404363386963E-5;
3,72228714055816E-5;
8,15423019423695E-5;
9,67953234586005E-5;
8,28109209992633E-5;
5,60598372295183E-5;
3,59063849648895E-5;
3,01458123378725E-5;
3,10788528521531E-5;
2,43592243603808E-5;
2,51391593883378E-6;
-2,82376057402176E-5;
-5,31244038615339E-5;
-6,10692304369221E-5;
-5,34974795377428E-5;
-4,24075827479901E-5;
-3,9584095744187E-5;
-4,62062648473978E-5;
-5,16309092052352E-5;
-4,23898658446101E-5;
-1,39663385314014E-5;
2,43317374738132E-5;
5,53956970545508E-5;
6,64120903895432E-5;
5,74679137964813E-5;
4,01481289238408E-5;
2,77374286572012E-5;
2,51501843688894E-5;
2,64618467663677E-5;
2,14046838681882E-5;
4,93995013527195E-6;
-1,81032176580246E-5;
-3,6865175090919E-5;
-4,31974455191786E-5;
-3,78826986136891E-5;
-2,93066473793328E-5;
-2,59761320635837E-5;
-2,93000350378248E-5;
-3,26164021268605E-5;
-2,71189312698355E-5;
-9,64409577949784E-6;
1,41144890862999E-5;
3,35113371099686E-5;
4,07000035735229E-5;
3,59855308224932E-5;
2,669790836642E-5;
2,0841204198261E-5;
2,08465161664599E-5;
2,23597189259943E-5;
1,8675547056029E-5;
6,86643139388861E-6;
-9,47152871155066E-6;
-2,2909898464131E-5;
-2,78704593199401E-5;
-2,458732510028E-5;
-1,83007887054702E-5;
-1,46501656580886E-5;
-1,52154836416692E-5;
-1,67641952876599E-5;
-1,4521678029131E-5;
-6,50556036488936E-6;
4,69668097449085E-6;
1,40041228532282E-5;
1,7843982215505E-5;
1,67024749379533E-5;
1,42439119732189E-5;
1,39365697914235E-5;
1,60966030479909E-5;
1,7746197638681E-5;
1,52586995808794E-5;
7,51647167030405E-6;
-2,96816912919885E-6;
-1,17467947719693E-5;
-1,54745010043215E-5;
-1,39239463601022E-5;
-9,62697018739859E-6;
-5,7404151800136E-6;
-3,96417462348865E-6;
-3,98376029617833E-6;
-4,47057996340319E-6;
-4,46246624064197E-6;
-3,91126858332428E-6;
-3,16615576903854E-6;
-2,16848986304687E-6;
-2,84368157653126E-7;
3,03114273068826E-6;
7,3995882004504E-6;
1,1361046398551E-5;
1,31315830467263E-5;
1,17136163245532E-5;
7,52115535370585E-6;
2,12341154999694E-6;
-2,59036138622825E-6;
-5,19421952588851E-6;
-5,07896464439498E-6;
-2,47291192392095E-6;
1,59140340002266E-6;
5,33897732743241E-6;
6,63660957952653E-6;
3,90703120201785E-6;
-2,75822642226648E-6;
-1,11072684280031E-5;
-1,75229859474062E-5;
-1,89053265235835E-5;
-1,45027265234721E-5;
-6,38707676365075E-6;
1,84900280636416E-6;
7,27897988006703E-6;
9,14296540978379E-6;
8,65827316226792E-6;
7,51560231693869E-6;
6,47261985017814E-6;
5,24882598802588E-6;
3,64219685455237E-6;
2,57172723233196E-6;
3,74042646744341E-6;
7,90962547537993E-6;
1,3267882625452E-5;
1,56635820232526E-5;
1,11079444818677E-5;
-1,04021423123353E-6;
-1,67185575718994E-5;
-2,90417450072324E-5;
-3,24061199561319E-5;
-2,59692406376347E-5;
-1,39612321668788E-5;
-2,61280268423431E-6;
3,96326184346632E-6;
5,87421678783018E-6;
6,17361518879186E-6;
7,59706007935642E-6;
1,02125955486533E-5;
1,19273802729435E-5;
1,11786070732303E-5;
9,13027630678162E-6;
9,07723888467197E-6;
1,32721425830874E-5;
1,99000240882324E-5;
2,31794384353092E-5;
1,71588472879096E-5;
5,90474051080352E-7;
-2,10082699794777E-5;
-3,81154274769806E-5;
-4,31102038254701E-5;
-3,50830880482075E-5;
-2,00073963914665E-5;
-6,23156364632884E-6;
1,19721288386227E-6;
3,10948027430321E-6;
4,05151830123485E-6;
7,5946656803533E-6;
1,32293623439826E-5;
1,73758139302271E-5;
1,73537427656606E-5;
1,45143559313634E-5;
1,34370940187941E-5;
1,75910307361214E-5;
2,5185241736065E-5;
2,91572925957588E-5;
2,19969632127784E-5;
1,9642833481571E-6;
0,00930914727497377;
0,0225845652947395;
0,0163212697048486;
0,00939085582390451;
0,0121445649295879;
0,00701694025766217;
0,00563361885135099;
0,00458339254746326;
0,000842645183282909;
0,00103980176020339;
-0,0105083832456465;
-0,02460006755407;
-0,0191576688336796;
-0,0139680285483513;
-0,0170398829285002;
-0,0128611702036617;
-0,011546837729125;
-0,0107315008852678;
-0,00780838452462177;
-0,00895004421308459;
-0,00818516506141543;
-0,00830139177512113;
-0,00776913455680085;
-0,00560252437253559;
-0,004348909834647;
-0,0025860685151509;
-0,00189247547258105;
-0,00127641450543138;
-5,40297684035906E-5;
0,00150910470803148;
0,00369052889637625;
0,00530919446508594;
0,00609131317118841;
0,0060397354493769;
0,00556323691211233;
0,00542706468864701;
0,0056343137442007;
0,00592164161246845;
0,00571538695393456;
0,00475734997097437;
0,00342136433513664;
0,0023172656244668;
0,00198409301841965;
0,00238201499263416;
0,00300777736310392;
0,0033296602533618;
0,00318693320355728;
0,00294549151419929;
0,00312520178435619;
0,00395038332528701;
0,0144510429006952;
0,0286220828044351;
0,02247304537184;
0,0148990734755832;
0,0167401443456276;
0,0109679968962138;
0,00935936470466415;
0,00817522556713485;
0,00389107201028124;
0,00292060991082909;
-0,000795055219624065;
-0,00282540539547711;
-0,00415306661007433;
-0,00572083435308631;
-0,0056360547527445;
-0,00643892555610446;
-0,00674286955790495;
-0,00727032007467174;
-0,00796387771151431;
-0,00817032916801957;
-0,00855208110260889;
-0,00864086173263818;
-0,00878293103640039;
-0,00888789149579975;
-0,00872033469603788;
-0,00842402469439494;
-0,00792300540193039;
-0,00756155127870973;
-0,00751991426991704;
-0,00780412517802854;
-0,0082618985787902;
-0,00850253715543066;
-0,00830873187673368;
-0,00763556587885054;
-0,00667994892154267;
-0,00573657815343436;
-0,00497272375341517;
-0,00441069237578051;
-0,00393191275214064;
-0,00343208398170099;
-0,00289968397770555;
-0,00238475952521189;
-0,00192832096421039;
-0,00148225809069385;
-0,000950824608467675;
-0,000290143565466503;
0,000411288160263865;
0,000950720706858195;
0,0011460046332319;
0,000975952145506684;
0,000627554879962685;
0,000398453791780193;
0,000517930982219189;
0,00101514613617677;
0,0017196568235815;
0,00238927288062024;
0,00286330155560208;
0,00313327651761688;
0,00329645176670869;
0,00344765152884179;
0,00360689773495324;
0,00373492288713961;
0,00380732955526662;
0,00386702148328296;
0,00399721332639924;
0,00423389185281516;
0,0044969633787147;
0,0046122894712679;
0,00442400079646079;
0,00391803177634487;
0,00325997636469267;
0,002709878472923;
0,00246881204511872;
0,00256394633974488;
0,00284986564670961;
0,00311755598892734;
0,00322632345175792;
0,00316590286879652;
0,00301796025094084;
0,00286525819372483;
0,00272954032980975;
0,0025832450329371;
0,00241037114502974;
0,00224903623442886;
0,00216809780412266;
0,00219379772854802;
0,00225347422762822;
0,00219633120981334;
0,00188970271483964;
0,00132353462092587;
0,000641263474484201;
6,63223785513731E-5;
-0,00022874312214725;
-0,000220105186142692;
-3,17758178230378E-5;
0,000156591984703097;
0,000221781913811908;
0,000150747627189295;
9,77671477060861E-6;
-0,000130892107199984;
-0,000249474827695127;
-0,000364344237660682;
-0,000485225633443181;
-0,000579408652036214;
-0,000591881898533788;
-0,00050567706211603;
-0,000386860906467591;
-0,00036513336508045;
-0,000552360501784068;
-0,000955587769560375;
-0,0107858544402097;
-0,0244833927707652;
-0,0183861838182726;
-0,0113444180009785;
-0,0138211695365318;
-0,00841359114315253;
-0,00685996787573352;
-0,00576289640487384;
-0,00204057203184453;
-0,00225841605307766;
-4,60104157586033E-5;
0,000750316805259862;
0,00156139325661262;
0,0033328228827295;
0,00376320363990174;
0,00490958806086328;
0,00519447690747527;
0,00554722339587746;
0,00628917859189456;
0,006962482957183;
0,00805552808949139;
0,00869124866594052;
0,00890725657664206;
0,00865408086167404;
0,00804019967800196;
0,00755263545787686;
0,00715414020929418;
0,00687769070654987;
0,00650046908309441;
0,00588772952046192;
0,00516711167446989;
0,00447576273194747;
0,00399994747417159;
0,00369509471861026;
0,00338594189685274;
0,002929778497789;
0,00232341796344108;
0,00177955745227744;
0,00152428550269017;
0,00162866236814221;
0,00191934729240457;
0,00207110956299948;
0,00184166665120716;
0,00121883707613718;
0,000419590174044756;
-0,000286276982134244;
-0,000772037163173524;
-0,00111428179052634;
-0,00149469624596482;
-0,00202046132761365;
-0,0026281079194222;
-0,00314159986766332;
-0,00342855848930838;
-0,00351919247483458;
-0,00357821053599558;
-0,00375535849374869;
-0,00404005537091171;
-0,00424912829389135;
-0,00416799032338881;
-0,00373455710750074;
-0,00311739260488963;
-0,00261834828055484;
-0,00247032198927137;
-0,00268441025511687;
-0,00306112341949537;
-0,00335151516829028;
-0,00343767607104101;
-0,00339350698965129;
-0,00338841876681068;
-0,00352404810067448;
-0,00374343084874579;
-0,0038847596827192;
-0,00382741162673853;
-0,00360043801355303;
-0,00335745242648719;
-0,00323740751101515;
-0,0032303191331691;
-0,00316669696509285;
-0,00284819414780101;
-0,00221824518064442;
-0,0014337693029516;
-0,000774729448840933;
-0,000456906406476307;
-0,000490518631829175;
-0,000690943354208398;
-0,000827692532533186;
-0,000791219450622879;
-0,000649036270273039;
-0,000556864860659344;
-0,000608185904287046;
-0,000750575292781431;
-0,000835223917175312;
-0,000751213252289482;
-0,000525058511260114;
-0,000297366712504526;
-0,000194783825128545;
-0,000206856816776074;
-0,000176765786079163;
7,83344726292885E-5;
0,000610615197281437;
0,00127606756637633;
0,00181790314016818;
0,00203855638669089;
0,00192931868150072;
0,00166031244432671;
0,0014437702087226;
0,00138113065292473;
0,00141163026898816;
0,00139359639328671;
0,00124201674311097;
0,00100497647072137;
0,000818424001264878;
0,000783676304219481;
0,000876795324523669;
0,000970118069904605;
0,000949099125169171;
0,000824357052861169;
0,000739726433316483;
0,00086228951137084;
0,00123961256414512;
0,00174036596677258;
0,00213062255906089;
0,00223063106727583;
0,00203275206336379;
0,00169217146235671;
0,00140242186086495;
0,00125632865694034;
0,00119928275544054;
0,00110302972203287;
0,000890469083124499;
0,000604942772293745;
0,00036924932351986;
0,000274784704956714;
0,000299694065941945;
0,000328571148218127;
0,000258227642316912;
9,88400431195773E-5;
-1,91255154972512E-5;
5,53959558480008E-5;
0,000365032784866305;
0,000790577725296072;
0,00112023324285241;
0,00119137052787449;
0,000996974308339423;
0,000677118000258177;
0,000406538036480565;
0,000269183796949529;
0,000216079801847775;
0,00013176237614088;
-5,3415590247068E-5;
-0,000300978521595684;
-0,000501161078172377;
-0,000572423387627469;
-0,000534772762468835;
-0,000491885202722373;
-0,000536135723347819;
-0,000658035213488277;
-0,00074034495940013;
-0,000647720680803785;
-0,000342393237131551;
6,82052915173552E-5;
0,000393776336229143;
0,000488294808095131;
0,000345299647993881;
9,01355112978842E-5;
-0,00012075469971988;
-0,0002120798473008;
-0,000227392013163547;
-0,000269769562281012;
-0,000401596499561196;
-0,000589000198812595;
-0,000734673048050821;
-0,000766452820029063;
-0,000702449533824572;
-0,000634953315147833;
-0,000645879771041533;
-0,000726374298037279;
-0,00077187885648255;
-0,000662068644295848;
-0,000363683394308704;
2,73624567130816E-5;
0,000341623863380954;
0,0004491883053858;
0,0003442542330365;
0,000138130922612068;
-3,02011698603248E-5;
-9,36689237577915E-5;
-9,05347955150117E-5;
-0,000111900951795465;
-0,000213054305156007;
-0,000364351396627455;
-0,00048020574801344;
-0,000497233759673128;
-0,000431582015426021;
-0,000364565745389544;
-0,000368056150245858;
-0,000433756903614139;
-0,000469136930378373;
-0,000368084124187233;
-0,000101495269515267;
0,000245836357269502;
0,000524456621892852;
0,000619894707182933;
0,000527054086779839;
0,000343951932615157;
0,000193007180180137;
0,000133508574742885;
0,000132235983532979;
0,000109484947090537;
1,67576886955908E-5;
-0,000120227449313326;
-0,000226892805760376;
-0,000248082188326685;
-0,000198031394844832;
-0,000147664562131649;
-0,000159383099043254;
-0,000225460024500213;
-0,000264754379169219;
-0,000184571485730565;
4,0303291608594E-5;
0,000335619704437686;
0,000570819743471619;
0,000646007915194786;
0,000556740746600816;
0,000388478733972224;
0,000247994579801678;
0,000187190928417205;
0,000177534749850229;
0,000149997736662386;
6,24457726794469E-5;
-6,30835002953507E-5;
-0,000162330338672236;
-0,000187847815165897;
-0,000152092012004554;
-0,00011629078792777;
-0,000134045877331981;
-0,000198249518042637;
-0,000238499166421316;
-0,000174701486589091;
1,47097465230495E-5;
0,000265353772192546;
0,000464346203182497;
0,000525402366659156;
0,000444654019003495;
0,000295779993100201;
0,000170879167811852;
0,000114890562883165;
0,000103588264913752;
7,78501594636229E-5;
1,44927631268808E-6;
-0,000107005236436978;
-0,000192847464209624;
-0,000215795962979784;
-0,00018666173407269;
-0,000157694774114399;
-0,000174379282801781;
-0,000230251348081989;
-0,000264936428312729;
-0,000210066499779576;
-4,74580301081749E-5;
0,000167684927537308;
0,000338888743063831;
0,000392493611351194;
0,000325152793407127;
0,000199602928208907;
9,43156769778941E-5;
4,77413352136861E-5;
3,96018367660967E-5;
1,9915490927602E-5;
-4,20822733322489E-5;
-0,000130926939968403;
-0,000200778527698698;
-0,000217939535576123;
-0,000191689688095789;
-0,000166009390778021;
-0,000178930539598244;
-0,000224621334301785;
-0,000251973189484962;
-0,000203419157677862;
-6,38664580656328E-5;
0,000119965305704453;
0,000266739405965618;
0,000314433784883755;
0,000260191109267908;
0,000156686147297418;
6,9854446967331E-5;
3,21655432219895E-5;
2,69470979971321E-5;
1,25998356424039E-5;
-3,66150368254871E-5;
-0,000108080719132105;
-0,000164000088199248;
-0,000176666150387251;
-0,000153934302105798;
-0,000132217999084698;
-0,000142752161827623;
-0,000180309649773607;
-0,000202268648249562;
-0,000160927493935105;
-4,39902724042431E-5;
0,00944304395541246;
0,0228621219082069;
0,0166457186045616;
0,00966207545955054;
0,0123132755308376;
0,00709835731441879;
0,00567571565947336;
0,00461931363846823;
0,000865831612848566;
0,0010183222127972;
-0,00126198398374014;
-0,00210852064308227;
-0,00293398106255559;
-0,00466259929516867;
-0,00497966268982717;
-0,00595809292221573;
-0,00607504903624205;
-0,00633483963621726;
-0,00711257084784776;
-0,00794468458481044;
-0,00924804952282845;
-0,0100423281626642;
-0,0102850305485661;
-0,00991093655065854;
-0,00907956215943872;
-0,00836114859604067;
-0,00778767802422185;
-0,00741902222304586;
-0,00701892380832967;
-0,00642088687896174;
-0,00572325307246966;
-0,00504213389675112;
-0,0045453892088509;
-0,00416990563683184;
-0,00373133913850035;
-0,00310358263119241;
-0,00233177816210694;
-0,00169199453382397;
-0,00145424518895862;
-0,00168327268817832;
-0,0021449281952444;
-0,00242734066111876;
-0,00222104642272577;
-0,00149999891841862;
-0,000522880108810677;
0,000371205644510727;
0,000996447561469438;
0,00140459038763458;
0,00178652731586366;
0,0022759765819435;
0,00283653051865126;
0,00331369314297164;
0,00359357865167592;
0,00372241573910337;
0,00387042012171802;
0,00417044006292271;
0,00456962776264837;
0,00483210148078257;
0,00470824976585978;
0,00414275688968356;
0,00335515800040951;
0,00271876927339608;
0,00252187048190621;
0,00278762315801664;
0,00328320232989683;
0,00370296073481293;
0,00387920290512256;
0,00386299672515946;
0,00382921586538516;
0,00390121005158333;
0,00404673029920509;
0,00412553369776228;
0,00403520648445281;
0,00381838319025892;
0,00363101385089479;
0,00359504782101277;
0,0036638115927281;
0,00362468337245967;
0,00325213706694372;
0,0024965431254078;
0,00155670736796859;
0,000770206333732586;
0,000397409914018087;
0,000458805916294935;
0,000743818360130595;
0,000976520671959992;
0,00100597462211484;
0,000878768075009242;
0,000752765666112228;
0,000738704432742014;
0,000806453408552695;
0,000828380791067761;
0,000711186069664695;
0,000492645141912716;
0,000312930286847158;
0,000281760626113464;
0,000357115365740938;
0,000347610698607752;
5,01144492281265E-5;
-0,000580631808550791;
-0,0107004359883505;
-0,0246368073666842;
-0,0186411733798099;
-0,0115668960877553;
-0,0139621248716633;
-0,00851902685612349;
-0,00700423364969187;
-0,00596340363611389;
-0,00222621177228122;
-0,00231859775877785;
8,01043075754002E-5;
0,00101843686580208;
0,00184693302132989;
0,00351636934785092;
0,0038073981570833;
0,00486577971260254;
0,00513588292274588;
0,00548620082682346;
0,00614930020608078;
0,00663064326811548;
0,00747280331510138;
0,00790850970922447;
0,00805953008218258;
0,00787334675182011;
0,00737578936989544;
0,00696125299225828;
0,0065639993971418;
0,00627084877493668;
0,00594366945911601;
0,00548579728125208;
0,0049776833783993;
0,00445636190796508;
0,00403175461177022;
0,00366453046494734;
0,0032577603173542;
0,00275285507712876;
0,00216644882354705;
0,00165204442637924;
0,00135040440624282;
0,00129782470887376;
0,00137359032317967;
0,00135834432506709;
0,0010908651937604;
0,000556208467010806;
-0,000107944903241463;
-0,00072095911773495;
-0,00118418034402512;
-0,00152359928365913;
-0,00184051790310238;
-0,00220562321355979;
-0,00259967336831129;
-0,00294097209613062;
-0,00316895321933543;
-0,00330848952994405;
-0,00345008800984321;
-0,00366431047794719;
-0,00392263843095169;
-0,00409873135367538;
-0,00405909725502302;
-0,00377421634724454;
-0,00336199768129823;
-0,00302313718304369;
-0,00291313725781034;
-0,003045485073963;
-0,00329593345338603;
-0,00350043106556917;
-0,00356832057676916;
-0,00352628619104285;
-0,00346805839770235;
-0,00346057752617981;
-0,00348793453307515;
-0,00347642085983113;
-0,00337236066626433;
-0,00319943816238567;
-0,00304157026337391;
-0,00296377717396185;
-0,00293994872026787;
-0,00285461027319578;
-0,00258578669483352;
-0,00210716308217011;
-0,00152738647872649;
-0,00103067490026422;
-0,000759596972085985;
-0,000726412464908379;
-0,000817269369080766;
-0,000881787347589636;
-0,000836608345215178;
-0,0007055637125572;
-0,000573745435210489;
-0,000501962636520397;
-0,000475618351305378;
-0,000427530815770009;
-0,000308720611851357;
-0,000140422830734006;
1,63894209412028E-6;
5,92546964821275E-5;
5,72235329935763E-5;
0,000101455425284972;
0,000303444142396925;
0,00068744385082495;
0,0104884197587955;
0,0241688077692959;
0,01808351484196;
0,0110927257010404;
0,0136591145277396;
0,00836448142487765;
0,00691670306814378;
0,00588243859073033;
0,00215601833468269;
0,00230711089020449;
3,69023106522415E-7;
-0,000867276101275889;
-0,00168638148454475;
-0,00339347606198359;
-0,0037120753902094;
-0,00474173712741161;
-0,00494102487855185;
-0,00525291401488441;
-0,00599032697326059;
-0,00667750429701049;
-0,0171216572196278;
-0,0310673973331806;
-0,0250303420966524;
-0,0178230559362564;
-0,0199047646140625;
-0,0142104585114667;
-0,0123562980348278;
-0,0109972289403263;
-0,00690882829250361;
-0,00658070643374652;
-0,0037582181799328;
-0,00236319428953574;
-0,00110638922321116;
0,000981365359747646;
0,00170295610462516;
0,00320592858593674;
0,00394403513884518;
0,00473881549532636;
0,00579365339412027;
0,00660186238473673;
0,00772833696198802;
0,00845852313884825;
0,00894688761897705;
0,00914563341657617;
0,00904701831606872;
0,00900213318657878;
0,00892350376137478;
0,0089040412538362;
0,00883139208361128;
0,00862530165789237;
0,00835993506976201;
0,00805051312798989;
0,0077900123493938;
0,00754507746261977;
0,00724222156980312;
0,00684261962158992;
0,00635808150991994;
0,00591168619674618;
0,00561087960794329;
0,00548387381842763;
0,00543922350806841;
0,00530847918723327;
0,004970495126061;
0,00441460069279396;
0,0037475472883015;
0,00310898684014355;
0,00257583950013891;
0,00213101196742923;
0,00169931378049189;
0,00122827862080412;
0,00073249072785759;
0,000273015577632861;
-0,000104710303653027;
-0,000419020454004152;
-0,000736428300249678;
-0,00110771153199056;
-0,00150923839262027;
-0,00184467832244712;
-0,0020134779637614;
-0,00199370210562093;
-0,00187391669308441;
-0,00180421640379036;
-0,00190042043361763;
-0,0021720679334403;
-0,00252589014677461;
-0,00283891164224158;
-0,00304262371884603;
-0,00315565162366785;
-0,00324665803907028;
-0,00336512690706162;
-0,00350006349891307;
-0,00359829522181916;
-0,00362134158819876;
-0,00358702924157605;
-0,00355656995198032;
-0,00357663298722663;
-0,00362698429220977;
-0,00362249595422362;
-0,00347416926000778;
-0,0031636492441521;
-0,00277135360400512;
-0,00243255233094623;
-0,00225166711751414;
-0,00223783470104062;
-0,00230825079243371;
-0,00235347526044997;
-0,00231264762809855;
-0,00220262767548063;
-0,00208486291250382;
-0,00200374114500524;
-0,00194979824034425;
-0,00187603713226667;
-0,00174848608700465;
-0,00158310164254536;
-0,00143419143181184;
-0,00134291430779835;
-0,00129088754930551;
-0,00120215359374946;
-0,000997480147090171;
-0,000660474414888692;
-0,000262387906769253;
7,70005991695615E-5;
0,000265440340971202;
0,000295267973361981;
0,000240335202860582;
0,000198095614776098;
0,000223007605655877;
0,000300771319373638;
0,000377632005579508;
0,000414834675655376;
0,000421084572387238;
0,000438138853353449;
0,00049626242712441;
0,000581795679460464;
0,000647448616253033;
0,000657667140030283;
0,000629366995694845;
0,000630032641358598;
0,000729830535098994;
0,000943486022407912;
0,00120861605712828;
0,00142026146739286;
0,00149776922223919;
0,00143485463031342;
0,00129680588183554;
0,00116959867296333;
0,00110147897522121;
0,00108039989705805;
0,00105969638416218;
0,00100573312551184;
0,000926271926319192;
0,000857874309686142;
0,000827037941596555;
0,000821977128030934;
0,000801695260708912;
0,000735562438328955;
0,000638726242299463;
0,000570295977891299;
0,000591519328259371;
0,000715189947450657;
0,000886919880654634;
0,00101533485757701;
0,00103031216938881;
0,000926464465670012;
0,000760619784459941;
0,000607557464349821;
0,000509284158426999;
0,000455475757830252;
0,00040574334678905;
0,000330894933782641;
0,000237467749914133;
0,00015683050333874;
0,000111638059083132;
9,15469026953533E-5;
6,11339368752563E-5;
-5,94327368488232E-6;
-9,65026287723594E-5;
-0,000159554217376901;
-0,000142442544176814;
-3,44036060463328E-5;
0,000117438322332635;
0,000234198144242574;
0,00025538959779667;
0,00017627446757604;
4,5610921504676E-5;
-7,24270242992582E-5;
-0,000141800116659154;
-0,000171364382986885;
-0,000195781463343647;
-0,000240199887777143;
-0,000299287857825472;
-0,000346550501413659;
-0,000362938393507438;
-0,000357487485962953;
-0,000360481183001428;
-0,000394319364773874;
-0,0004476725980443;
-0,000477091142179345;
-0,000437869158906274;
-0,000321083473047394;
-0,000167074251643092;
-4,31015556109172E-5;
-6,73863677341496E-7;
-4,38742498222139E-5;
-0,000131354696868688;
-0,000208689798277808;
-0,000245293272630421;
-0,000248595126188649;
-0,000247887848288206;
-0,000264494000889067;
-0,000294086967465552;
-0,000314550791788149;
-0,000310042766070181;
-0,000288284505348057;
-0,00027472823353038;
-0,000288057479073634;
-0,000318564400558912;
-0,000329645588851123;
-0,00028380208712091;
-0,000173686566678045;
-3,32834032934998E-5;
8,09435265883684E-5;
0,000125836563667812;
9,80090458169298E-5;
3,20952048867556E-5;
-2,63417976866598E-5;
-5,16393155350531E-5;
-4,98451187463836E-5;
-4,52551120902636E-5;
-5,5605250047182E-5;
-7,74005536805851E-5;
-9,24414276787876E-5;
-8,77329608033097E-5;
-6,97226234631787E-5;
-5,93915224582186E-5;
-7,19866021550186E-5;
-9,92459264256274E-5;
-0,000110778217952917;
-7,56151445975771E-5;
1,22060858324889E-5;
0,000124550278196758;
0,000214841432912772;
0,000247566924778681;
0,000219998986331457;
0,000160674249368463;
0,000107098196045223;
8,04572307834832E-5;
7,59614680151126E-5;
7,38594490103114E-5;
5,96816537093802E-5;
3,61809791142636E-5;
1,80170275965546E-5;
1,56116103029514E-5;
2,36732562970926E-5;
2,52610430997537E-5;
8,21728088534947E-6;
-2,05360161613498E-5;
-3,62595572468988E-5;
-1,39141773064236E-5;
5,12012677317826E-5;
0,000136237049293258;
0,000203549250032273;
0,000224519120291845;
0,000196989596473102;
0,000143958731845749;
9,56215459831897E-5;
6,9086893011391E-5;
6,06624463402318E-5;
5,46616787246932E-5;
3,95336854766889E-5;
1,73450959315518E-5;
-4,45558393388589E-7;
-5,74725374286299E-6;
-2,83334413495135E-6;
-5,04334287514867E-6;
-2,1798110011555E-5;
-4,74220299191024E-5;
-6,22895322942927E-5;
-4,67116722773303E-5;
2,86401267589814E-6;
6,83191181564844E-5;
0,000120009145651334;
0,00013547966687732;
0,000113063243485364;
7,07700957843878E-5;
3,22201588920807E-5;
1,08430190852852E-5;
3,90085275121422E-6;
-6,79557811654504E-7;
-1,18538368171965E-5;
-2,81736853502778E-5;
-4,10392680430628E-5;
-4,44404735550833E-5;
-4,17484219337294E-5;
-4,3105400778393E-5;
-5,55140185905024E-5;
-7,44320925390887E-5;
-8,48061875318358E-5;
-7,17182629443323E-5;
-3,26357495091066E-5;
1,85399602101028E-5;
5,92858177011987E-5;
7,26307074863107E-5;
5,73408307348629E-5;
2,69905881297707E-5;
-6,45971649758494E-7;
-1,54137607679552E-5;
-1,92117555420698E-5;
-2,09125180480555E-5;
-2,71671807623108E-5;
-3,70629078011517E-5;
-4,45140689467743E-5;
-4,5336179202525E-5;
-4,20926848014798E-5;
-4,20982392721241E-5;
-5,02243701923393E-5;
-6,29375233054106E-5;
-6,92238299535893E-5;
-5,83699320408014E-5;
-2,87290698166623E-5;
9,53378515120226E-6;
4,018952246558E-5;
5,11108752796147E-5;
4,14538429865684E-5;
2,08917345820543E-5;
2,05526560374757E-6;
-7,78202638045271E-6;
-9,78322165144337E-6;
-1,00065763923749E-5;
-1,30707236172154E-5;
-1,85170798160545E-5;
-2,24460528608221E-5;
-2,22559430374256E-5;
-1,97912318467339E-5;
-1,9887617320515E-5;
-2,55556919250075E-5;
-3,41509740126118E-5;
-3,81950337993605E-5;
-3,06451245326983E-5;
-1,0616494188919E-5;
0,00934843839117358;
0,0226652264130779;
0,0164157066029729;
0,00947001974374241;
0,0121930244977727;
0,00703741069026862;
0,00563933155215556;
0,0045856279832017;
0,00084334173749964;
0,00103383042004476;
-0,0105250919917084;
-0,024624795116025;
-0,0191828784217779;
-0,013988885749795;
-0,0170598309768481;
-0,0128894977407624;
-0,0115892258437487;
-0,0107811867517411;
-0,00784603013112641;
-0,00895395011660696;
0,00118825079489948;
0,014403244013547;
0,00868984653374951;
0,00390338295989687;
0,00786681072086561;
0,00446240760667456;
0,0037519455298491;
0,00331262152377072;
0,000790793880043068;
0,00253906661608328;
-0,00684616173710052;
-0,0193332145837664;
-0,0131103609741808;
-0,00796533091489131;
-0,0115108804683624;
-0,00747937017168917;
-0,0059780477648441;
-0,00488633158804707;
-0,00215166391471306;
-0,00420056577599994;
-0,00470511725034907;
-0,00587244191833482;
-0,00565665047483714;
-0,00311363139010066;
-0,00127564267376879;
0,000772136396297904;
0,00130409993160416;
0,00167415228094412;
0,00307233944405282;
0,00544763343833976;
0,00877666609596373;
0,0112550184644238;
0,0121427834336483;
0,0114638929297591;
0,0100959549687257;
0,00932158390021323;
0,00929308554283926;
0,00943818735462993;
0,00870669265413905;
0,00663418797546228;
0,0132017117545119;
0,0242152733447894;
0,0171286198945196;
0,0107457305647494;
0,0144878037429443;
0,00979826389583384;
0,00802871845655704;
0,00644522715081165;
0,00299626530043441;
0,00472055539689591;
0,00469128532209191;
0,00555422423720579;
0,00497789055079392;
0,00208919375341826;
0,000131719848230516;
-0,00195437920551931;
-0,00237240088350462;
-0,00276652377212468;
-0,00447170598628856;
-0,00742993260560178;
-0,0114929268300841;
-0,0145261713795567;
-0,0156106470238029;
-0,0147293445714806;
-0,0129167132628632;
-0,0116983751148628;
-0,0113664837197528;
-0,0113761106273704;
-0,0105861531765411;
-0,00844575647505875;
-0,00558346021879997;
-0,00320072407504066;
-0,00228857839189927;
-0,00273767984163084;
-0,00353972941798565;
-0,00367030222214764;
-0,00293120799598897;
-0,00216860206114281;
-0,00250418453910458;
-0,00436376220366673;
-0,00701405681049688;
-0,00902267684101328;
-0,00930697320508455;
-0,00788555693635064;
-0,00579256383898877;
-0,00421206409564511;
-0,00355926129715342;
-0,00324795831717421;
-0,00228883379812398;
-0,000210676217348863;
0,00248020065994203;
0,00467042776965904;
0,00551962577200398;
0,00511477415641082;
0,00435212432499777;
0,00415575414543075;
0,00468730086783667;
0,00520989434765311;
0,00472566126931947;
0,00286222595837692;
0,000277121766961325;
-0,00176151541976381;
-0,00228832244967336;
-0,0013202109962001;
0,000230331078666613;
0,00131845734825687;
0,00157715563285099;
0,00152647021484283;
0,00204000307674454;
0,00353552154862329;
0,00556906387325591;
0,00716210955527553;
0,00757802282361749;
0,00689573977603079;
0,00590551737442831;
0,00542013581467944;
0,00558081346650031;
0,00573964513923132;
0,00502078175594021;
0,00309945517110221;
0,000555411258178126;
-0,00149669481121431;
-0,00220924952512861;
-0,00159706448194345;
-0,000460052504829875;
0,00028613869995758;
0,000319517051985881;
9,42243097135087E-5;
0,000373433281397087;
0,0015220998838117;
0,00315312661124299;
0,00441370938569761;
0,00466272365565697;
0,00396994799197225;
0,00302383284690147;
0,00253081081253005;
0,00261167547390877;
0,00270093183549638;
0,00203635913539288;
0,000336449994554094;
-0,0112271337779517;
-0,0263148258064331;
-0,0206747153833729;
-0,01319117519045;
-0,0149177919916981;
-0,0090941846285216;
-0,00763217520334846;
-0,00672745273710217;
-0,00269161179404134;
-0,00183397098992107;
0,00185988320528203;
0,00381820178328259;
0,00492364332646624;
0,00615462631462052;
0,0057598442893708;
0,00639407334449652;
0,00664087641997582;
0,0070509834980235;
0,00738206168379025;
0,00693902876833426;
0,0065421731151374;
0,00598932305288847;
0,00582783559787909;
0,00597799932408054;
0,00603753291958563;
0,00593832512278556;
0,00549299398012275;
0,00508487221108112;
0,00501322033924098;
0,00536322529804347;
0,00595581344228165;
0,00630434652216573;
0,00612442334181021;
0,00540017356229022;
0,00442865587912126;
0,00357942018529765;
0,0029864187514757;
0,00253707686586626;
0,00197453016458232;
0,00116725790419159;
0,000226543134172558;
-0,000595449749763454;
-0,00110562130349011;
-0,00134254194222306;
-0,00152573262087318;
-0,0018592717612218;
-0,00234467582219042;
-0,00276044890071085;
-0,00284435202509269;
-0,00251693165445457;
-0,00197557009284007;
-0,00157375266651721;
-0,00157792028625772;
-0,00199327653405457;
-0,0025839764325053;
-0,0030662806052411;
-0,0033143009766218;
-0,0034205953962128;
-0,00357879303639647;
-0,00389729382758909;
-0,00430355899166799;
-0,00461184255098818;
-0,00468803668615832;
-0,00456585368967861;
-0,00441364943768041;
-0,00438132503783822;
-0,00445888937121865;
-0,00447007995808077;
-0,00421208906884933;
-0,00363035968009288;
-0,00288648909800584;
-0,00226150614592011;
-0,00196758592889128;
-0,00201212586110572;
-0,00221395716524426;
-0,00235066660422648;
-0,00231681941937318;
-0,00217311774807268;
-0,00206089237234609;
-0,00206466269026078;
-0,00214010454584681;
-0,00216175217901864;
-0,00204087993652593;
-0,00180679631740624;
-0,00157990745168231;
-0,00145997007883618;
-0,00142675841898246;
-0,00134134082844898;
-0,0010526198999192;
-0,000525620545746901;
0,000112080303816521;
0,000645420215584061;
0,000912592763838031;
0,000905608079798136;
0,000758727127427734;
0,000641051115020418;
0,000640455253169742;
0,000724987648073812;
0,000800072729657369;
0,00080341716691271;
0,00075594526498317;
0,000731611564876891;
0,000780591081441825;
0,000878266153010081;
0,000946679703029527;
0,000929979007965719;
0,00085709800543066;
0,000834087614782961;
0,000966860947589902;
0,00127373110259767;
0,00165761253918095;
0,00196189904866033;
0,00206937260591748;
0,00197169407290362;
0,00176189689147612;
0,00156193003429971;
0,00144357487014569;
0,00139925212183588;
0,00137471085258846;
0,00132695667875133;
0,00125677690801402;
0,00119364483851657;
0,00115440399983368;
0,00111835465735977;
0,00104382448167878;
0,000912140159838646;
0,000758720798268154;
0,000660157713831348;
0,000682585544541656;
0,000829664628304409;
0,00103079257547424;
0,00118012322303532;
0,00119902933475414;
0,00107857260097301;
0,000875494822564538;
0,00067006642431398;
0,000519114357099578;
0,000435140003374804;
0,000398022046135868;
0,000381148809514176;
0,000368049361344577;
0,00035013912184187;
0,000315714563172625;
0,000247260620144834;
0,000133709979405654;
-1,25591039299181E-5;
-0,00015152707641564;
-0,000232673534987131;
-0,000224416124233493;
-0,000135702521889475;
-1,42149744613231E-5;
7,79819816749813E-5;
9,5492413852977E-5;
2,88161581032944E-5;
-9,66861285188749E-5;
-0,000236970229081124;
-0,000348714007218565;
-0,00040292839782981;
-0,000390984830367644;
-0,000325482672302391;
-0,0002371776209192;
-0,000166466023223909;
-0,000148858736729652;
-0,000199022407453053;
-0,000302292345203243;
-0,000420494221949454;
-0,000510331484535099;
-0,000543823945050553;
-0,000518754876393127;
-0,000454479428404916;
-0,000378773264417236;
-0,000316100162111826;
-0,00028330518519959;
-0,000290132891281005;
-0,000337770875863425;
