2,610140948892E-5;
5,79782560149992E-5;
6,90100593753084E-5;
5,83687037474499E-5;
3,66404312255367E-5;
1,73944336426083E-5;
7,90650108644129E-6;
5,89562714628801E-6;
3,89549033450359E-6;
-3,19637248524054E-6;
-1,38839853011445E-5;
-2,22762148568372E-5;
-2,41721321437183E-5;
-2,13015462536824E-5;
-1,98515205120843E-5;
-2,45399046430455E-5;
-3,34718244239641E-5;
-3,84853498043473E-5;
-3,11346287302613E-5;
-9,69502745553992E-6;
1,84455030054145E-5;
4,10902226592181E-5;
4,90889606735131E-5;
4,19059058050358E-5;
2,69679353558777E-5;
1,37179395298634E-5;
7,17760498530629E-6;
5,75549375565347E-6;
4,32501139885732E-6;
-5,83351006237969E-7;
-7,93304574027131E-6;
-1,37336040577861E-5;
-1,51709819854476E-5;
-1,34217134422126E-5;
-1,26096784378138E-5;
-1,58412981251844E-5;
-2,18438990653123E-5;
-2,52691568962583E-5;
-2,06518526805919E-5;
-6,93165068415209E-6;
1,10986648846974E-5;
2,564856340591E-5;
3,09562327344421E-5;
2,67401859644513E-5;
1,76765214758955E-5;
9,61765457393022E-6;
5,62504696322682E-6;
4,7066364512071E-6;
3,76811924191559E-6;
7,5717934565159E-7;
-3,68907067944065E-6;
-7,22915631898908E-6;
-8,25135446405961E-6;
-7,45270422019395E-6;
-7,17055758355482E-6;
-9,11719683011172E-6;
-1,25589403449236E-5;
-1,45805553610182E-5;
-1,22923913785655E-5;
-5,2074016290798E-6;
4,12204811355794E-6;
1,17065854305213E-5;
1,47055346975277E-5;
1,30563011463079E-5;
9,06603885908782E-6;
5,49713415091304E-6;
3,7251181796111E-6;
3,27308227996375E-6;
2,79224709321009E-6;
1,44639344988057E-6;
-4,70764420003642E-7;
-2,03219085838008E-6;
-2,65657499074963E-6;
-2,63012840930207E-6;
-2,76104018573114E-6;
-3,56941260191523E-6;
-4,78301578982775E-6;
-5,56590858481252E-6;
-5,22761817576246E-6;
-3,76988383732745E-6;
-1,83394549823645E-6;
-1,69353718407325E-7;
8,7114945302021E-7;
1,41122360936412E-6;
1,7431503016503E-6;
2,00303706830059E-6;
2,13459585856064E-6;
2,09822163047425E-6;
2,02547434414862E-6;
2,11044394366096E-6;
2,35545870663949E-6;
2,49003835003472E-6;
2,22400440638406E-6;
1,61866875009745E-6;
1,15756404932971E-6;
1,32658656139881E-6;
2,00822901620848E-6;
2,28548558250325E-6;
9,96615481609541E-7;
-2,27100829008745E-6;
-6,55070511596506E-6;
-9,86886692396998E-6;
-1,04888024354413E-5;
-8,13049978668881E-6;
-4,19091565257896E-6;
-7,33944369425937E-7;
9,85798997759927E-7;
1,29458525186113E-6;
1,56098121655919E-6;
2,83901705598129E-6;
4,8874420850696E-6;
6,43722125825733E-6;
6,4723691567592E-6;
5,34373477784609E-6;
4,60916523090897E-6;
5,59018484527193E-6;
7,84523996607884E-6;
9,00293571141047E-6;
6,36657477324663E-6;
-8,1618994652992E-7;
-1,02478219119488E-5;
-1,77034312163491E-5;
-1,9720699876976E-5;
-1,5890574456545E-5;
-9,00224338916994E-6;
-2,93095602109833E-6;
8,31281555993654E-8;
6,67061864183954E-7;
1,20481598739026E-6;
3,45529103425329E-6;
6,97717482188662E-6;
9,68384327385375E-6;
9,96593321156948E-6;
8,41107902023886E-6;
7,4538881151447E-6;
9,09677155723793E-6;
1,26337585303701E-5;
1,4510004937343E-5;
1,07816199694781E-5;
4,21011406421287E-7;
-1,31946101782663E-5;
-2,40166868813476E-5;
-2,71868486977813E-5;
-2,21917948934337E-5;
-1,29442512350219E-5;
-4,77933071962736E-6;
-7,30383828566764E-7;
7,15689658756816E-8;
8,25691733842427E-7;
3,85570568029314E-6;
8,55951958014177E-6;
1,21962067203633E-5;
1,26824472129183E-5;
1,07950679812597E-5;
9,66734552029513E-6;
1,18431543785187E-5;
1,64058226238233E-5;
1,88609512129005E-5;
1,42763940270548E-5;
1,40730270662003E-6;
-1,55153161897649E-5;
-2,9003590367203E-5;
-3,30992391106213E-5;
-2,72070673980732E-5;
-1,61222197517213E-5;
-6,3243511479206E-6;
-1,46750349870515E-6;
-4,93517198579181E-7;
4,32568068059957E-7;
4,07387850050149E-6;
9,70273743646956E-6;
1,4070059410505E-5;
1,47254068853104E-5;
1,25922321887273E-5;
1,1343299384399E-5;
1,39393875337551E-5;
1,93011115111816E-5;
2,22122856678051E-5;
1,69836124766025E-5;
2,20473527422923E-6;
-1,72409265307506E-5;
-3,27687497644515E-5;
-3,75844112930141E-5;
-3,10307955675894E-5;
-1,8570923544081E-5;
-7,54848438435643E-6;
-2,08480332373605E-6;
-9,79398392753159E-7;
7,91520691208594E-8;
4,18203217906326E-6;
1,05072489929251E-5;
1,54272626184429E-5;
1,62192878691838E-5;
1,39156863981367E-5;
1,25876637181791E-5;
1,55025918679797E-5;
2,14608929355589E-5;
2,47173451913247E-5;
1,90299729653539E-5;
2,86871726601415E-6;
-1,84085402306035E-5;
-3,54230573207114E-5;
-4,07775105626239E-5;
-3,37705654634278E-5;
-2,03439308216392E-5;
-8,45802980968818E-6;
-2,56625458092632E-6;
-1,36703842804952E-6;
-2,12751823168843E-7;
4,21789796337028E-6;
1,1036133142809E-5;
1,63500130767824E-5;
1,72477128634272E-5;
1,48373844596013E-5;
1,34648528702325E-5;
1,66072872776774E-5;
2,29822240310396E-5;
2,64844393741486E-5;
2,04985079723984E-5;
3,41482627853176E-6;
-1,90900227545041E-5;
-3,71080019111616E-5;
-4,28426706576895E-5;
-3,55640418296593E-5;
-2,15272957659301E-5;
-9,09367479991457E-6;
-2,93061120302968E-6;
-1,67138934939056E-6;
-4,54424065606895E-7;
4,18634918719426E-6;
1,131936434833E-5;
1,6887588785289E-5;
1,78626522396169E-5;
1,53997036917597E-5;
1,40115677302794E-5;
1,730111913904E-5;
2,39354174987902E-5;
2,75959514923379E-5;
2,14493432578152E-5;
3,84131538010859E-6;
-1,93677868545155E-5;
-3,79699898867856E-5;
-4,39462644250575E-5;
-3,6551545190293E-5;
-2,22117344391204E-5;
-9,50236777591194E-6;
-3,20299857244312E-6;
-1,91274106589234E-6;
-6,6146917352285E-7;
4,08810790320687E-6;
1,13823228898405E-5;
1,70845646548758E-5;
1,81123240822372E-5;
1,56429926779521E-5;
1,42638814772172E-5;
1,76313369359705E-5;
2,43897702262332E-5;
2,81332969394956E-5;
2,19439833399966E-5;
4,15280191122328E-6;
-1,93116868735305E-5;
-3,81379212766991E-5;
-4,42353793716243E-5;
-3,68556099325523E-5;
-2,24733665808644E-5;
-9,71926856988037E-6;
-3,39801130153072E-6;
-2,10092854232772E-6;
-8,39143020001153E-7;
3,9332510907595E-6;
1,12581015952845E-5;
1,69919664601604E-5;
1,80512376157305E-5;
1,56145359914171E-5;
1,42651471313622E-5;
1,76516160072087E-5;
2,4419302325591E-5;
2,81816315451035E-5;
2,20490773506594E-5;
4,36322922466128E-6;
-1,89767847489178E-5;
-3,77216917145493E-5;
-4,38370807217248E-5;
-3,65810858240185E-5;
-2,23746774413459E-5;
-9,769503799993E-6;
-3,52219749453866E-6;
-2,23845955330502E-6;
-9,86085541765761E-7;
3,73689878389291E-6;
1,09826533470129E-5;
1,66618967016898E-5;
1,77343755677114E-5;
1,53623635322359E-5;
1,40594584084343E-5;
1,74151963322295E-5;
2,4095603286644E-5;
2,78224546390746E-5;
2,18288544705831E-5;
4,48819982393464E-6;
-1,84110650852379E-5;
-3,68199195678124E-5;
-4,28661674126454E-5;
-3,58229031569926E-5;
-2,1972261756615E-5;
-9,67587556986042E-6;
-3,5816861058407E-6;
-2,32805088021662E-6;
-1,10173635899164E-6;
3,51194312811532E-6;
1,05876702338896E-5;
1,61406063367847E-5;
1,72104742054413E-5;
1,49287469647382E-5;
1,36853797207431E-5;
1,69688643433378E-5;
2,34820665872143E-5;
2,71281069432093E-5;
2,13398982362649E-5;
4,54001418144994E-6;
-1,76601241218888E-5;
-3,55243599754872E-5;
-4,14292737002341E-5;
-3,4669837189667E-5;
-2,13202589360528E-5;
-9,46195318596701E-6;
-3,58496648378705E-6;
-2,37510694000863E-6;
-1,18851017495381E-6;
3,26716237050267E-6;
1,00990028446874E-5;
1,54672042269805E-5;
1,65209808002982E-5;
1,43493933910473E-5;
1,31753776588749E-5;
1,63526242569138E-5;
2,26338270868248E-5;
2,61619417133105E-5;
2,06314793170803E-5;
4,52812145760795E-6;
-1,67666441727079E-5;
-3,39192782212662E-5;
-3,96240932408458E-5;
-3,32035297714272E-5;
-2,0469125072125E-5;
-9,15065144441023E-6;
-3,54131511099506E-6;
-2,38602529507846E-6;
-1,25001949184889E-6;
3,00911774527004E-6;
9,53867406113519E-6;
1,4675748469599E-5;
1,57022102776915E-5;
1,36556214719166E-5;
1,25580068741825E-5;
1,56019273926286E-5;
2,16000273248009E-5;
2,49806072386036E-5;
1,97477879850694E-5;
4,46120156392243E-6;
-1,57685000618451E-5;
-3,20797125012328E-5;
-3,75377005358389E-5;
-3,14967736989254E-5;
-1,94638513585834E-5;
-8,76238128642954E-6;
-3,45894298702513E-6;
-2,36640335798118E-6;
-1,28931544840553E-6;
2,74387713919786E-6;
8,92657706658464E-6;
1,37969246644858E-5;
1,47869353585914E-5;
1,28758455627751E-5;
1,18593063311946E-5;
1,47490035317038E-5;
2,04251229441464E-5;
2,36352990829921E-5;
1,87290347554922E-5;
4,34801374614337E-6;
-1,46982101410338E-5;
-3,00711860582859E-5;
-3,52463894474277E-5;
-2,96133335601442E-5;
-1,83436977834734E-5;
-8,3147215653096E-6;
-3,34467497640123E-6;
-2,32077174520564E-6;
-1,30869438820971E-6;
2,47719110471628E-6;
8,28067408195875E-6;
1,285823210601E-5;
1,38045300390219E-5;
1,20356263105943E-5;
1,11027593688637E-5;
1,3822815032377E-5;
1,91488650381688E-5;
2,21717240235753E-5;
1,76113008672618E-5;
4,19700509201397E-6;
-1,35836300340491E-5;
-2,79506189315809E-5;
-3,28166649535108E-5;
-2,7608870868249E-5;
-1,7142957722194E-5;
-7,82304806311756E-6;
-3,20451483627069E-6;
-2,25315099840047E-6;
-1,31023929799427E-6;
2,21399940107717E-6;
7,61657736536988E-6;
1,18836349675644E-5;
1,27806165592196E-5;
1,11572847149554E-5;
1,03089043697171E-5;
1,28486934690609E-5;
1,78060160432506E-5;
2,0629877674567E-5;
1,64262352065158E-5;
4,01579255126554E-6;
-1,24487373238444E-5;
-2,5767336258629E-5;
-3,03062927425185E-5;
-2,5531846446374E-5;
-1,58916507475153E-5;
-7,30103752790673E-6;
-3,04404203232319E-6;
-2,1674162472093E-6;
-1,29615119891725E-6;
1,95818874365181E-6;
6,9474213065638E-6;
1,0893512364798E-5;
1,17370534951622E-5;
1,02598783973161E-5;
9,49530103068983E-6;
1,18483771138345E-5;
1,64264893566231E-5;
1,90442358453584E-5;
1,52011878254006E-5;
3,81107876834498E-6;
-1,13140176836412E-5;
-2,35636648229905E-5;
-2,77649450627262E-5;
-2,34240565416404E-5;
-1,46158258371584E-5;
-6,7607659669428E-6;
-2,86841227057698E-6;
-2,06725870331023E-6;
-1,26867861612936E-6;
1,71272970152159E-6;
6,28411247904982E-6;
9,9050095633346E-6;
1,0692297152829E-5;
9,35952206372443E-6;
8,67683879356499E-6;
1,08403656749854E-5;
1,5035804275233E-5;
1,74442610434418E-5;
1,39596151751463E-5;
3,58881322443144E-6;
-1,01966176353864E-5;
-2,13753523435879E-5;
-2,52346898312842E-5;
-2,13209838508733E-5;
-1,33377067828002E-5;
-6,21267582228126E-6;
-2,6822292162414E-6;
-1,95604152368864E-6;
-1,22995242791811E-6;
1,47991367219532E-6;
5,6356591407917E-6;
8,9324295467316E-6;
9,66181054141897E-6;
8,46976465779453E-6;
7,86607819346445E-6;
9,84029691833552E-6;
1,36555403194997E-5;
1,58548988074058E-5;
1,27214878622213E-5;
3,35432676265687E-6;
-9,11054851632218E-6;
-1,92320170574758E-5;
-2,2750523607732E-5;
-1,92522288128729E-5;
-1,2075912301019E-5;
-5,66561363153339E-6;
-2,48949062302651E-6;
-1,8367329394117E-6;
-1,18191459382658E-6;
1,26148494529248E-6;
5,00940446877741E-6;
7,98754215435611E-6;
8,65836308204452E-6;
7,60183301859702E-6;
7,07347659466881E-6;
8,86121049279063E-6;
1,23036865852439E-5;
1,42969704846209E-5;
1,15035742139754E-5;
3,11236870220289E-6;
-8,06698374096059E-6;
-1,71577295980321E-5;
-2,03410257873577E-5;
-1,72420489090429E-5;
-1,08457881003124E-5;
-5,12697550495218E-6;
-2,293651033538E-6;
-1,71195078758186E-6;
-1,12634336846907E-6;
1,05867802517642E-6;
4,41115855685881E-6;
7,07978945733393E-6;
7,69225588476221E-6;
6,76482245173816E-6;
6,30754481608678E-6;
7,91374940775729E-6;
1,09949355806991E-5;
1,27875069354297E-5;
1,03196874547941E-5;
2,86709135320996E-6;
-7,07460371137044E-6;
-1,51715945044599E-5;
-1,8029021796779E-5;
-1,53099116105814E-5;
-9,65974606762956E-6;
-4,60286688970304E-6;
-2,09769081277535E-6;
-1,58401050620421E-6;
-1,06488200257903E-6;
8,72251652003916E-7;
3,84534124406518E-6;
6,21651136022199E-6;
6,77155158188335E-6;
5,96588785093406E-6;
5,57501356182848E-6;
7,00636757681754E-6;
9,74098089631426E-6;
1,13400950178399E-5;
9,18094451697388E-6;
2,62207122261688E-6;
-6,13989062721435E-6;
-1,32883073970709E-5;
-1,58322114216431E-5;
-1,34710067745839E-5;
-8,52757817656176E-6;
-4,09823693265667E-6;
-1,90415706226835E-6;
-1,45495315025353E-6;
-9,99046522926051E-7;
7,02558233264918E-7;
3,31513574217643E-6;
5,40316519644644E-6;
5,90231057437417E-6;
5,21044866897465E-6;
4,88103242810579E-6;
6,14556636019668E-6;
8,55083263053289E-6;
9,96524558240267E-6;
8,09604050216583E-6;
2,38034407577195E-6;
-5,26739233956853E-6;
-1,15186555031063E-5;
-1,37637370833206E-5;
-1,17367143695183E-5;
-7,45673328733634E-6;
-3,61698949620703E-6;
-1,71519555295878E-6;
-1,32654601334978E-6;
-9,30213689916956E-7;
5,49603590136593E-7;
2,82265574966779E-6;
4,6435733963512E-6;
5,08885118071716E-6;
4,50240234846571E-6;
4,22934842508525E-6;
5,33613172151745E-6;
7,431138792282E-6;
8,67074445435745E-6;
7,07153055605993E-6;
2,14446145197699E-6;
-4,45996666182794E-6;
-9,86998664316347E-6;
-1,18327296687216E-5;
-1,01150543583938E-5;
-6,45257805148801E-6;
-3,1620768823895E-6;
-1,53256162415813E-6;
-1,20029395675918E-6;
-8,59612397148521E-7;
4,13120040425092E-7;
2,36909698895679E-6;
3,94013757208171E-6;
4,33396308208869E-6;
3,84432937304024E-6;
3,62250088004606E-6;
4,58133369444377E-6;
6,38647045066121E-6;
7,46198809249218E-6;
6,11207389529535E-6;
1,91653187820224E-6;
-3,71901364068271E-6;
-8,34667165413442E-6;
-1,00448298378084E-5;
-8,61111472626572E-6;
-5,51866128424363E-6;
-2,735622363622E-6;
-1,35766706841725E-6;
-1,0774560810978E-6;
-7,88332448566335E-7;
2,92615468087767E-7;
1,95487408625855E-6;
3,29403573575746E-6;
3,63912719412913E-6;
3,23765788546459E-6;
3,0619638790706E-6;
3,88313982866307E-6;
5,41959430022221E-6;
6,34229166354845E-6;
5,2206849073342E-6;
1,6982555360269E-6;
-3,04469625234226E-6;
-6,95051869791063E-6;
-8,40267570195768E-6;
-7,22745677447819E-6;
-4,6569536194736E-6;
-2,33901287231061E-6;
-1,1916122175596E-6;
-9,59068453264655E-7;
-7,17321631903E-7;
1,87414349628109E-7;
1,57973392772123E-6;
2,70540499202867E-6;
3,00470146965468E-6;
2,68284064888781E-6;
2,54831058638912E-6;
3,24238528915566E-6;
4,53172213016333E-6;
5,31317295099383E-6;
4,39893771491793E-6;
1,49096149609183E-6;
-2,43615052883934E-6;
-5,681177074317E-6;
-6,90635482362428E-6;
-5,964490084193E-6;
-3,86807809994327E-6;
-1,97300360936369E-6;
-1,03521635019918E-6;
-8,45966718352902E-7;
-6,47406354627581E-7;
9,67040191282498E-8;
1,24287997010495E-6;
2,17350927693753E-6;
2,43009611449519E-6;
2,17949350528206E-6;
2,08133829955858E-6;
2,65895023747353E-6;
3,7227410781736E-6;
4,37461901698023E-6;
3,64718313918322E-6;
1,2956442489599E-6;
-1,89166128534843E-6;
-4,53649460261424E-6;
-5,55382556284901E-6;
-4,82081600522421E-6;
-3,15151775418764E-6;
-1,63780766741137E-6;
-8,89054587464083E-7;
-7,38800626589645E-7;
-5,79286813919742E-7;
1,95649260254582E-8;
9,43059313784977E-7;
1,69689333493145E-6;
1,91394781740728E-6;
1,72655118375651E-6;
1,66020508476632E-6;
2,1319090373816E-6;
2,99143484429278E-6;
3,52533999472729E-6;
2,96473466493918E-6;
1,1129989234739E-6;
-1,40883509382708E-6;
-3,51284089930914E-6;
-4,34128499815439E-6;
-3,79354460991867E-6;
-2,50581329366549E-6;
-1,3331799482874E-6;
-7,53480302816251E-7;
-6,38048224092174E-7;
-5,13548970052101E-7;
-4,49950621604506E-8;
6,78674023159219E-7;
1,27352388548116E-6;
1,45424954199539E-6;
1,32238600773987E-6;
1,28354345611861E-6;
1,65967793366367E-6;
2,33567437664334E-6;
2,76298192630695E-6;
2,3500471056247E-6;
9,43464244224537E-7;
-9,84741841923131E-7;
-2,60540699678642E-6;
-3,26351903423285E-6;
-2,87857313005849E-6;
-1,92872335401606E-6;
-1,05848409909638E-6;
-6,28657611252833E-7;
-5,44045120214827E-7;
-4,50671396462828E-7;
-9,80032127955358E-8;
4,47854983860716E-7;
9,00914074264269E-7;
1,04850314630452E-6;
9,64925135530205E-7;
9,49566483875123E-7;
1,2401500331404E-6;
1,75260030327103E-6;
2,08434611511493E-6;
1,80087757713424E-6;
7,87241436817727E-7;
-6,16055182225623E-7;
-1,80846315400167E-6;
-2,31420265970163E-6;
-2,07084710455961E-6;
-1,4173944359403E-6;
-8,12779260492948E-7;
-5,14587596343008E-7;
-4,56987751364927E-7;
-3,91031487015226E-7;
-1,40510595111451E-7;
2,48530397082983E-7;
5,76234286200199E-7;
6,93824225383443E-7;
6,51754461024208E-7;
6,56162332704618E-7;
8,70799781167111E-7;
1,23877764473462E-6;
1,48555693890875E-6;
1,31442398158191E-6;
6,44341621787412E-7;
-2,99159759044244E-7;
-1,11559968477061E-6;
-1,4861779104507E-6;
-1,36458680904086E-6;
-9,68495340426876E-7;
-5,94863862775362E-7;
-4,11129200306806E-7;
-3,76962509442538E-7;
-3,34918924774406E-7;
-1,73564824534299E-7;
7,85008005606212E-8;
2,96411821094123E-7;
3,87054781592495E-7;
3,80209730570515E-7;
4,0097445588775E-7;
5,48795742702393E-7;
7,90341367045717E-7;
9,62234250896998E-7;
8,87454966295158E-7;
5,14600106160701E-7;
-3,02611951148546E-8;
-5,19929389498907E-7;
-7,71688385729158E-7;
-7,53486245208302E-7;
-5,78342148896026E-7;
-4,0334718934072E-7;
-3,18028510157805E-7;
-3,0395269016641E-7;
-2,82537410398678E-7;
-1,98193844065756E-7;
-6,45164412726055E-8;
5,8214404071237E-8;
1,248498385497E-7;
1,47454270975887E-7;
1,81478254766607E-7;
2,71081250711211E-7;
4,03116691530814E-7;
5,09634294954019E-7;
5,16425185041632E-7;
3,97710900107478E-7;
1,94530955005574E-7;
-1,42653245804979E-8;
-1,6259514554203E-7;
-2,30892014261982E-7;
-2,43006847430732E-7;
-2,36691196171362E-7;
-2,34931169927565E-7;
-2,37856688362724E-7;
-2,34018520217549E-7;
-2,15392864093857E-7;
-1,82833538164479E-7;
-1,41673495618914E-7;
-9,62416584396554E-8;
-4,94531717473335E-8;
-4,95492762951026E-9;
3,44667144680454E-8;
7,27347752608715E-8;
1,22773937628628E-7;
1,97571256737548E-7;
2,93252590729055E-7;
3,79130098342826E-7;
4,08718716829308E-7;
3,49444819091611E-7;
2,10044486020543E-7;
4,15829439660997E-8;
-9,32608091459436E-8;
-1,61409622018854E-7;
-1,78497295640937E-7;
-1,89428299514841E-7;
-2,26115755051641E-7;
-2,78748081870443E-7;
-3,06590399970802E-7;
-2,79708380080554E-7;
-2,13490315495251E-7;
-1,61005303204144E-7;
-1,64315077942088E-7;
-2,05283096508983E-7;
-2,03457000732085E-7;
-7,29917457791352E-8;
2,00706490734526E-7;
5,27404766386056E-7;
7,56364839176613E-7;
7,72825884958868E-7;
5,76234756255502E-7;
2,79567701735263E-7;
2,86478255092127E-8;
-9,69735480342742E-8;
-1,25642469220796E-7;
-1,48774006305023E-7;
-2,3126276388403E-7;
-3,5452426482843E-7;
-4,39844299255592E-7;
-4,29018605401129E-7;
-3,47632909020991E-7;
-2,89356034192162E-7;
-3,28539666607391E-7;
-4,35433325174487E-7;
-4,74206184325873E-7;
-2,99207907909998E-7;
1,19478297997857E-7;
6,43133052454946E-7;
1,03591682182624E-6;
1,11585931149872E-6;
8,74549239670011E-7;
4,75083319658827E-7;
1,30760725443674E-7;
-4,10886744068093E-8;
-7,90100955058137E-8;
-1,12013306404416E-7;
-2,31675061260103E-7;
-4,123503298558E-7;
-5,44666357704295E-7;
-5,47575420312946E-7;
-4,5480613372675E-7;
-3,92655242176272E-7;
-4,6145028761826E-7;
-6,22169847834076E-7;
-6,94576520410443E-7;
-4,85008085832331E-7;
4,89208627220254E-8;
7,2995882438715E-7;
1,25442995688588E-6;
1,38666977422153E-6;
1,11171865620311E-6;
6,32202382974674E-7;
2,14804983404307E-7;
6,80917714909074E-9;
-3,8278532100025E-8;
-7,90610429342781E-8;
-2,28134420273647E-7;
-4,54326074174438E-7;
-6,24179015636489E-7;
-6,38674892114854E-7;
-5,37848299673858E-7;
-4,73481104969406E-7;
-5,66214236541145E-7;
-7,6984620840395E-7;
-8,69563329340196E-7;
-6,34260961449868E-7;
-1,16562223738505E-8;
7,91356126415381E-7;
1,41869986296315E-6;
1,59310536520792E-6;
1,29426092091439E-6;
7,54888500174352E-7;
2,82486983336038E-7;
4,73054833645084E-8;
-3,09998408799567E-9;
-4,97961832123949E-8;
-2,21354044459748E-7;
-4,824409734896E-7;
-6,81365264281793E-7;
-7,05474383246551E-7;
-5,99486159855271E-7;
-5,3431784609452E-7;
-6,45886367153691E-7;
-8,82668910842274E-7;
-1,00400192828307E-6;
-7,50728880832829E-7;
-6,29681470428324E-8;
8,30610106827488E-7;
1,53520622957174E-6;
1,74267155439352E-6;
1,42842532758924E-6;
8,46956961507954E-7;
3,35467354683285E-7;
8,09910940064839E-8;
2,68923094638518E-8;
-2,40682827652204E-8;
-2,11984673992264E-7;
-4,98566985298357E-7;
-7,19048613648743E-7;
-7,50975627347589E-7;
-6,42317440991709E-7;
-5,77535965566759E-7;
-7,03390117281012E-7;
-9,6466218956493E-7;
-1,10252055462079E-6;
-8,38026182384391E-7;
-1,05738193431316E-7;
8,50795170516569E-7;
1,61006550076331E-6;
1,8424736751125E-6;
1,52014065337072E-6;
9,1204120506004E-7;
3,75346555840971E-7;
1,08458457506672E-7;
5,20820522064169E-8;
-1,70120579472522E-9;
-2,00611238745234E-7;
-5,04445956168937E-7;
-7,39877811242711E-7;
-7,77997446777135E-7;
-6,68784686819402E-7;
-6,05372754752092E-7;
-7,41490313187496E-7;
-1,01963899217369E-6;
-1,16951107973802E-6;
-8,99601668849454E-7;
-1,40698302892821E-7;
8,54764026268868E-7;
1,64900357942037E-6;
1,89918025799437E-6;
1,57498602100506E-6;
9,53572940642557E-7;
4,03653226388373E-7;
1,30292407391888E-7;
7,28513816640182E-8;
1,74936947321838E-8;
-1,87755955091945E-7;
-5,01687450726278E-7;
-7,46312454178732E-7;
-7,89167512091395E-7;
-6,81174435496095E-7;
-6,19928066042276E-7;
-7,62783204651869E-7;
-1,05118155556179E-6;
-1,2091081308119E-6;
-9,38710818880645E-7;
-1,68565938261353E-7;
8,45142610987818E-7;
1,6573380043574E-6;
1,91900239704848E-6;
1,59816503847321E-6;
9,74766408039667E-7;
4,21833992490075E-7;
1,47061579725709E-7;
8,95882487102736E-8;
3,37262004522203E-8;
-1,73874903498672E-7;
-4,91764408061502E-7;
-7,4062543485348E-7;
-7,86919884859264E-7;
-6,8160320968992E-7;
-6,23149177099339E-7;
-7,69684451792089E-7;
-1,06262478786922E-6;
-1,22516398766757E-6;
-9,58401223425136E-7;
-1,90043800350348E-7;
8,24325367554723E-7;
1,63995926710433E-6;
1,90766896820829E-6;
1,594491646507E-6;
9,78607062051687E-7;
4,31245804619406E-7;
1,59316585053252E-7;
1,02672987497354E-7;
4,72073228364974E-8;
-1,59368689813348E-7;
-4,7601585979744E-7;
-7,24893593925581E-7;
-7,73483065706168E-7;
-6,72017392159662E-7;
-6,16830785176278E-7;
-7,64426310823904E-7;
-1,05705665185089E-6;
-1,22124586938736E-6;
-9,61506344840356E-7;
-2,05813064850524E-7;
7,94484544536774E-7;
1,60133961572988E-6;
1,87043196464611E-6;
1,56838776785761E-6;
9,67844696585843E-7;
4,33152202588878E-7;
1,67583215897038E-7;
1,12478973512657E-7;
5,8158426824134E-8;
-1,44581482129808E-7;
-4,55645756402312E-7;
-7,01001435435743E-7;
-7,50886528812822E-7;
-6,54190084447925E-7;
-6,02616863670086E-7;
-7,49055304115097E-7;
-1,03730472837146E-6;
-1,20062931141469E-6;
-9,50637894813108E-7;
-2,16528081009492E-7;
7,57560925362715E-7;
1,54552591148725E-6;
1,81205864961891E-6;
1,52387530871628E-6;
9,44994391819331E-7;
4,28719894404401E-7;
1,72358461347835E-7;
1,19363472781034E-7;
6,67979776820026E-8;
-1,2980396499032E-7;
-4,3172748518386E-7;
-6,70642895576042E-7;
-7,20962023985904E-7;
-6,2972868837998E-7;
-5,81994703535539E-7;
-7,25427521326748E-7;
-1,00594409422378E-6;
-1,16629794244097E-6;
-9,28184332379485E-7;
-2,22806830168847E-7;
7,15288628271569E-7;
1,47615525310529E-6;
1,73684938992272E-6;
1,46459249157373E-6;
9,12334814419423E-7;
4,19019923435779E-7;
1,74113107322258E-7;
1,23671499898207E-7;
7,33468538301776E-8;
-1,15280058340078E-7;
-4,05214036230713E-7;
-6,3533343838273E-7;
-6,85349325711315E-7;
-6,00069647229172E-7;
-5,56304075922884E-7;
-6,95219429643216E-7;
-9,65296468707154E-7;
-1,1209505641329E-6;
-8,96316805955024E-7;
-2,25236229168271E-7;
6,69191315190314E-7;
1,39646868961313E-6;
1,64864497976556E-6;
1,39379656242025E-6;
8,71918226132398E-7;
4,05023670390689E-7;
1,73284275997726E-7;
1,25729988126366E-7;
7,80186132951456E-8;
-1,01206674068095E-7;
-3,76934633612717E-7;
-5,96408344406789E-7;
-6,4550215429996E-7;
-5,66496273673338E-7;
-5,26740909839675E-7;
-6,5992835425713E-7;
-9,17443101066594E-7;
-1,06700636563845E-6;
-8,56986154335138E-7;
-2,24362155558556E-7;
6,20598438850621E-7;
1,30932869197131E-6;
1,55084826708086E-6;
1,31438049566605E-6;
8,25578077240636E-7;
3,87610001579721E-7;
1,7027568164939E-7;
1,25845508246E-7;
8,10228640870969E-8;
-8,77437325458903E-8;
-3,47614565048671E-7;
-5,5503933891773E-7;
-6,02697668801912E-7;
-5,30135000934432E-7;
-4,94361783125804E-7;
-6,20887326675727E-7;
-8,64232580133141E-7;
-1,00661463541752E-6;
-8,11939928661005E-7;
-2,2069414691203E-7;
5,70659118170283E-7;
1,21723523473796E-6;
1,44644919199797E-6;
1,22889588974242E-6;
7,74930836178693E-7;
3,67563203109784E-7;
1,6546176536004E-7;
1,24305779354441E-7;
8,25567150465722E-8;
-7,50147967937415E-8;
-3,17868174422307E-7;
-5,12240704650209E-7;
-5,58050580063078E-7;
-4,91973095416539E-7;
-4,6009285698839E-7;
-5,79260562256786E-7;
-8,0728830478451E-7;
-9,41672991344276E-7;
-7,62723881966707E-7;
-2,14698041939933E-7;
5,20351046591641E-7;
1,12235243772895E-6;
1,33804399118893E-6;
1,13956122853408E-6;
7,21396642587733E-7;
3,45585109905691E-7;
1,59181946976827E-7;
1,21375481552975E-7;
8,28145689579202E-8;
-6,31072420871738E-8;
-2,88220045656464E-7;
-4,68882551411427E-7;
-5,12517245945248E-7;
-4,52861448247687E-7;
-4,24737908222712E-7;
-5,36065045491866E-7;
-7,48026891113912E-7;
-8,7383677553015E-7;
-7,10695216911802E-7;
-2,06804268211861E-7;
4,7049509853855E-7;
1,02653213085239E-6;
1,22786187240258E-6;
1,04829431574512E-6;
6,66209230675388E-7;
3,22284838720145E-7;
1,51741384235287E-7;
1,17301684399268E-7;
8,19733862857513E-8;
-5,20865123662898E-8;
-2,59102239594297E-7;
-4,25699312811074E-7;
-4,66911619620482E-7;
-4,13523561453117E-7;
-3,88982228550953E-7;
-4,92172607152307E-7;
-6,87668658835442E-7;
-8,04533945982954E-7;
-6,57032652540986E-7;
-1,97401483759782E-7;
4,21770527739623E-7;
9,31334149200861E-7;
1,11779706894595E-6;
9,56727047961719E-7;
6,1042230371451E-7;
2,98199839359419E-7;
1,43418436369194E-7;
1,12306487516165E-7;
8,02033571529884E-8;
-4,198693462175E-8;
-2,30869471456411E-7;
-3,83300138182758E-7;
-4,2191372322158E-7;
-3,74571355482116E-7;
-3,53410217743804E-7;
-4,48329366510909E-7;
-6,27251322484395E-7;
-7,34985470314993E-7;
-6,02752713852708E-7;
-1,86837593438049E-7;
3,74728747647321E-7;
8,38055687566133E-7;
1,00943111871996E-6;
8,66231036898713E-7;
5,54931056608073E-7;
2,73789737708863E-7;
1,34457805012771E-7;
1,06592864171754E-7;
7,76614155045296E-8;
-3,28250169855333E-8;
-2,03803809156839E-7;
-3,42187822545522E-7;
-3,78087568367488E-7;
-3,36510332817591E-7;
-3,18505971087879E-7;
-4,05153170387524E-7;
-5,67647112113942E-7;
-6,66216173543154E-7;
-5,48710594426304E-7;
-1,75427676185068E-7;
3,29800332194574E-7;
7,47752462801727E-7;
9,04063563783872E-7;
7,77938302476313E-7;
5,00478343374588E-7;
2,49445161760855E-7;
1,2507625459777E-7;
1,0034095291346E-7;
7,4488914203286E-8;
-2,45996175514058E-8;
-1,78122830553594E-7;
-3,02757695168416E-7;
-3,3588210987213E-7;
-2,99750295240823E-7;
-2,84667248959075E-7;
-3,63156599939293E-7;
-5,09574198822159E-7;
-5,99077803036995E-7;
-4,95628684728436E-7;
-1,63447789235034E-7;
2,87316121796793E-7;
6,61262686175358E-7;
8,02737426812143E-7;
6,92766837125482E-7;
4,47676161034006E-7;
2,25496732753612E-7;
1,15463828178603E-7;
9,3713689831923E-8;
7,08195493970919E-8;
-1,72927665010207E-8;
-1,53988088998479E-7;
-2,65320188415338E-7;
-2,95653471228487E-7;
-2,64614845030517E-7;
-2,52207769837756E-7;
-3,22749853163996E-7;
-4,53614911111672E-7;
-5,3426018488687E-7;
-4,44097191261205E-7;
-1,51139380530751E-7;
2,47514936982427E-7;
5,79232211022292E-7;
7,06268058782229E-7;
6,11438330878223E-7;
3,97012561792833E-7;
2,02214896952528E-7;
1,05783098216783E-7;
8,68554676313001E-8;
6,67726612094692E-8;
-1,08763413093341E-8;
-1,31508420352168E-7;
-2,30100859570334E-7;
-2,57668621853846E-7;
-2,31351983178998E-7;
-2,21375353687123E-7;
-2,84256182247273E-7;
-4,00224190551093E-7;
-4,72306978657735E-7;
-3,94588372810847E-7;
-1,38713520517788E-7;
2,10554013294985E-7;
5,02135729802342E-7;
6,15265966298318E-7;
5,34502469436263E-7;
3,48863234733761E-7;
1,79816844955678E-7;
9,61753484577668E-8;
7,98874916009894E-8;
6,24535715239036E-8;
-5,30996375548934E-9;
-1,10753686322235E-7;
-1,97258034413448E-7;
-2,22117674100082E-7;
-2,00141027379436E-7;
-1,92349250006989E-7;
-2,479191054308E-7;
-3,49752921207204E-7;
-4,13638663354161E-7;
-3,47474297187191E-7;
-1,26351695288408E-7;
1,76520953716512E-7;
4,30296349857498E-7;
5,30164271121078E-7;
4,6235809414223E-7;
3,03513073397166E-7;
1,58474951598444E-7;
8,6754861745612E-8;
7,29188781583252E-8;
5,79575441940074E-8;
-5,47351715706406E-10;
-9,17495249476745E-8;
-1,66888660208789E-7;
-1,89124839154785E-7;
-1,71102618696136E-7;
-1,65258929393496E-7;
-2,13908337697821E-7;
-3,0244447310031E-7;
-3,58556581226603E-7;
-3,03031984053556E-7;
-1,14204785509781E-7;
1,45448989379976E-7;
3,63908210546851E-7;
4,51236257801486E-7;
3,95265925327163E-7;
2,61155384275371E-7;
1,38319640460685E-7;
7,76201006587535E-8;
6,6039898874444E-8;
5,33700874056759E-8;
3,46352533357286E-9;
-7,44980070557747E-8;
-1,39035021044861E-7;
-1,58754330754207E-7;
-1,44305897626273E-7;
-1,40179926754675E-7;
-1,82336596048326E-7;
-2,58466096600294E-7;
-3,07265078153844E-7;
-2,6145634374199E-7;
-1,02400159340633E-7;
1,17316508968489E-7;
3,03053368946406E-7;
3,78623162055574E-7;
3,33373292082287E-7;
2,2191259173452E-7;
1,19442748642869E-7;
6,88501348468579E-8;
5,93289282974806E-8;
4,87614260169116E-8;
6,77664470474426E-9;
-5,8970202187265E-8;
-1,13697849039268E-7;
-1,31024707422193E-7;
-1,19776008385486E-7;
-1,17147468042731E-7;
-1,53261270291551E-7;
-2,17906972153135E-7;
-2,59879823523703E-7;
-2,22870565267635E-7;
-9,10408800402061E-8;
9,20634627529217E-8;
2,47719298303755E-7;
3,12352624108997E-7;
2,76730679698002E-7;
1,85842133188752E-7;
1,01904489304434E-7;
6,05055377302868E-8;
5,28477278295718E-8;
4,4197004713935E-8;
9,45370440523222E-9;
-4,51162158028271E-8;
-9,0838643075089E-8;
-1,05911354192773E-7;
-9,75027681703531E-8;
-9,61633508786257E-8;
-1,26695919504755E-7;
-1,80792796792781E-7;
-2,16445096024128E-7;
-1,87338131076018E-7;
-8,02081130906047E-8;
6,95944602226773E-8;
1,97812249616359E-7;
2,52351720100788E-7;
2,2530271370142E-7;
1,5294684938085E-7;
8,57355640874806E-8;
5,26331935193795E-8;
4,66471381740556E-8;
3,97275794351409E-8;
1,15497592181025E-8;
-3,28712421827061E-8;
-7,03883367399729E-8;
-8,33512969838287E-8;
-7,74402604444243E-8;
-7,71990633975517E-8;
-1,02614119945769E-7;
-1,47095289624845E-7;
-1,76940445443176E-7;
-1,54868546041987E-7;
-6,99653422372984E-8;
4,97903755957165E-8;
1,53180298981285E-7;
1,98471748105441E-7;
1,78981360604308E-7;
1,23182816001109E-7;
7,09430777987581E-8;
4,52652719354699E-8;
4,07680092999415E-8;
3,53978579957599E-8;
1,31276868421407E-8;
-2,21510183610441E-8;
-5,22562681377823E-8;
-6,32623660006121E-8;
-5,95215118859757E-8;
-6,01993293065783E-8;
-8,09619066614513E-8;
-1,16746025149068E-7;
-1,41292289302065E-7;
-1,2542622463322E-7;
-6,03570564404428E-8;
3,25095248343265E-8;
1,13611041259573E-7;
1,50496903269097E-7;
1,37608201455653E-7;
9,64710859063638E-8;
5,7516920109845E-8;
3,84241267570481E-8;
3,52378208192866E-8;
3,12440110821659E-8;
1,42424015705482E-8;
-1,28703926024225E-8;
-3,63298071710151E-8;
-4,5533036155983E-8;
-4,36585849994982E-8;
-4,5090721284223E-8;
-6,16524363663282E-8;
-8,96344291572515E-8;
-1,09384900549867E-7;
-9,89384804535034E-8;
-5,14149792173601E-8;
1,75946237650271E-8;
7,88573709072692E-8;
1,08161791192354E-7;
1,00974659197668E-7;
7,26968982789892E-8;
4,54242117413283E-8;
3,21194783237066E-8;
3,00762241613564E-8;
2,72936585968447E-8;
1,49510711349331E-8;
-4,9297730125101E-9;
-2,24807345275912E-8;
-3,00367151722094E-8;
-2,97488623122907E-8;
-3,17869147656305E-8;
-4,45867820694122E-8;
-6,56274254420305E-8;
-8,10709178011191E-8;
-7,53057756963238E-8;
-4,31540294088905E-8;
4,88223014714256E-9;
4,86417228513095E-8;
7,11636123713047E-8;
6,88408813750155E-8;
5,17292198756487E-8;
3,46254678183652E-8;
2,63545693263531E-8;
2,52972863428458E-8;
2,35702157945959E-8;
1,53073602475467E-8;
1,77132110613727E-9;
-1,05763325472732E-8;
-1,66383254884625E-8;
-1,76737193883278E-8;
-2,01849979752635E-8;
-2,96458756610613E-8;
-4,45616687876877E-8;
-5,61686755610674E-8;
-5,44012181620701E-8;
-3,55808093232384E-8;
-5,80082503111744E-9;
2,26625985480333E-8;
3,91668226967993E-8;
4,09370193837672E-8;
3,34103255672853E-8;
2,50614551841039E-8;
2,11237128194138E-8;
2,09064569184564E-8;
2,00880115428207E-8;
1,53618666601304E-8;
7,33646798618713E-9;
-4,70011859303957E-10;
-5,18811447778042E-9;
-7,31209615516596E-9;
-1,01763941724255E-8;
-1,66989385072399E-8;
-2,6265475779461E-8;
-3,44841842331132E-8;
-3,60816760109074E-8;
-2,86908617048411E-8;
-1,46274945162098E-8;
6,0891733924987E-10;
1,18231062560044E-8;
1,69811493025427E-8;
1,75766376312291E-8;
1,66703076747581E-8;
1,6413492215028E-8;
1,69031922863255E-8;
1,6857349440291E-8;
1,51614968433943E-8;
1,18691928591655E-8;
7,98043076964386E-9;
4,46251567337557E-9;
1,46532116356992E-9;
-1,64832484150082E-9;
-5,60998955279937E-9;
-1,05526038817078E-8;
-1,58073133740191E-8;
-2,01896014699444E-8;
-2,24707828569872E-8;
0,00933341227380321;
0,0226297119863488;
0,0163727260463424;
0,00943309285274274;
0,0121693958375076;
0,00702617671430747;
0,00563482933937978;
0,0045827233346041;
0,000840513972897947;
0,00103240712260132;
-0,00119042402542718;
-0,00199193773303889;
-0,00280712446637602;
-0,00455367253223116;
-0,00488731948148049;
-0,00585589694421436;
-0,00594121450284232;
-0,00618248824042509;
-0,00699358322811325;
-0,00792072044915822;
-0,00934891539899039;
-0,0102429217132302;
-0,0105185297520964;
-0,0101085434227827;
-0,00920767201012005;
-0,008430293675671;
-0,00783042568049963;
-0,00745746146494338;
-0,00704804211194513;
-0,00641866290172657;
-0,00567543539396207;
-0,00495846676818192;
-0,00445306243411553;
-0,00409075262363864;
-0,0036638144308517;
-0,00302655587302541;
-0,00222821864201627;
-0,00157281566418801;
-0,00136107148100866;
-0,00166525753141475;
-0,00222575711234755;
-0,00258710696662677;
-0,00240680824164177;
-0,00165721890012848;
-0,000624750807647163;
0,000316667519262496;
0,000963668751988099;
0,00137587601154087;
0,00176514045421792;
0,00227847538308444;
0,0028737321097469;
0,0033782339161857;
0,00366496642060684;
0,00378444518278281;
0,00392476386706159;
0,00423346599801958;
0,00465412618238126;
0,00492915388314585;
0,00478541071466045;
0,00416204829846705;
0,00329835932958373;
0,00260115021318229;
0,00238398848375775;
0,00267128913750733;
0,00320914615765543;
0,00366538895191127;
0,00385877066752985;
0,00384594924353594;
0,00381731151917506;
0,00390620150719087;
0,0040764109685122;
0,00417464809407373;
0,00408917627373097;
0,00386596183624079;
0,00367397078330884;
0,00364554237338334;
0,00373091412339191;
0,0037012895259801;
0,00331397141242206;
0,00251555101541001;
0,00151952753104628;
0,000688026895999977;
0,000299853742271292;
0,000376442320886572;
0,000692004448915068;
0,000951422145725952;
0,000993755246984882;
0,000869185864184543;
0,000746309177344871;
0,000742947578795152;
0,000826558407800916;
0,00086094533574795;
0,000746806467229032;
0,000524402855265647;
0,000342664697760433;
0,000317945749249602;
0,000405588572766956;
0,000402900638451875;
9,51484371128833E-5;
-0,000565181514904129;
-0,0107236544874694;
-0,0246910707484103;
-0,0187064292065591;
-0,0116224197966514;
-0,0139972739631822;
-0,00853593604242275;
-0,00701192334529799;
-0,00596902240278185;
-0,00223033710413088;
-0,00231726098885858;
8,9788973451495E-5;
0,00103466803561573;
0,00186477589896939;
0,00353263065402816;
0,00382395160250247;
0,00488789311806965;
0,00516660288474988;
0,00552150170543624;
0,0061783864523065;
0,00664177485380597;
0,00746061035717257;
0,00787752574882912;
0,00802150680530055;
0,00784046506438633;
0,00735458585159101;
0,00695104052708876;
0,00655991412712547;
0,00626843057201351;
0,0059414520367693;
0,00548466796714721;
0,00497857353898349;
0,00445882929652891;
0,00403467097430629;
0,00366786291664268;
0,00326338062363813;
0,00276326678518402;
0,00218231319804251;
0,00167059924284798;
0,00136626159873095;
0,00130576515701921;
0,00137143313812017;
0,00134797154520135;
0,00107690847887572;
0,000543515863052404;
-0,000116375441377366;
-0,000724600251220181;
-0,00118435220825217;
-0,00152245190187641;
-0,00184024516417834;
-0,00220793571932237;
-0,00260529578356382;
-0,00294920867730169;
-0,00317773400559111;
-0,00331520411004295;
-0,00345289519943167;
-0,00366305919255195;
-0,00391867675101023;
-0,00409372665418654;
-0,00405383378015238;
-0,00376837688092686;
-0,00335505778597846;
-0,00301545753580055;
-0,00290611175763851;
-0,00304047581069262;
-0,00329295191813448;
-0,00349794504001561;
-0,00356466752298257;
-0,00352165287783713;
-0,00346521756026388;
-0,00346339214462166;
-0,00349850826124104;
-0,00349311828181023;
-0,00339046586292069;
-0,00321416534045582;
-0,00305112925632576;
-0,00296998759452662;
-0,00294582124777786;
-0,00286087151093866;
-0,00258935359216017;
-0,00210308360781951;
-0,00151287223842097;
-0,00100795212597238;
-0,00073507938557106;
-0,000706640370104793;
-0,00080477507014894;
-0,000874221720472385;
-0,000829837108755233;
-0,00069812737575499;
-0,000568861038916759;
-0,000505239894093733;
-0,000490286613591593;
-0,000451193290542078;
-0,000334514832336406;
-0,000161809791495312;
-1,36171300606005E-5;
4,66880154364516E-5;
4,29878890673221E-5;
8,56229220033601E-5;
0,0002922930537619;
0,000689739596675838;
0,00117537858474661;
0,00157381892819215;
0,00174934761388384;
0,0016912487685858;
0,00150978343726669;
0,00134981288633589;
0,0012909650946121;
0,00130920425725324;
0,00132184779621233;
0,00127090981865334;
0,00117273433731083;
0,00109533424765453;
0,00108870428455107;
0,00113335796707934;
0,00115525045819065;
0,00109626380283908;
0,000978968243058508;
0,000905765275608949;
0,000985719570369774;
0,00124378310076321;
0,00158551033216798;
0,00184936451287784;
0,00191053524428179;
0,00175952817923039;
0,0014982995763032;
0,0012605484945246;
0,00111976343798148;
0,00105394013327684;
0,000987124705087889;
0,000866124542649814;
0,000706097283733283;
0,000569635369180693;
0,000502698354956137;
0,000487390775860599;
0,000455747074398467;
0,000354461715022082;
0,000204255033120782;
9,89857716072502E-5;
0,000138508498187753;
0,000345522564748287;
0,000633372955267567;
0,000854071149702436;
0,000893356703270344;
0,000742522769583098;
0,000494742899118192;
0,000272102496415895;
0,000141571287528583;
8,28633092908674E-5;
2,64683182063998E-5;
-7,62989412178932E-5;
-0,000211751923085839;
-0,000322981306815011;
-0,000368291707547121;
-0,000364192821123249;
-0,000372768768672111;
-0,000442701986224041;
-0,000555280034092011;
-0,000625292592869097;
-0,000562158155443782;
-0,000345492522558706;
-5,42643267312177E-5;
0,000176939956828777;
0,000244272838121914;
0,000139753692923561;
-5,21859307795084E-5;
-0,000220971915997775;
-0,000306066713638437;
-0,000326018129169921;
-0,000343921127035805;
-0,000403959066191249;
-0,000493840169425001;
-0,000562189519899503;
-0,000571427364591543;
-0,000536599116615433;
-0,000513896243716677;
-0,000547350569925969;
-0,000620117932334777;
-0,000655368068326466;
-0,00057149104228943;
-0,000350228186224943;
-6,286264408809E-5;
0,000169291786275903;
0,000252711294531543;
0,00018024407118876;
2,78920123843823E-5;
-0,000104891097749537;
-0,000163708417399584;
-0,000165264316926829;
-0,000166252717100925;
-0,000206333745497449;
-0,000274446750285846;
-0,000324478679773431;
-0,000322724870104834;
-0,000282675953326197;
-0,000254670643568632;
-0,000278108090706544;
-0,000337851898517496;
-0,000365099210898979;
-0,000286832316826712;
-8,67401325433537E-5;
0,000171448684577988;
0,000379367118657857;
0,000453559272145661;
0,000387738058482344;
0,000249814523154206;
0,000128559087417361;
7,25036381572277E-5;
6,67867373758498E-5;
6,09450879392504E-5;
1,97248538511502E-5;
-4,6962368690963E-5;
-9,80370880030649E-5;
-0,000103491086500065;
-7,52878058451386E-5;
-5,81134687524568E-5;
-8,68997328363566E-5;
-0,000148142995205675;
-0,000180741613992651;
-0,00011991422655377;
4,87937153032338E-5;
0,000268903903907594;
0,00044445253004402;
0,000501610335212801;
0,000434892613621402;
0,000304441512905016;
0,000188786764492016;
0,000130834740981569;
0,000117465779831394;
0,000104143057496508;
5,97889370964511E-5;
-6,81439137940469E-6;
-5,94201427649516E-5;
-7,15739180197641E-5;
-5,38144749050329E-5;
-4,54788436384069E-5;
-7,7284476857536E-5;
-0,000137321369406415;
-0,000171849001294525;
-0,000123946966869528;
1,90472058065544E-5;
0,000207511129160515;
0,000357218882187561;
0,000403432342488303;
0,000341381989816894;
0,000223802322673929;
0,000119482827206846;
6,59703809902903E-5;
5,17642417523732E-5;
3,79038395233264E-5;
-2,77212583495969E-6;
-6,25822586804093E-5;
-0,000109876318668379;
-0,00012158262042413;
-0,00010691904751777;
-0,000100199652868651;
-0,000128193287560136;
-0,000180518392323449;
-0,000210393700432255;
-0,00016831994829824;
-4,33336514561147E-5;
0,000121384337351132;
0,000252636242056845;
0,000294214147221875;
0,000242000529912388;
0,000141752551478001;
5,3100228925641E-5;
8,55232630572305E-6;
-1,87758323149019E-6;
-1,19252705877754E-5;
-4,50869001232306E-5;
-9,47187310758649E-5;
-0,00013347965212382;
-0,000141465461208393;
-0,000126656136725153;
-0,000118665341115673;
-0,000140569605736155;
-0,000183416312311585;
-0,000206924235954659;
-0,000168518469798981;
-5,88114277703238E-5;
8,50378175677289E-5;
0,000200126322217985;
0,000238203722733534;
0,000195761954131574;
0,000112060760918529;
3,82068088608709E-5;
2,02889683515698E-6;
-5,03920222703322E-6;
-1,18635581309795E-5;
-3,85244407594318E-5;
-7,9334697949302E-5;
-0,000110947290565202;
-0,000116388446982026;
-0,00010247743434202;
-9,44560776964785E-5;
-0,000111967751409897;
-0,000147376933647968;
-0,000166417291915145;
-0,000132916798467135;
-3,89334717255511E-5;
8,39608114333559E-5;
0,000182398805590927;
0,000215496611115301;
0,000180314014816211;
0,000110110926342912;
4,81271661458937E-5;
1,78787639587324E-5;
1,21193551888282E-5;
6,48346248668885E-6;
-1,59531256656478E-5;
-5,03804341005878E-5;
-7,71269229847529E-5;
-8,19119760749579E-5;
-7,04795231729249E-5;
-6,40420254675725E-5;
-7,90806703160819E-5;
-0,000109169067725179;
-0,000125567934491172;
-9,79848170935436E-5;
-1,97995759586381E-5;
8,25522944827828E-5;
0,000164459958477732;
0,00019179904881654;
0,00016214864863195;
0,000103266349939687;
5,11822471115202E-5;
2,54628176290387E-5;
2,00718832825684E-5;
1,47640711135675E-5;
-4,49812117975892E-6;
-3,3708824896726E-5;
-5,65582646227223E-5;
-6,12275283997522E-5;
-5,24782264785458E-5;
-4,78441124362841E-5;
-6,0922143014727E-5;
-8,63924137647691E-5;
-0,000100559609185962;
-7,84930791145575E-5;
-1,47770306381049E-5;
6,88329190726554E-5;
0,00013569912260141;
0,000157847306702187;
0,000133324446917487;
8,48787098356327E-5;
4,19815727904555E-5;
2,06078679547289E-5;
1,58192299213839E-5;
1,11095889016239E-5;
-4,94139053681124E-6;
-2,90611867861848E-5;
-4,79924475757415E-5;
-5,21504065211464E-5;
-4,5407984304821E-5;
-4,19681778871851E-5;
-5,28189800558675E-5;
-7,3645709937331E-5;
-8,53203157794237E-5;
-6,77636505071431E-5;
-1,66490834752275E-5;
5,04975580444818E-5;
0,000104241095280862;
0,000122158937955687;
0,000102717139734543;
6,41404811254927E-5;
2,99825816248034E-5;
1,29789577034588E-5;
9,17993968406076E-6;
5,44696957744461E-6;
-7,28532588789299E-6;
-2,64065686105862E-5;
-4,14073516890655E-5;
-4,47128836900644E-5;
-3,93972102345298E-5;
-3,66704479173313E-5;
-4,51780628195101E-5;
-6,15095454263598E-5;
-7,06373725484032E-5;
-5,68350879540309E-5;
-1,67516527038036E-5;
3,58804571257646E-5;
7,80809646168615E-5;
9,23997658483031E-5;
7,76771618888844E-5;
4,80888082888801E-5;
2,18941678717992E-5;
8,93273771596995E-6;
6,13937037016819E-6;
3,38457565312339E-6;
-6,29407594199001E-6;
-2,0877638092883E-5;
-3,23086391202121E-5;
-3,4804271484463E-5;
-3,07252263187237E-5;
-2,86136408082649E-5;
-3,50281175421418E-5;
-4,73634621352273E-5;
-5,42416676789772E-5;
-4,38076755928964E-5;
-1,35761999112322E-5;
0,00935952815930601;
0,0226876893839901;
0,0164417239810059;
0,00949144430798886;
0,0122060185281309;
0,00704355442167988;
0,00564271942609669;
0,00458860206353744;
0,000844392617874086;
0,00102919566187086;
-0,0012043196912661;
-0,0020142216388005;
-0,00283130074273626;
-0,00457497525649155;
-0,00490716907861202;
-0,00588043087198366;
-0,00597467522598231;
-0,00622095711011939;
-0,00702469710868693;
-0,00793039287321756;
-0,00933044861074307;
-0,0102018146810442;
-0,0104694308086822;
-0,0100666352735752;
-0,00918070881483516;
-0,00841658543850697;
-0,00782326041815297;
-0,0074517193581826;
-0,00704373105686965;
-0,00641926091030066;
-0,00568338354707955;
-0,0049722147066837;
-0,00446824523373516;
-0,00410418254331645;
-0,00367642906927792;
-0,00304240020805799;
-0,00225006425780773;
-0,00159808363337523;
-0,00138171572058097;
-0,00167217197973127;
-0,00221463180090031;
-0,00256142706810213;
-0,0023758236729908;
-0,00163046018132235;
-0,00060706805764847;
0,00032628151552343;
0,000969285065195648;
0,00138057241808102;
0,00176889726338906;
0,00227921849745449;
0,00287002529966365;
0,00337098508706942;
0,00365669700869055;
0,00377697851436455;
0,00391758265559055;
0,00422433825614885;
0,0046415548057437;
0,00491456167093689;
0,00477311480229023;
0,00415685329646885;
0,00330251209432101;
0,0026128998196029;
0,00239873730082374;
0,00268437734407482;
0,00321822752917953;
0,00367088755680102;
0,00386249022303819;
0,00384921491313928;
0,0038200948594682;
0,00390763455941192;
0,00407592053960382;
0,00417259206137127;
0,00408649668573792;
0,00386331312648171;
0,00367119447470021;
0,00364195627275695;
0,00372610986081978;
0,00369570135391671;
0,00330873096895874;
0,00251178929380058;
0,00151772723391073;
0,000687909700391749;
0,000300780050412157;
0,000377896186812716;
0,000693770345201404;
0,00095343094618834;
0,000995887036210736;
0,00087127915986093;
0,000748327908189971;
0,00074504550279059;
0,000828892893727783;
0,000863408401422576;
0,000749003654148066;
0,000525999351578432;
0,000343803350352956;
0,000319250741242401;
0,000407568473296442;
0,000405155279452072;
9,61245940607884E-5;
-0,000567448057811588;
-0,0107301696067473;
-0,0247008805843909;
-0,0187168537149342;
-0,0116304992792458;
-0,0140014362429451;
-0,00853666069468811;
-0,0070109379833653;
-0,00596773056744689;
-0,0022287809354246;
-0,00231443360184373;
9,46546703764706E-5;
0,00104107606885146;
0,00187121866340892;
0,00353794953536254;
0,00382853908007876;
0,00489345790770138;
0,0051744142632754;
0,00553046703654866;
0,00618472644539222;
0,00664095993555491;
0,00745039919735848;
0,00785988622804258;
0,00800185710729856;
0,00782463178130176;
0,00734561677146896;
0,00694812169895345;
0,00655999882607599;
0,00626909676486981;
0,00594265374884729;
0,00548811256372274;
0,00498552865563922;
0,00446848253351454;
0,00404460540576267;
0,00367624726274971;
0,00327081081419416;
0,00277233533890447;
0,00219490894014322;
0,00168506650775019;
0,00137701186689888;
0,0013061847185265;
0,00135827553259294;
0,00132402190759887;
0,00104979721209706;
0,00052138578605624;
-0,000129283209195761;
-0,000729365241214873;
-0,0011850793450325;
-0,00152237959397827;
-0,00183942108109418;
-0,00220408975160227;
-0,00259675824750704;
-0,00293704380691449;
-0,00316508418258379;
-0,0033044369576495;
-0,0034432528926622;
-0,00365124621555628;
-0,00390231188414519;
-0,00407491214301292;
-0,00403959230232706;
-0,00376697331269894;
-0,00337053637106497;
-0,00304439243778012;
-0,00293913268473202;
-0,00306761834619907;
-0,0033090353912932;
-0,00350425338893152;
-0,00356613040327493;
-0,00352214430192845;
-0,0034647853085714;
-0,00345932704456867;
-0,0034888271112753;
-0,00347907970457722;
-0,00337577353904316;
-0,00320160160570237;
-0,00303981175694528;
-0,00295607959344934;
-0,00292656297229727;
-0,00283870810985888;
-0,00257240739947997;
-0,00210088449612433;
-0,00153007722114089;
-0,00104065182525516;
-0,000772584338168318;
-0,000737605209317873;
-0,000823305906942806;
-0,000881753033326597;
-0,000831916190708235;
-0,000699103561960912;
-0,000568781098275767;
-0,000501065691554464;
-0,000479800291407581;
-0,000435797162549461;
-0,000318328523408268;
-0,000147922672430211;
-1,05552573345637E-6;
6,21586625925363E-5;
6,44049816798873E-5;
0,000110290026744023;
0,000311284028505491;
0,000692601165379902;
0,00115700478757005;
0,00153846420706389;
0,00170864936376839;
0,00165754439895697;
0,00148948014492608;
0,00134137277385312;
0,00128840541334258;
0,00130784133799624;
0,0013216367642647;
0,00127512081038836;
0,0011837504126877;
0,0011116538775999;
0,00110591958829864;
0,00114816714062339;
0,00116868940841661;
0,00111283913275094;
0,00100190648432929;
0,00093219905229627;
0,00100617830349211;
0,0012471895832445;
0,00156645352161288;
0,00181232324441742;
0,00186777051531706;
0,00172402957652023;
0,00147681279952823;
0,00125147311336144;
0,00111684003054388;
0,00105227357652609;
0,00098667277044695;
0,000870304873271478;
0,00071739762238942;
0,000586493654139253;
0,000520529552341609;
0,000502762982624611;
0,00046973324809491;
0,000371731326556776;
0,000228146942414366;
0,00012653142412459;
0,00015991797482186;
0,000349354636131481;
0,000614036599791154;
0,000816165574443669;
0,000849486139539269;
0,000706035080844018;
0,000472571002437475;
0,000262618480316233;
0,000138375928355035;
8,09559400138707E-5;
2,58099587295357E-5;
-7,22160096871394E-5;
-0,000200387477295252;
-0,000305924708592639;
-0,000350209577479587;
-0,000348576327858768;
-0,000358529489504013;
-0,000425101329155483;
-0,00053093275080435;
-0,000597208573607307;
-0,000540253558773275;
-0,000341349604391111;
-7,35465449655684E-5;
0,000138863562609859;
0,000200110185827912;
0,000102959696715593;
-7,46205975502473E-5;
-0,000230673040888036;
-0,000309456823084116;
-0,000328113298215373;
-0,000344756671931288;
-0,00040003019666838;
-0,000482598709076525;
-0,000545223987296712;
-0,000553404822155701;
-0,000521009856611738;
-0,000499654678336373;
-0,000529728497951453;
-0,000595739653224786;
-0,000627234157112651;
-0,00054948039545776;
-0,000345875250801723;
-8,18120444886694E-5;
0,00013162830358755;
0,000208943391300447;
0,000143721826882394;
5,55452439400127E-6;
-0,000114642887469444;
-0,000167222595370664;
-0,000167496766475659;
-0,000167234841046996;
-0,000202600492901437;
-0,000263479457275965;
-0,000307841542804806;
-0,000305017512775751;
-0,000267337473124341;
-0,0002406335691496;
-0,000260721060590757;
-0,000313795507299451;
-0,000337322494523398;
-0,000265040548807889;
-8,22624369778521E-5;
0,000153062845442381;
0,000342601775419319;
0,000410758303890816;
0,000351970823488549;
0,000227877650230877;
0,000118900318513307;
6,89299613587363E-5;
6,44648252289832E-5;
5,98475739689009E-5;
2,32338325622966E-5;
-3,63887550516179E-5;
-8,19194748732863E-5;
-8,63058330382538E-5;
-6,03814285453949E-5;
-4,4449146016067E-5;
-6,99574761829473E-5;
-0,000124698060516898;
-0,000153656930682875;
-9,8609762728513E-5;
5,33231900163268E-5;
0,000251266823238786;
0,000408978907705541;
0,000460241983732761;
0,000400274985614744;
0,000283154629910643;
0,000179341165208623;
0,000127257664834848;
0,0001150968414979;
0,000102958932194717;
6,30537539788335E-5;
3,27185941184058E-6;
-4,39741142830204E-5;
-5,50762831200808E-5;
-3,9485855940742E-5;
-3,23231080964621E-5;
-6,09567740076622E-5;
-0,000114722399709472;
-0,000145727925299682;
-0,000103349038526944;
2,35648968251904E-5;
0,00019076535551696;
0,000323346387307142;
0,000363864705548241;
0,000308227016032747;
0,000203364407392014;
0,000110347668736297;
6,24367490643274E-5;
4,93843252281271E-5;
3,66582874167648E-5;
2,35208947319476E-7;
-5,3055056050383E-5;
-9,52199124458606E-5;
-0,000105901844424745;
-9,32825639456228E-5;
-8,76598159031023E-5;
-0,000112614507614646;
-0,00015895081878904;
-0,000185451232763526;
-0,000148603658472701;
-3,88826466796958E-5;
0,000105634580693421;
0,000220599318143094;
0,000256728344327059;
0,000210548551460745;
0,000122317648910727;
4,43524021863823E-5;
5,10078698160203E-6;
-4,23800791902562E-6;
-1,32101097766524E-5;
-4,23443053176214E-5;
-8,5802378091154E-5;
-0,000119700250816758;
-0,00012669804752492;
-0,000113797778735715;
-0,000106822709323178;
-0,00012584193058031;
-0,000163021164118374;
-0,000183324248517733;
-0,000149818765132303;
-5,44732770638262E-5;
7,03562870881681E-5;
0,00017009395331083;
0,000203004659884165;
0,000166189619669361;
9,37436984625004E-5;
2,99056438491087E-5;
-1,30871139443825E-6;
-7,3541864079484E-6;
-1,31678271424389E-5;
-3,60480882956491E-5;
-7,10630531615442E-5;
-9,81047993182316E-5;
-0,000102601549132228;
-9,04576579900074E-5;
-8,33684983998797E-5;
-9,81644345262025E-5;
-0,000128255535762126;
-0,000144278005242818;
-0,000115332597488944;
-3,47459164512118E-5;
7,03918875541086E-5;
0,000154483112307354;
0,000182722755914944;
0,000152742371651179;
9,29922851830202E-5;
4,03166470082008E-5;
1,46809341279159E-5;
9,87174935147524E-6;
5,17754387715982E-6;
-1,37395768328561E-5;
-4,27717504132056E-5;
-6,52573074865581E-5;
-6,91471538498931E-5;
-5,93364884707987E-5;
-5,37468302985551E-5;
-6,62496602324643E-5;
-9,13880259718074E-5;
-0,000104967621793575;
-8,15834253286503E-5;
-1,57927568351362E-5;
7,0116390936195E-5;
0,000138723782555601;
0,000161531166404183;
0,000136650333139223;
8,73967253318674E-5;
4,38927022163634E-5;
2,24250492027947E-5;
1,79097359099681E-5;
1,34720966032388E-5;
-2,54004886752435E-6;
-2,6768230184258E-5;
-4,56771233642818E-5;
-4,95044988520157E-5;
-4,22310502303189E-5;
-3,83610910627051E-5;
-4,90896751483517E-5;
-6,99884482554749E-5;
-8,15421088106425E-5;
-6,33144911281722E-5;
-1,09743986541968E-5;
5,7529978333065E-5;
0,000112163010776443;
0,000130116530332837;
0,000109930340849522;
7,02826725563818E-5;
3,52312640591861E-5;
1,77452933991069E-5;
1,37569307969839E-5;
9,84490693940675E-6;
-3,22849174162069E-6;
-2,27829051115069E-5;
-3,80982491316431E-5;
-4,1470446455308E-5;
-3,60596809177415E-5;
-3,33022421729805E-5;
-4,19928080849929E-5;
-5,86300554471886E-5;
-6,7900038897557E-5;
-5,38244344879955E-5;
-1,30681604360548E-5;
4,03103817165228E-5;
8,28898742563693E-5;
9,6954368679924E-5;
8,14226744121604E-5;
5,08204045297237E-5;
2,37793474223695E-5;
1,0302120061188E-5;
7,22853160466919E-6;
4,22080787982324E-6;
-5,80500460736788E-6;
-2,07758171343864E-5;
-3,24842660863183E-5;
-3,50618184895789E-5;
-3,09372601347076E-5;
-2,88139603223783E-5;
-3,53503171507118E-5;
-4,78718769207997E-5;
-5,48038080891415E-5;
-4,4131864317811E-5;
-1,34046379196137E-5;
2,67778423268743E-5;
5,88698626759067E-5;
6,9675537206865E-5;
5,84481960317956E-5;
3,60284650147421E-5;
1,62370072653755E-5;
6,44818751629426E-6;
4,30693205463815E-6;
2,20622600714037E-6;
-5,03198715356088E-6;
-1,58722997656435E-5;
-2,43290794527387E-5;
-2,61551650302494E-5;
-2,31318918292379E-5;
-2,15485188467478E-5;
-2,61779013934604E-5;
-3,50754811712037E-5;
-3,99635045628684E-5;
-3,23203145374607E-5;
-1,04705557404127E-5;
1,80336831975702E-5;
4,08197478456193E-5;
4,86683900849362E-5;
4,11262793682571E-5;
2,57945713918E-5;
1,22676221341101E-5;
5,61313724970326E-6;
4,18400912611643E-6;
2,76951179947507E-6;
-2,13727225355633E-6;
-9,47233751419927E-6;
-1,51959157418541E-5;
-1,64794261245939E-5;
-1,4536384741268E-5;
-1,35437330851315E-5;
-1,66259470159974E-5;
-2,24766818547327E-5;
-2,56977020261781E-5;
-2,08150161968532E-5;
-6,82837133805306E-6;
1,13700814461567E-5;
2,59175860042849E-5;
3,10589458123993E-5;
2,65952983531405E-5;
1,73078916491318E-5;
9,11510135093115E-6;
5,08011160301977E-6;
4,17173205024404E-6;
3,26042033499313E-6;
2,89291951137186E-7;
-4,08718281752534E-6;
-7,5164957225788E-6;
-8,39887071659822E-6;
-7,45538001192288E-6;
-7,03431090057373E-6;
-8,83457316526722E-6;
-1,21024935522404E-5;
-1,39286517207572E-5;
-1,14707406063799E-5;
-4,30989115667663E-6;
4,95790748949516E-6;
1,23590080684244E-5;
1,51227491711704E-5;
1,3268226013435E-5;
9,14846166578457E-6;
5,51933346555919E-6;
3,72100930981888E-6;
3,25185948342338E-6;
2,76929733283681E-6;
1,46009314684076E-6;
-3,7339576774295E-7;
-1,82532775913607E-6;
-2,34839674501844E-6;
-2,24172745477445E-6;
-2,28908575542364E-6;
-2,97115021646591E-6;
-4,00750395695534E-6;
-4,61467989519172E-6;
-4,19598005237826E-6;
-2,82726018075467E-6;
-1,14623936005892E-6;
1,86531589388016E-7;
9,40312374842452E-7;
1,31843149455964E-6;
1,60867697317374E-6;
1,87996622591782E-6;
2,00997506393785E-6;
1,94665036819914E-6;
1,86220008173155E-6;
1,99631861185614E-6;
2,35243820669991E-6;
2,61209054153826E-6;
2,43298345601575E-6;
1,87286380775858E-6;
1,46881440736383E-6;
1,76729216745343E-6;
2,64886715852624E-6;
3,10564119618146E-6;
1,84444596994815E-6;
-1,62553070302626E-6;
-6,2948185254145E-6;
-1,00408475964751E-5;
-1,0963224212929E-5;
-8,70514057789753E-6;
-4,71017259496251E-6;
-1,15929561828264E-6;
6,02027877377807E-7;
8,97984922749887E-7;
1,16597447701601E-6;
2,52385134974975E-6;
4,72510121038284E-6;
6,43091119499239E-6;
6,55871529401886E-6;
5,46362902496472E-6;
4,78061741858172E-6;
5,90856400297912E-6;
8,39555089312859E-6;
9,74841511470322E-6;
7,10935497432002E-6;
-3,5450148597955E-7;
0,00932316342877603;
0,0226115127136198;
0,0163522018926619;
0,0094163531450543;
0,0121596813791929;
0,00702269744917642;
0,00563444520682134;
0,00458292719154186;
0,00084127280581364;
0,0010355242590821;
-0,00118359664529834;
-0,00198222065567571;
-0,0027970246676824;
-0,00454509926932606;
-0,00487965328398146;
-0,00584642668736684;
-0,00592795150883908;
-0,00616714205395525;
-0,00698198864278771;
-0,00791982143904366;
-0,0093621813949149;
-0,0102675442659014;
-0,010546624585673;
-0,0101316426635203;
-0,0092213247521634;
-0,00843556713212632;
-0,00783154274880284;
-0,00745776353829066;
-0,00704756575840889;
-0,00641503413914137;
-0,00566689620590203;
-0,0049460972808605;
-0,00444011000212078;
-0,00407967282257151;
-0,00365382306470708;
-0,00301422755253066;
-0,00221106608188306;
-0,00155300478576535;
-0,00134589506444261;
-0,00166333349953459;
-0,00224135703636922;
-0,00261676124750402;
-0,00244085736879616;
-0,00168534252821724;
-0,000641547270958255;
0,000309916967106452;
0,00096189779288106;
0,0013750944035324;
0,00176531002679835;
0,00228241453527423;
0,00288351473144905;
0,00339257949924742;
0,00368005559142181;
0,00379740082303591;
0,00393649693107004;
0,00424795091036398;
0,00467423272361967;
0,00495236620924764;
0,00480332058068449;
0,00416475900515011;
0,00328098632149349;
0,00256766326179887;
0,00234539185475505;
0,00263930505179476;
0,0031898959473791;
0,00365743298025323;
0,00385641155550982;
0,00384471223555537;
0,00381715826844824;
0,00391028248170801;
0,00408703557380789;
0,00419038762021292;
0,00410578827406223;
0,00388025795539058;
0,00368695488640794;
0,00366159139794077;
0,00375317732930282;
0,00372699505623203;
0,00333389820257045;
0,00251887276240089;
0,00150091383899723;
0,000651805641947355;
0,000257993999594158;
0,000341670472688833;
0,000670957326067723;
0,000942550285682423;
0,000990916813468499;
0,000867565926437751;
0,000745870191622768;
0,000747073011577042;
0,00083772228338081;
0,000877616349960537;
0,000764449724876428;
0,000539615462800125;
0,000356513618889375;
0,000335081813688318;
0,00042935008405241;
0,000430341903213679;
0,000116500615941092;
-0,000561368549500423;
-0,0107430104956375;
-0,0247290337401283;
-0,0187503972769498;
-0,0116590099217378;
-0,0140195123249117;
-0,00854543984983402;
-0,00701511637304409;
-0,00597093407750374;
-0,00223100339870029;
-0,00231315178518843;
0,000101250533643162;
0,00105188767172344;
0,0018830398328809;
0,00354840552721527;
0,00383834164194289;
0,00490571142684071;
0,00519129836205743;
0,00555002613902041;
0,00620065310763945;
0,0066459749596453;
0,0074409419935808;
0,00783867808709172;
0,00797642769178233;
0,00780289379742862;
0,0073316788845264;
0,00694114904400307;
0,00655647250805264;
0,00626630322041052;
0,00594060520820708;
0,0054887040539004;
0,00499011903194785;
0,00447626102458245;
0,00405319396979146;
0,00368388569101781;
0,00327802257323815;
0,00278140754551252;
0,0022074450115653;
0,00169963259280852;
0,00138898899014856;
0,00131024655088547;
0,00135180370056798;
0,00130895653313112;
0,00103155668018477;
0,000505666291043197;
-0,000139515611494294;
-0,000734680819644347;
-0,00118796137168275;
-0,00152473922154216;
-0,00184124163066578;
-0,00220402998230505;
-0,00259385700221252;
-0,00293185999115494;
-0,00315926861785542;
-0,0032992102167836;
-0,00343825692335942;
-0,00364491147372305;
-0,00389354095861846;
-0,00406468178995025;
-0,00403104126962164;
-0,00376371563298007;
-0,00337436296378804;
-0,00305404436338662;
-0,00295103694133663;
-0,00307801684622334;
-0,00331596217947478;
-0,00350804980271652;
-0,00356837749557204;
-0,00352405425473748;
-0,00346633821756877;
-0,00345966495629355;
-0,00348733607953471;
-0,00347610007449446;
-0,00337232369326778;
-0,00319843275519926;
-0,00303670949467201;
-0,00295209789557115;
-0,00292104414104309;
-0,00283223229753794;
-0,00256682861375604;
-0,00209833034331355;
-0,00153161889815782;
-0,00104561773185439;
-0,000778997331126432;
-0,000743384015698479;
-0,000827350739322952;
-0,000884209313506607;
-0,000833587319185877;
-0,000700599283192452;
-0,000570079194743298;
-0,000501725341507408;
-0,000479507337626119;
-0,000434704302055214;
-0,000316910055537327;
-0,000146525935083092;
4,10661766279095E-7;
6,41046652072852E-5;
6,71107290703868E-5;
0,000113515677112823;
0,000314278186533125;
0,000694512186938856;
0,00115738072191752;
0,0015374764803758;
0,00170691130058408;
0,00165570347960038;
0,00148789464733992;
0,00134006272255683;
0,00128722954346284;
0,00130670282518312;
0,00132055934213606;
0,00127418957309798;
0,00118302374160104;
0,0011111381103976;
0,00110560265132389;
0,00114804488511052;
0,00116874863633049;
0,0011130358016229;
0,00100220002522267;
0,000932637845910421;
0,00100694511856469;
0,00124851407357066;
0,00156840990005969;
0,00181466292668084;
0,00186995693115259;
0,00172550053428619;
0,0014773000709884;
0,00125113420549761;
0,00111608946848762;
0,00105144503175093;
0,000985790742584586;
0,000869155209173308;
0,000715823402987412;
0,000584633927955391;
0,000518759195925534;
0,00050136521147634;
0,000468607709673974;
0,000370454102779899;
0,000226409483058928;
0,000124622495904168;
0,00015879993547628;
0,000350159795949687;
0,000617279750442864;
0,000821251259649408;
0,000854923563667335;
0,000710257441483868;
0,000474788862882933;
0,000263101392917315;
0,000137997105005793;
8,04042950715172E-5;
2,51100864144274E-5;
-7,35259388766432E-5;
-0,000202642714887004;
-0,000308877468442087;
-0,000353166668034334;
-0,000351018082151692;
-0,000360627755923062;
-0,000427592037155867;
-0,000534344606741883;
-0,000601055952845855;
-0,00054293519643464;
-0,000340993156208709;
-6,92746754517524E-5;
0,000146174755298982;
0,000208193263143653;
0,000109429440834696;
-7,09791341343503E-5;
-0,000229501159034496;
-0,000309510522303452;
-0,000328416550467166;
-0,000345285346158028;
-0,00040144702388372;
-0,000485383732219682;
-0,000549042313183896;
-0,000557306986452184;
-0,000524285769602138;
-0,000502533530076693;
-0,000533196887831247;
-0,000600503207132252;
-0,000632649660980818;
-0,000553434679525651;
-0,000345902769392038;
-7,67434940130776E-5;
0,000140695665468995;
0,000219125380955012;
0,000151982534875165;
1,03397879031709E-5;
-0,000112905639692652;
-0,000166997488774147;
-0,00016758181142562;
-0,000167606803962403;
-0,000204080929533376;
-0,000266663004434244;
-0,000312325544323197;
-0,000309651855151301;
-0,000271262910392385;
-0,000244123948581827;
-0,000264958661715213;
-0,000319624101694942;
-0,000343976414788571;
-0,000270008430807257;
-8,26170475939838E-5;
0,00015871944363041;
0,000353004131640521;
0,000422548248128115;
0,000361611583483819;
0,000233553024329679;
0,000121088412604768;
6,93882759399117E-5;
6,45668681973543E-5;
5,96153358393388E-5;
2,17244713526965E-5;
-3,98575176166131E-5;
-8,68943737442781E-5;
-9,14855626055409E-5;
-6,47942974593961E-5;
-4,84023886254602E-5;
-7,47801857611969E-5;
-0,000131337688426851;
-0,000161256530334738;
-0,000104360739280168;
5,26929541246132E-5;
0,000257327523174725;
0,000420343622910834;
0,000473204887671763;
0,000410931111867245;
0,000289494167129127;
0,000181877083965686;
0,000127907094117419;
0,000115356761783793;
0,000102849829566899;
6,15446783220589E-5;
-3,8326681251418E-7;
-4,92864972702726E-5;
-6,06370135515319E-5;
-4,42431561733163E-5;
-3,66076896119224E-5;
-6,62015147843391E-5;
-0,000121948077259044;
-0,000154013724699617;
-0,000109677964558061;
2,27070315755208E-5;
0,000197071257191841;
0,000335348476494787;
0,000377620251876699;
0,000319579242347389;
0,000210169993027987;
0,000113140745083422;
6,3239899642038E-5;
4,97760032206145E-5;
3,66572764919267E-5;
-1,24848323746876E-6;
-5,68104126278846E-5;
-0,000100735744427176;
-0,000111699675133531;
-9,82587762329831E-5;
-9,2159976078519E-5;
-0,000118137752125249;
-0,000166564760866926;
-0,000194195063746399;
-0,000155329375126946;
-3,99235952475054E-5;
0,000112050133089534;
0,000232958397035584;
0,000270947422417535;
0,000222320117409643;
0,000129417147137831;
4,73233846995468E-5;
6,024440494277E-6;
-3,7380748785064E-6;
-1,31169387911796E-5;
-4,37817448983907E-5;
-8,95841903647779E-5;
-0,000125304140094901;
-0,000132608813304209;
-0,000118884367583776;
-0,000111438103487076;
-0,000131519149041841;
-0,000170851797415239;
-0,00019232804124034;
-0,00015678339689368;
-5,5656892609252E-5;
7,67668407519473E-5;
0,00018257042623575;
0,000217405175238633;
0,000178142729194752;
0,000100988592594583;
3,29853729260501E-5;
-2,94394010298368E-7;
-6,76755478040654E-6;
-1,29938217057513E-5;
-3,74228175089249E-5;
-7,48094986193645E-5;
-0,000103699162185442;
-0,000108519918086259;
-9,55623606791199E-5;
-8,80136070161617E-5;
-0,000103889250009661;
-0,000136156122555608;
-0,000153372134882652;
-0,000122400405337325;
-3,6036158402092E-5;
7,6701634727385E-5;
0,000166874694978419;
0,000197065782521216;
0,000164675046746167;
0,000100255751010422;
4,34451985973927E-5;
1,5759147178455E-5;
1,05252964559996E-5;
5,41956357256543E-6;
-1,50391836222135E-5;
-4,64320135853188E-5;
-7,0760958386439E-5;
-7,49851331979005E-5;
-6,43820360577324E-5;
-5,83497954963666E-5;
-7,19324251851774E-5;
-9,92347248895596E-5;
-0,000114008695682091;
-8,86391150180734E-5;
-1,71577027470549E-5;
7,62467667813767E-5;
0,000150862447161362;
0,000175617471568862;
0,000148393606815671;
9,45720544684279E-5;
4,70188858639144E-5;
2,35434845412654E-5;
1,86123281510761E-5;
1,37700845173681E-5;
-3,75553711567519E-6;
-3,03012817073958E-5;
-5,10236128828032E-5;
-5,51897251178811E-5;
-4,71536845994434E-5;
-4,28623709127805E-5;
-5,46558784973119E-5;
-7,76782096404682E-5;
-9,04106006576852E-5;
-7,02613842843279E-5;
-1,23858733264725E-5;
6,34181509289115E-5;
0,000123911997815252;
0,000143783150253851;
0,000121345482855719;
7,72816916113213E-5;
3,8312087556806E-5;
1,8883358236862E-5;
1,44926990892365E-5;
1,01877676827536E-5;
-4,35373399502863E-6;
-2,61563872162076E-5;
-4,32343219684814E-5;
-4,69445873534544E-5;
-4,08077747851261E-5;
-3,76533760642112E-5;
-4,73816105850573E-5;
-6,60786496072621E-5;
-7,64980681464136E-5;
-6,05827800460706E-5;
-1,45014816745603E-5;
4,5907636153301E-5;
9,41406167830166E-5;
0,000110071098395973;
9,23983055449375E-5;
5,7571760790725E-5;
2,67793289310693E-5;
1,14421138895481E-5;
7,98352201746323E-6;
4,59841924346092E-6;
-6,83635219298153E-6;
-2,39651010036744E-5;
-3,73684845983069E-5;
-4,02791397964733E-5;
-3,54701095677556E-5;
-3,29764870613051E-5;
-4,05132320963058E-5;
-5,50120874882731E-5;
-6,30530674870788E-5;
-5,06372749790015E-5;
-1,48384485422803E-5;
3,20479454218806E-5;
6,95389178435188E-5;
8,21414326186508E-5;
6,88974056447247E-5;
4,24758841588525E-5;
1,91274327691139E-5;
7,57505673411646E-6;
5,0689620426442E-6;
2,60937879246638E-6;
-5,96796350116173E-6;
-1,88596168358879E-5;
-2,8930539750521E-5;
-3,10811859051123E-5;
-2,74185738697592E-5;
-2,54929560906836E-5;
-3,10775306951512E-5;
-4,1855351944436E-5;
-4,78032605949866E-5;
-3,85222538666619E-5;
-1,18866454192649E-5;
0,00935638536927718;
0,0226805756962584;
0,016433145705568;
0,00948408005025719;
0,012201286981575;
0,00704119316353037;
0,00564153136753634;
0,00458765259423933;
0,000843689981300788;
0,00102941412401474;
-0,00120268543611684;
-0,00201144565487457;
-0,00282822653236268;
-0,00457223594173846;
-0,00490457355237503;
-0,00587713544498934;
-0,0059700750774519;
-0,00621557114678305;
-0,00702025195914849;
-0,00792891500026334;
-0,00933296855623656;
-0,0102076297228494;
-0,010476478508494;
-0,010072707939702;
-0,00918463394736245;
-0,00841857294519721;
-0,00782428914215171;
-0,00745255372230856;
-0,00704436268573243;
-0,00641913565023775;
-0,00568209414583798;
-0,00496998291411682;
-0,00446575871586075;
-0,00410195786120703;
-0,003674310818862;
-0,00303970103507431;
-0,00224629089384458;
-0,00159365680493528;
-0,00137803851139425;
-0,00167089292193118;
-0,00221659409349741;
-0,00256607097698541;
-0,00238148813624643;
-0,00163536365653477;
-0,00061026112851045;
0,000324635895798775;
0,000968404874802848;
0,00137984673891629;
0,00176833444992214;
0,00227926413147953;
0,00287100752635875;
0,0033727291411589;
0,00365865561627435;
0,00377874016293282;
0,00391927062000306;
0,00422649907666844;
0,00464458122546238;
0,00491812122717718;
0,0047760955639459;
0,00415794700251719;
0,00330104464914537;
0,00260930324106317;
0,00239431266972741;
0,00268052369055151;
0,00321569374198517;
0,00366955228438149;
0,00386174746940977;
0,00384859107496749;
0,00381959814060971;
0,00390761319078271;
0,00407663167378758;
0,00417390276708597;
0,00408798511679589;
0,0038646616643842;
0,0036724977216316;
0,00364363498121074;
0,00372846692213978;
0,0036984829886141;
0,00331108507906079;
0,00251271145637462;
0,00151669476985803;
0,000685241569063902;
0,000297457224320907;
0,00037497724466413;
0,00069182541890219;
0,00095237519052879;
0,000995270517805004;
0,000870750043299568;
0,000747894135836268;
0,000744968753298593;
0,000829367138070768;
0,000864337619468675;
0,000750077083846187;
0,000526982571286929;
0,000344765597900028;
0,000320501375859972;
0,000409330763966151;
0,000407244967359446;
9,79194418831057E-5;
-0,000566683512353389;
-0,01073082360205;
-0,0247027332945328;
-0,018719206256614;
-0,0116325933923499;
-0,0140028597507213;
-0,00853746674061841;
-0,00701143941493084;
-0,00596817223040534;
-0,00222915524091878;
-0,00231455513677415;
9,49241433063943E-5;
0,00104167278029631;
0,00187192931841515;
0,00353861275134011;
0,00382920186606231;
0,00489433188778109;
0,00517565279535653;
0,00553194670382248;
0,00618602645821519;
0,00664158071668767;
0,0074500708101537;
0,00785874246963873;
0,00800035068646866;
0,00782325857908832;
0,00734465070034487;
0,00694753682981597;
0,00655960152371699;
0,00626873525060931;
0,00594233518504721;
0,00548795580971098;
0,00498562325085205;
0,00446879258819691;
0,00404500228162032;
0,00367663305584662;
0,00327121325096192;
0,00277288115328198;
0,00219569071564116;
0,00168601352282053;
0,00137787808324714;
0,0013066753513207;
0,00135822373623;
0,00132348767555832;
0,00104902070947214;
0,00052063606926625;
-0,000129852011287762;
-0,000729755999211172;
-0,00118538317261048;
-0,00152266820429199;
-0,00183968779515839;
-0,00220427317376099;
-0,00259681094443325;
-0,00293697785396989;
-0,00316495551104237;
-0,00330428891508096;
-0,00344307429043725;
-0,0036509832286311;
-0,0039019241789048;
-0,00407442533142951;
-0,00403910254460117;
-0,00376659958659293;
-0,00337035664779538;
-0,00304440921891642;
-0,00293928711843616;
-0,00306783515752434;
-0,00330926303588047;
-0,0035044754925127;
-0,00356635101455478;
-0,00352236711268761;
-0,00346500416283398;
-0,00345952957101064;
-0,00348900185782236;
-0,00347921868108401;
-0,0033758710265793;
-0,00320165465157154;
-0,00303982317349264;
-0,00295605738676111;
-0,00292651116667437;
-0,00283861420663601;
-0,00257224067181636;
-0,0021006149192925;
-0,00152970707603507;
-0,00104023573698912;
-0,000772215999020886;
-0,000737372660174226;
-0,000823244305708141;
-0,000881830234281926;
-0,000832063376298468;
-0,000699267466339776;
-0,000568956117567491;
-0,000501280706747668;
-0,000480074182899375;
-0,000436105303393599;
-0,000318613691229487;
-0,000148143199302988;
-1,22590001491529E-6;
6,19787778566721E-5;
6,41744489241048E-5;
0,000110053039439419;
0,000311177123164299;
0,000692778774942464;
0,00115752818848445;
0,00153923609059373;
0,00170944978433492;
0,00165814986562895;
0,00148978334595962;
0,00134141849069014;
0,00128832239199634;
0,00130772971394408;
0,00132150157380517;
0,00127489902651495;
0,0011833979871548;
0,00111120896145135;
0,00110548166909265;
0,00114780969646454;
0,00116838839008421;
0,0011124924760683;
0,00100144254247765;
0,000931687887647023;
0,00100584308172656;
0,00124728675917138;
0,001567096857508;
0,00181338126395724;
0,00186892084736914;
0,00172493856454737;
0,00147731420450489;
0,00125162154818408;
0,00111681247313913;
0,00105220791285787;
0,000986573466057;
0,000870081195256665;
0,000716985044559651;
0,0005859410532335;
0,000519970335742939;
0,000502296191459784;
0,000469327179574863;
0,000371249885902024;
0,000227493941873553;
0,000125797541138685;
0,000159395696644512;
0,00034938222055852;
0,000614770259657106;
0,000817447281895037;
0,000850912531881577;
0,00070718509952656;
0,000473231402459506;
0,000262851221126018;
0,000138395734228776;
8,09302651977177E-5;
2,5742705071691E-5;
-7,24374874145995E-5;
-0,00020084396072819;
-0,000306559092049505;
-0,000350862012723061;
-0,000349127805080173;
-0,000359017653958121;
-0,00042568881421734;
-0,000531734933930395;
-0,000598118854450115;
-0,000540925619181163;
-0,000341381500386715;
-7,27486337040667E-5;
0,000140313463517031;
0,000201746826434419;
0,000104294933827141;
-7,3836344267074E-5;
-0,000230372649295614;
-0,000309397144777057;
-0,000328104585561695;
-0,000344795573758484;
-0,000400246101075842;
-0,000483084880989197;
-0,000545917300884758;
-0,000554125627828097;
-0,00052162414771005;
-0,000500204527373444;
-0,000530396422218652;
-0,000596655459627108;
-0,000628279478763318;
-0,000550268835265836;
-0,000345957265840781;
-8,09726025613231E-5;
0,000133197528946666;
0,000210732153437651;
0,00014519287810004;
6,43140514605907E-6;
-0,000114289791739026;
-0,000167129924395243;
-0,000167458883641767;
-0,000167248923148421;
-0,000202808104635467;
-0,000263983007194589;
-0,000308573819255319;
-0,000305784904770506;
-0,000267995359842912;
-0,000241227123841772;
-0,000261446814635511;
-0,000314793503437563;
-0,000338466254119621;
-0,000265915683543733;
-8,23859664449407E-5;
0,000153924237011864;
0,000344247716682269;
0,000412648334056215;
0,000353534355603968;
0,000228819654757624;
0,000119292813917342;
6,90493608465272E-5;
6,45270610074412E-5;
5,98549638532762E-5;
2,30366385999101E-5;
-3,68991496233542E-5;
-8,26734479431137E-5;
-8,71009117213929E-5;
-6,10661950292083E-5;
-4,50707110949148E-5;
-7,07212820013484E-5;
-0,000125750720845039;
-0,000154867026798081;
-9,95454467456523E-5;
5,3165993585989E-5;
0,000252133490848425;
0,000410664812544391;
0,000462189255872056;
0,000401893374539563;
0,000284137771840621;
0,000179761327384548;
0,000127398131754469;
0,000115179010536215;
0,00010298464893059;
6,28685797194173E-5;
2,76350879946632E-6;
-4,47350396471625E-5;
-5,58828348643119E-5;
-4,01831234341334E-5;
-3,29591385180193E-5;
-6,17415092396179E-5;
-0,000115805869362768;
-0,000146976493545317;
-0,000104322463201535;
2,33811383717188E-5;
0,00019162330868411;
0,000325040938884209;
0,000365831547530638;
0,000309867967510809;
0,000204367988839015;
0,000110785243326637;
6,25932047444166E-5;
4,94824049006128E-5;
3,66993978128165E-5;
6,31863839896385E-8;
-5,35539761690307E-5;
-9,59753670467642E-5;
-0,00010670614944362;
-9,39801191153745E-5;
-8,82987604235263E-5;
-0,000113405527455092;
-0,000160044657729449;
-0,00018671435441356;
-0,000149595138315066;
-3,90865845128712E-5;
0,000106472279584263;
0,000222276207160434;
0,00025868294501693;
0,000212184696145339;
0,000123324026756968;
4,47985232260729E-5;
5,26871678734186E-6;
-4,12764999901765E-6;
-1,31563172864301E-5;
-4,25024494700123E-5;
-8,62858520796936E-5;
-0,000120439933429744;
-0,000127488658573597;
-0,000114485396981595;
-0,000107454850068417;
-0,00012662686857897;
-0,000164108087832069;
-0,000184581652408569;
-0,000150811515319596;
-5,46917094814922E-5;
7,11644107830718E-5;
0,000171731443211191;
0,000204920583945489;
0,000167798109428015;
9,4738043920449E-5;
3,03527406733068E-5;
-1,13328794749761E-6;
-7,23480065208167E-6;
-1,31038392118235E-5;
-3,61919819093944E-5;
-7,15262935461879E-5;
-9,88203377650984E-5;
-0,000103369100598163;
-9,11269271945301E-5;
-8,39857967025115E-5;
-9,89330181295863E-5;
-0,000129321153895516;
-0,000145512771624365;
-0,00011631249849095;
-3,49738214280394E-5;
7,11631044463248E-5;
0,000156063605671983;
0,000184578438916211;
0,000154304471581175;
9,39623371807536E-5;
4,07583351381354E-5;
1,48603804843686E-5;
9,99727604652541E-6;
5,24946053026241E-6;
-1,38691454878142E-5;
-4,32110721135413E-5;
-6,59420619011032E-5;
-6,98841465679933E-5;
-5,99806380555077E-5;
-5,43427682602748E-5;
-6,69935116278703E-5;
-9,24205751997072E-5;
-0,000106165876949345;
-8,25388017439828E-5;
-1,60257480250974E-5;
7,08451421866797E-5;
0,000140233402110406;
0,000163309441616532;
0,000138151026075997;
8,83325496123903E-5;
4,43236893455847E-5;
2,26055220655396E-5;
1,80388629273724E-5;
1,35498996040009E-5;
-2,65546877157265E-6;
-2,71809230288361E-5;
-4,63260022736978E-5;
-5,02051132720105E-5;
-4,28447835951709E-5;
-3,89305194320704E-5;
-4,98021295508796E-5;
-7,09785422104245E-5;
-8,2692736014064E-5;
-6,42358803475847E-5;
-1,12086828774278E-5;
5,82122675702471E-5;
0,000113591197282323;
0,000131804160542212;
0,000111357938465905;
7,11764324826454E-5;
3,56472498064879E-5;
1,7924243926737E-5;
1,38874529031068E-5;
9,9267655217379E-6;
-3,33014728589512E-6;
-2,31671093644415E-5;
-3,87075314126124E-5;
-4,21303502747353E-5;
-3,66390061242072E-5;
-3,3841232042867E-5;
-4,26687303958122E-5;
-5,95704263646725E-5;
-6,89943860265764E-5;
-5,4704363243658E-5;
-1,33004964265947E-5;
4,09435789218423E-5;
8,42289952138331E-5;
9,85415952961621E-5;
8,27684466139781E-5;
5,1666130172622E-5;
2,41769226718707E-5;
1,04774013510561E-5;
7,35854720586103E-6;
4,30510790468988E-6;
-5,89344461530586E-6;
-2,11304183897628E-5;
-3,30514279907147E-5;
-3,56779870827642E-5;
-3,14793415179798E-5;
-2,93196624642068E-5;
-3,5985927209308E-5;
-4,87571432353018E-5;
-5,58354213647385E-5;
-4,49646375274005E-5;
-1,36322961039855E-5;
2,73604923808547E-5;
6,01148441001272E-5;
7,115565420825E-5;
5,97060098135163E-5;
3,68218378783341E-5;
1,66135637256916E-5;
6,61803448647659E-6;
4,43483044413069E-6;
2,29154378015801E-6;
-5,10788974291937E-6;
-1,61968118730671E-5;
-2,48526359805934E-5;
-2,67257094853639E-5;
-2,36348974571757E-5;
-2,20190278398952E-5;
-2,6770610900116E-5;
-3,59019167401031E-5;
-4,0927858095569E-5;
-3,3101809958863E-5;
-1,06912765851778E-5;
1,85653374115728E-5;
4,19677278508213E-5;
5,00373429240758E-5;
4,22922714466388E-5;
2,65327200362306E-5;
1,26212555675303E-5;
5,77612313090468E-6;
4,30844802092099E-6;
2,854618024079E-6;
-2,20141418362032E-6;
-9,76681562878473E-6;
-1,56752712905088E-5;
-1,70034376728861E-5;
-1,49993537329501E-5;
-1,39779606276724E-5;
-1,71742003554958E-5;
-2,32420020249951E-5;
-2,65919514398652E-5;
-2,15424893955645E-5;
-7,04032905490645E-6;
1,18511396831288E-5;
2,69676009579349E-5;
3,23149602479362E-5;
2,7667560299281E-5;
1,79891952791889E-5;
9,44453232119472E-6;
5,23512104744854E-6;
4,29161112961758E-6;
3,34426367743998E-6;
2,36067312971741E-7;
-4,35212932577199E-6;
-7,9518102785858E-6;
-8,87627234021421E-6;
-7,87809276212885E-6;
-7,43187494135373E-6;
-9,33770532768187E-6;
-1,28056529085432E-5;
-1,47514074892624E-5;
-1,21426445144854E-5;
-4,51164717751762E-6;
5,3894642315999E-6;
1,33116878176516E-5;
1,62659846761914E-5;
1,42465122619941E-5;
9,77237361945261E-6;
5,823821316326E-6;
3,86719949227899E-6;
3,36630014251176E-6;
2,85099203475948E-6;
1,41690098866775E-6;
-6,09675281788651E-7;
-2,21738747742907E-6;
-2,77980833868767E-6;
-2,62458328570482E-6;
-2,65019113304827E-6;
-3,4292503257227E-6;
-4,64851589091056E-6;
-5,3657933967368E-6;
-4,81179410855498E-6;
-3,01772293058642E-6;
-7,62519180003694E-7;
1,04383323598452E-6;
1,97254154580273E-6;
2,20389416234309E-6;
2,17556090639396E-6;
2,15923731718988E-6;
2,14675211153133E-6;
2,05497792029406E-6;
1,94101487459591E-6;
1,96224852366173E-6;
2,14366602272408E-6;
2,26198959102367E-6;
2,04636627734543E-6;
1,52894345216461E-6;
1,14346513822684E-6;
1,35350139177755E-6;
2,06910401970674E-6;
2,42528094800571E-6;
1,28437501469699E-6;
-1,80392225439722E-6;
-5,95682235418239E-6;
-9,27588654716879E-6;
-1,00389029363901E-5;
-7,91019382627294E-6;
-4,19919788260217E-6;
-9,05121600541228E-7;
7,29014330085661E-7;
9,99704675513262E-7;
1,24132032305328E-6;
2,49799491265213E-6;
4,54245219533724E-6;
6,12106013141994E-6;
6,21523819558921E-6;
5,15730965115023E-6;
4,48991979021456E-6;
5,53784576481037E-6;
7,87541288193424E-6;
9,13705711647837E-6;
6,60395149768487E-6;
-5,20319812203204E-7;
-9,97589288289548E-6;
-1,75405956687048E-5;
-1,97148076020473E-5;
-1,60353658798957E-5;
-9,25360539841167E-6;
-3,24035364121751E-6;
-2,54919008095008E-7;
3,11914761351198E-7;
8,44133635768542E-7;
3,11334443540036E-6;
6,68477452663879E-6;
9,46038326314088E-6;
9,8099107621003E-6;
8,31166385744055E-6;
7,41424245091221E-6;
9,14471535810342E-6;
1,28030360531704E-5;
1,48014666827779E-5;
1,11356226140029E-5;
7,291282225907E-7;
-1,30392452456434E-5;
-2,40629282848557E-5;
-2,74033688824083E-5;
-2,24951621955255E-5;
-1,3255227671115E-5;
-5,06472555298778E-6;
-1,00158740156733E-6;
-2,04403788635774E-7;
5,54665694313667E-7;
3,63083127028401E-6;
8,42225658271794E-6;
1,21543453351939E-5;
1,2707884357999E-5;
1,08582174010404E-5;
9,77688224061862E-6;
1,2050011089059E-5;
1,67584686269609E-5;
1,93430435455927E-5;
1,47798507631366E-5;
1,77198972242155E-6;
-1,54151594818703E-5;
-2,91856921884435E-5;
-3,34663618204179E-5;
-2,76122318451467E-5;
-1,64577286420019E-5;
-6,57010872924556E-6;
-1,66864080056591E-6;
-6,94042794752744E-7;
2,409103938909E-7;
3,94611169730943E-6;
9,68889056031918E-6;
1,41683547916437E-5;
1,4886130323475E-5;
1,27707724955149E-5;
1,15530643171598E-5;
1,42501768704148E-5;
1,97732934787113E-5;
2,28156212458404E-5;
1,75712612613972E-5;
2,57578718423096E-6;
-1,72260743560873E-5;
-3,31013644625118E-5;
-3,81133025919461E-5;
-3,15576879269454E-5;
-1,89655928926924E-5;
-7,80182640148362E-6;
-2,26930098003974E-6;
-1,15917140382945E-6;
-8,87839897328776E-8;
4,09192713327856E-6;
1,05516549305385E-5;
1,55966067017446E-5;
1,64466527729054E-5;
1,41446718835149E-5;
1,2835585980315E-5;
1,58541741279562E-5;
2,19857232301882E-5;
2,53741173621773E-5;
1,96416144616235E-5;
3,20311956958685E-6;
-1,85005505236403E-5;
-3,59107291413744E-5;
-4,14666583319807E-5;
-3,44227835617676E-5;
-2,08119407493742E-5;
-8,74197647321761E-6;
-2,76040612995381E-6;
-1,5513828981271E-6;
-3,81212127972579E-7;
4,13956244700064E-6;
1,11093716363608E-5;
1,65588820030272E-5;
1,75118595662177E-5;
1,50913355022869E-5;
1,37289172955193E-5;
1,69774347057015E-5;
2,35347400293738E-5;
2,7169321322978E-5;
2,11158734242328E-5;
3,70970943326662E-6;
0,00931416126857824;
0,0225920100370865;
0,0163290810570065;
0,00939678531732665;
0,0121473438028743;
0,00701677119768144;
0,00563169111459564;
0,00458085815082463;
0,000839885112609785;
0,0010365181472876;
-0,00117901621929002;
-0,00197481776474891;
-0,00278897407958342;
-0,00453800069877763;
-0,00487302934891693;
-0,00583820840117423;
-0,00591670281585593;
-0,00615418209201974;
-0,00697150196185542;
-0,00791659230617309;
-0,00936849934633007;
-0,0102815530290493;
-0,0105633391665021;
-0,0101458776247941;
-0,00923042153491849;
-0,0084401007856292;
-0,00783381899015686;
-0,00745954731846108;
-0,00704885496239818;
-0,00641462262762092;
-0,00566393230824186;
-0,00494111614474574;
-0,00443463265690542;
-0,00407481490472125;
-0,00364925549254015;
-0,00300852352695216;
-0,00220324081109262;
-0,00154396575298214;
-0,00133850107252382;
-0,00166083967486172;
-0,00224532058928815;
-0,002625946183485;
-0,00245193893794812;
-0,00169487295397669;
-0,000647759998181196;
0,00030665844506592;
0,000960101752026274;
0,00137362540435977;
0,00176417457811486;
0,0022823872239685;
0,00288513859447685;
0,00339551821130925;
0,00368335695924335;
0,0038003703111139;
0,00393933448193751;
0,00425152475047717;
0,00467913517905483;
0,00495804714018742;
0,00480807230095092;
0,00416665398863673;
0,00327910371269018;
0,00256270269433756;
0,002339240522129;
0,00263390600666253;
0,00318624281783455;
0,00365534385815751;
0,00385509709743816;
0,00384358003500323;
0,00381621816767388;
0,00390993631027622;
0,00408755978036177;
0,00419161683143146;
0,00410726005422427;
0,00388164029138056;
0,00368833671784518;
0,00366336068010579;
0,00375558903840606;
0,00372980598499481;
0,00333638918704832;
0,00252025622019013;
0,00150081599887531;
0,000650468044521671;
0,000256073719524643;
0,00033982280135042;
0,000669514005937911;
0,000941483447480763;
0,000990036076079866;
0,000866741842563471;
0,000745115169375942;
0,000746470889499503;
0,000837322116666973;
0,000877398054864012;
0,000764367476592971;
0,000539645618303109;
0,000356651026371901;
0,000335306758409962;
0,000429631305258489;
0,000430696580155429;
0,000117047791297171;
-0,000560449995270523;
-0,0107416297981953;
-0,0247273352261471;
-0,0187487624863063;
-0,0116578710356173;
-0,014019096933201;
-0,00854564705181182;
-0,00701563280989887;
-0,00597149995345623;
-0,00223160441628112;
-0,00231397165670376;
0,000100069559105932;
0,0010504471986427;
0,00188164336998423;
0,00354728798744166;
0,0038374192695476;
0,00490462347358828;
0,00518977421746432;
0,0055483005952526;
0,00619954541751001;
0,00664647122203346;
0,00744352164154812;
0,00784287691881829;
0,00798100083020735;
0,00780650492438471;
0,00733363495707856;
0,00694165665763934;
0,00655626170458759;
0,00626595563855741;
0,0059401363778201;
0,00548770874293549;
0,0049882966015302;
0,00447381318831705;
0,00405071213696384;
0,00368181782857627;
0,0032762203617379;
0,00277922985773521;
0,00220442454200209;
0,00169618273745266;
0,00138650350895334;
0,00131037372099736;
0,00135534243101136;
0,00131518255529974;
0,0010385209397159;
0,000511294838493457;
-0,000136295987506318;
-0,000733578704190826;
-0,00118790897286599;
-0,00152489416518611;
-0,00184158775235705;
-0,00220515232541195;
-0,00259618477556547;
-0,0029351109053317;
-0,00316261897595144;
-0,00330204019072188;
-0,00344076672943125;
-0,00364796780497788;
-0,0038977692734112;
-0,00406952533521788;
-0,00403464532972473;
-0,00376390076916975;
-0,00337007336535649;
-0,00304621056444078;
-0,00294216876985115;
-0,00307077582981915;
-0,00331172478733272;
-0,00350645847909755;
-0,0035680976414162;
-0,00352403767267182;
-0,00346656860797186;
-0,00346086964364924;
-0,00349004600304904;
-0,00347996986505391;
-0,00337634726143378;
-0,00320185537197546;
-0,00303977190729831;
-0,00295584319664863;
-0,00292622137104467;
-0,00283817290634314;
-0,00257131864155949;
-0,00209877655249284;
-0,00152676469194685;
-0,00103655190939881;
-0,000768662338863092;
-0,000734894826069723;
-0,000822318276671405;
-0,000882226436413717;
-0,000833115829122489;
-0,000700434073262892;
-0,000570204230652263;
-0,000502976730281733;
-0,000482493778395978;
-0,000439032884246294;
-0,000321436683333208;
-0,000150393851426617;
-3,06971322160965E-6;
5,98360669641455E-5;
6,12120356891137E-5;
0,000106739216589758;
0,000309106826435569;
0,000693848710545993;
0,010496066647092;
0,0241771689170242;
0,018091060378689;
0,0110982110843122;
0,0136629131245318;
0,00836851420686854;
0,00692267425357179;
0,00588970269577111;
0,00216102694567107;
0,00230531189289423;
-1,05886299805242E-5;
-0,000885463467051289;
-0,00170641629262589;
-0,00340982174179181;
-0,00372235765078272;
-0,00474751209068292;
-0,00494543793431991;
-0,00525723321533226;
-0,00599230409203071;
-0,00667303127237464;
-0,0077749748208369;
-0,00841766073238707;
-0,00863639665138378;
-0,008372975859452;
-0,00772432108900092;
-0,00717665772879623;
-0,00671359358956152;
-0,00640563439600812;
-0,00606221488249315;
-0,00555078708332431;
-0,00496291156575427;
-0,00437870206852951;
-0,00393943070994386;
-0,00359379297448628;
-0,0031991976541031;
-0,00266101199923501;
-0,0020085906006368;
-0,00145599391275922;
-0,00120829134660413;
-0,00131606980298136;
-0,00160281616619669;
-0,0017548972606215;
-0,00153925572177996;
-0,000936493860697417;
-0,000143638724873937;
0,000582426664913609;
0,00110250684871504;
0,0014567479190902;
0,00179035872144468;
0,00220369585484954;
0,00266774686361641;
0,00306438758001684;
0,0033065525840188;
0,00342890875083126;
0,00356003188242866;
0,00380081682034874;
0,00411279673360423;
0,0043200572963089;
0,00423624283678825;
0,00381996982699841;
0,00323476956933042;
0,00275842415570158;
0,00260500624252753;
0,00279137082159626;
0,00314462867884101;
0,00343864028216826;
0,00355017423757871;
0,00351806825456449;
0,00347219592740109;
0,00350354363270767;
0,00358769975783196;
0,0036206274872686;
0,00352659927206731;
0,00333712946210515;
0,00316729771931648;
0,00310723796099404;
0,00312335538936455;
0,00306051226655653;
0,00275421269045493;
0,00216848016827917;
0,00144840331055225;
0,000839776842127985;
0,000531781092426815;
0,000539078285261898;
0,000708830060067436;
0,000841310845392144;
0,000827722474262599;
0,000702191529777395;
0,00057892402319178;
0,000537711777991898;
0,00055663101437305;
0,000543707451580052;
0,000431942921232467;
0,000248636062377739;
9,44315503725333E-5;
4,79106054267589E-5;
7,89503376264921E-5;
5,0838962918084E-5;
-0,000181172262704865;
-0,000649022576517177;
-0,0105594551978921;
-0,0243272120320188;
-0,0182712838967021;
-0,0112503074765767;
-0,0137573073303148;
-0,00841205674415847;
-0,00694153972668467;
-0,00590383077048169;
-0,00217045752586233;
-0,00229662557302401;
4,67690555751991E-5;
0,00094298907613996;
0,00176820378517212;
0,00346343376757235;
0,00377152469330676;
0,00480813510356989;
0,00502838565416009;
0,00535230994011183;
0,00606781151918142;
0,00669321129201186;
0,00772321868677461;
0,00830839762772589;
0,00850695407768656;
0,00826161744458221;
0,0076503415225058;
0,00713566687105403;
0,00668882969787263;
0,00638443628929622;
0,00604459999432921;
0,00554519641073654;
0,00497516070653518;
0,00440493566472808;
0,0039691265484166;
0,00361936596587825;
0,00322287735244077;
0,00269224132447687;
0,00205369637654386;
0,00150888851018812;
0,00125053863616847;
0,00132720358702701;
0,00157353944095422;
0,00169342087657624;
0,00146629628902401;
0,000872934802674965;
9,98391740421584E-5;
-0,000608783368226795;
-0,00112010569831657;
-0,00147201423504134;
-0,00180326381889227;
-0,00221012296110758;
-0,00266497914954779;
-0,00305433514441592;
-0,00329411936409509;
-0,00341753024239221;
-0,0035487865493716;
-0,00378582285968389;
-0,00409163850371841;
-0,00429530982457143;
-0,00421498151557022;
-0,003809563523096;
-0,00323825358484004;
-0,00277290385904016;
-0,00262396518290307;
-0,00280877750516181;
-0,00315775818836457;
-0,00344804406766232;
-0,00355765100957672;
-0,00352472653068508;
-0,00347799167634402;
-0,00350803254592577;
-0,00359079127770136;
-0,00362256733169305;
-0,00352750621756163;
-0,00333690179800849;
-0,0031661073193084;
-0,00310590042500559;
-0,00312275101674615;
-0,00306022381583554;
-0,00275168359842921;
-0,00215998297855727;
-0,00143165742772552;
-0,000816349916550275;
-0,000507113483750428;
-0,000519641216741166;
-0,000698316986331372;
-0,000838777326401482;
-0,000829164544343906;
-0,000704236307679799;
-0,00058149975821777;
-0,000543440406925514;
-0,000567608826457324;
-0,000558770614814657;
-0,000447188769878729;
-0,00026098798600376;
-0,000104959258782391;
-6,13373474732778E-5;
-9,889210685848E-5;
-7,43687111873197E-5;
0,00016465187739169;
0,000652494079450638;
0,00125620573370638;
0,00174912173332801;
0,00195628636574408;
0,00186421552431801;
0,00161517321130983;
0,00139558332894562;
0,00130765740188298;
0,00132037509256139;
0,00132762893594634;
0,00125517324877756;
0,00112398288595202;
0,00102097540645709;
0,00100985811902036;
0,00106561045518716;
0,00109379727420432;
0,00102047036118255;
0,000874388095797555;
0,000785570426488827;
0,000892169864370596;
0,00122545943611868;
0,00166555135439079;
0,00200802664844294;
0,00209530663226795;
0,00191562094924179;
0,00159765116198368;
0,00130974788577149;
0,00114419932134376;
0,00107317881674552;
0,00100125769364948;
0,000861750039392513;
0,000673672889218733;
0,000515301306135177;
0,000443949216867795;
0,000437130128221099;
0,000410014666075932;
0,000296230661565922;
0,000121624866465389;
2,84018317748505E-6;
6,36825301161578E-5;
0,000332022351219804;
0,000700251744785788;
0,000985142940934232;
0,00104555897885608;
0,000870960110979463;
0,000576438736741862;
0,000312443131407454;
0,000161300890870892;
9,79581882981968E-5;
3,70158283775318E-5;
-8,11960894489055E-5;
-0,000239835525718816;
-0,00036923691908604;
-0,000418491287792244;
-0,000407845987347642;
-0,000413055316549655;
-0,000493368014937173;
-0,000625910185649733;
-0,000707065917706761;
-0,000626951050830734;
-0,000361050347119206;
-5,22660190157371E-6;
0,000277600267568499;
0,000362025784871688;
0,000238632960970103;
9,43067379039901E-6;
-0,000192319962478503;
-0,000293828495548676;
-0,000317460573514984;
-0,000338969987793664;
-0,000411266921742743;
-0,000519539901567921;
-0,000602292967420531;
-0,000614659195446765;
-0,000574654289928962;
-0,000549269508312401;
-0,000590857500881748;
-0,000679280908198928;
-0,000723235987966735;
-0,000625981809977163;
-0,000366060266943613;
-2,80076129250738E-5;
0,000244719529479607;
0,000341805940948376;
0,00025501735261191;
7,40454206152358E-5;
-8,40481397553089E-5;
-0,000155390136083536;
-0,000159652525542299;
-0,000163300911578531;
-0,000212705519652452;
-0,000294854089190145;
-0,000355864449942871;
-0,000356462641818019;
-0,000312424094460307;
-0,000282327788775757;
-0,00031189279677736;
-0,000383463103981137;
-0,000417262878826489;
-0,000328854613627473;
-9,9554461049822E-5;
0,000196895254721711;
0,000435487915601801;
0,000520210101342804;
0,000444006315057073;
0,000285026825594603;
0,000145144533182007;
7,99065749852499E-5;
7,22386718085975E-5;
6,44644004171646E-5;
1,64058560323143E-5;
-6,05766828916176E-5;
-0,000119715237511145;
-0,000126950695395572;
-9,59242621491658E-5;
-7,73001669813069E-5;
-0,000110562738248425;
-0,000180371922111717;
-0,000217741842749817;
-0,000149743720702346;
3,9722459629617E-5;
0,000287020764678732;
0,000484395743211812;
0,000549188054597296;
0,000475420628901359;
0,000330439848654727;
0,000201917476417334;
0,000137613243329061;
0,000122858013067211;
0,00010814786479024;
5,90477650409566E-5;
-1,46529514373199E-5;
-7,28429202289871E-5;
-8,63468230460057E-5;
-6,68491301523668E-5;
-5,76846437496539E-5;
-9,25778204440994E-5;
-0,000158380235117571;
-0,000196167009632118;
-0,000143728611608709;
1,26087278448756E-5;
0,000218558238600147;
0,000382331263303429;
0,000433608885382887;
0,000367369214304714;
0,000240907477630876;
0,000128707888720659;
7,12901071086449E-5;
5,61807859949626E-5;
4,1403822576133E-5;
-2,19940078092785E-6;
-6,63243907573836E-5;
-0,000117039246849355;
-0,000129704677841004;
-0,000114222972848018;
-0,000107190686397624;
-0,000137046040289261;
-0,000192687344143149;
-0,000224484477577954;
-0,000180119594400278;
-4,81652003309285E-5;
0,000125686760451273;
0,000264325213160911;
0,000308763474318532;
0,00025483803002458;
0,000150589228261408;
5,83738886322616E-5;
1,20556158519927E-5;
1,17145212545741E-6;
-9,35309550369308E-6;
-4,38440210464957E-5;
-9,53648121493737E-5;
-0,000135650964041157;
-0,000144219390252372;
-0,00012933902971662;
-0,00012143732533965;
-0,000144115947345091;
-0,000188146089512414;
-0,000212394294615163;
-0,000173577258178858;
-6,2309989388085E-5;
8,35750003898997E-5;
0,00020037316840485;
0,000239442646890902;
0,000197404819778152;
0,000113864528885187;
4,0131685298108E-5;
4,01534283072855E-6;
-3,10589686371122E-6;
-1,00141291538147E-5;
-3,66299457784912E-5;
-7,72538643760732E-5;
-0,000108765886531365;
-0,000114449890807038;
-0,000101079393214861;
-9,34687971763468E-5;
-0,000110820695858526;
-0,000145598536801373;
-0,000164367731542895;
-0,000132025761144516;
-4,10254692987286E-5;
7,79347558005105E-5;
0,000173302725966986;
0,000205808685570276;
0,000172788992595606;
0,000106222857667647;
4,74383376369918E-5;
1,87808017889757E-5;
1,33015056140715E-5;
7,90840051814302E-6;
-1,33367691171808E-5;
-4,58462788334087E-5;
-7,11353957553821E-5;
-7,58781459614569E-5;
-6,54936543853821E-5;
-5,97341111174765E-5;
-7,38372190318105E-5;
-0,00010178769394402;
-0,000117075857449588;
-9,19528046995296E-5;
-2,05175008400366E-5;
7,29492563009909E-5;
0,00014781609432513;
0,000173229981504883;
0,000147167840888172;
9,47656897427621E-5;
4,83994366410768E-5;
2,55178507030328E-5;
2,0672653490244E-5;
1,58688920251291E-5;
-1,26732068573198E-6;
-2,71451822732903E-5;
-4,74280266942697E-5;
-5,18217097452194E-5;
-4,45346224801993E-5;
-4,07967900369441E-5;
-5,23072506675271E-5;
-7,44121066408084E-5;
-8,67838213030121E-5;
-6,82336473019922E-5;
-1,43276219143818E-5;
5,63735607083091E-5;
0,000112966208868061;
0,000132088841204374;
0,000112284080730028;
7,25954800845729E-5;
3,74349575894735E-5;
1,98969287665291E-5;
1,58646589463908E-5;
1,1867480793398E-5;
-1,30790894649704E-6;
-2,09591665918299E-5;
-3,64318039438898E-5;
-4,01215109599257E-5;
-3,51652844614183E-5;
-3,2789709532168E-5;
-4,15640462020763E-5;
-5,80429530175277E-5;
-6,73705101390741E-5;
-5,41597079160213E-5;
-1,52731072407511E-5;
3,57818439634897E-5;
7,6689873247255E-5;
9,06988791542098E-5;
7,68472312464466E-5;
4,88035009365283E-5;
2,3958819923696E-5;
1,15709245378173E-5;
8,69481402998449E-6;
5,84022163212204E-6;
-3,42803130705681E-6;
-1,71910549565023E-5;
-2,80319119888293E-5;
-3,07095638514309E-5;
-2,74203203928996E-5;
-2,58778814993473E-5;
-3,19075738392168E-5;
-4,3125473580929E-5;
-4,94717067236951E-5;
-4,06407049700048E-5;
-1,4628579889254E-5;
1,94807208266511E-5;
4,68842111182769E-5;
5,66070760983482E-5;
4,81197352695585E-5;
3,03960408582888E-5;
1,46991592150811E-5;
6,94053070480355E-6;
5,19766080380135E-6;
3,4493458917416E-6;
-2,32026905520375E-6;
-1,08750050997321E-5;
-1,76150441441384E-5;
-1,93537752728853E-5;
-1,74685987028224E-5;
-1,66205424998496E-5;
-2,02524362556121E-5;
-2,69020754735324E-5;
-3,06697251792983E-5;
-2,56539489364693E-5;
-1,08308455664178E-5;
0,00934198277671661;
0,0226539152478741;
0,0164028397692109;
0,00945923988957704;
0,0121866181018923;
0,00703548941911538;
0,00564027261013091;
0,00458729717612462;
0,000844187060870648;
0,00103321582043763;
-0,00119379501608365;
-0,00199862704584985;
-0,00281484958936232;
-0,00456082389425967;
-0,00489432689785673;
-0,00586458868789773;
-0,00595274738350375;
-0,00619568467622699;
-0,0070051356526305;
-0,0079271352389317;
-0,0093486702106116;
-0,0102372336665723;
-0,0105103227254097;
-0,0101005780949194;
-0,00920125130183761;
-0,00842525830020023;
-0,00782605042752321;
-0,00745330857022341;
-0,00704415987008643;
-0,00641526021839046;
-0,00567257357542136;
-0,00495608951207596;
-0,00445119066007487;
-0,00408948141292082;
-0,00366305470208186;
-0,00302588521849513;
-0,00222721418102215;
-0,00157173835516266;
-0,00136124136360897;
-0,00166851455263428;
-0,00223313991384754;
-0,00259769932989818;
-0,00241779949036489;
-0,00166536780705187;
-0,000628274426850949;
0,000317217461738126;
0,000966238735254951;
0,00137875784508833;
0,00176827687656422;
0,00228313416132248;
0,00288090769086552;
0,00338731273171783;
0,00367400348851384;
0,00379192262313041;
0,00393120638770908;
0,00424117711687146;
0,00466484876537389;
0,00494142960722484;
0,004794065600398;
0,0041608019187429;
0,00328403977234286;
0,00257644197085016;
0,00235646018371253;
0,00264916092104444;
0,0031967623978897;
0,00366161521552071;
0,0038592604162245;
0,00384722449813876;
0,00381930954722308;
0,00391140930218388;
0,00408669420037627;
0,00418884290499343;
0,00410375578272962;
0,00387823871579929;
0,00368482626372926;
0,00365882146189867;
0,00374944021106243;
0,00372262326176285;
0,00332978549637029;
0,0025159337574859;
0,00149956016557173;
0,000651828639186085;
0,000258862543678653;
0,000342926648479112;
0,000672391904107248;
0,000944109387517576;
0,000992540587623721;
0,000869160294643922;
0,000747405902273079;
0,000748638199399386;
0,000839411388961878;
0,000879353361096989;
0,000765968982021064;
0,000540691136538837;
0,000357244301383007;
0,000335895863424833;
0,000430596412245887;
0,000431740612848238;
0,000116971692249441;
-0,000563188171624696;
-0,0107478079465419;
-0,0247361169513566;
-0,0187578606102223;
-0,0116647570546591;
-0,0140224365631521;
-0,00854589400884575;
-0,00701433985976708;
-0,00596993284165977;
-0,00222981061598443;
-0,00231105148486836;
0,000104802156341846;
0,00105653057881284;
0,00188769069534672;
0,00355223285695826;
0,00384162733603727;
0,00490968144702973;
0,00519686174861188;
0,00555639453828727;
0,00620510909291376;
0,00664526649386802;
0,00743346924022964;
0,0078258744369296;
0,00796220959602172;
0,00779146559570503;
0,00732523420247127;
0,00693909161555862;
0,00655659472309673;
0,00626685106940511;
0,00594154321620556;
0,00549126409465357;
0,00499521416397931;
0,00448329958246434;
0,0040604243835835;
0,00368998169577097;
0,00328341561413841;
0,00278797407096216;
0,00221655068384181;
0,00171007550976013;
0,00139672009274316;
0,00131047805055129;
0,00134219249392772;
0,00129153362869876;
0,00101186410000308;
0,000489612711511595;
-0,000148856757283519;
-0,00073809903011533;
-0,00118844130547438;
-0,0015246347917344;
-0,00184058903530502;
-0,00220118245612993;
-0,00258760451887369;
-0,0029229785431349;
-0,00315004319447496;
-0,00329136183192141;
-0,00343123497640156;
-0,0036363215958582;
-0,00388165415526552;
-0,00405102813372678;
-0,00402072627320795;
-0,00376274498009581;
-0,0033856704610321;
-0,00307513037311481;
-0,00297507997198175;
-0,00309776661638186;
-0,00332765176682378;
-0,00351261733420561;
-0,00356941364858773;
-0,00352438036741816;
-0,00346599009802523;
-0,00345667173416436;
-0,0034802558112462;
-0,0034658510624727;
-0,00336160400810209;
-0,00318926894503716;
-0,00302845919743041;
-0,00294196752245797;
-0,00290702496214732;
-0,00281610658892364;
-0,0025545129159956;
-0,00209676469023285;
-0,00154419167053638;
-0,00106947554375671;
-0,000806347607621327;
-0,000765958142795821;
-0,000840854563593876;
-0,000889690365141412;
-0,000835090601908321;
-0,000701296103076183;
-0,0005700042323174;
-0,000498664496158301;
-0,000471844742770222;
-0,000423463523430665;
-0,000305095689414993;
-0,000136391084800279;
9,57574149531937E-6;
7,53875176550619E-5;
8,27256590803121E-5;
0,000131495337425211;
0,000328112129758849;
0,000696576892701879;
0,00114395381846068;
0,00151166387575223;
0,0016772044568792;
0,00163110394824818;
0,00147307691066381;
0,00133390415825611;
0,00128536429701883;
0,00130571295971839;
0,00132041188314477;
0,00127727060683028;
0,00119107196016499;
0,00112305720292072;
0,00111817512862299;
0,00115886049888549;
0,00117856316832492;
0,001125138399493;
0,00101894553122899;
0,000951932736308122;
0,0010218754444962;
0,00125099286264839;
0,0015544867450867;
0,00178760804715185;
0,00183872283818063;
0,00169957225155411;
0,00146160392818674;
0,00124450226647648;
0,00111395139987173;
0,00105022637196132;
0,00098546071877184;
0,000872209802228677;
0,000724079607637179;
0,000596950984849294;
0,000531788228812833;
0,000512599268031624;
0,000478830137876106;
0,000383075481368624;
0,000243868733342057;
0,000144751082436219;
0,000174445729246069;
0,000352963413404812;
0,000603154944621732;
0,000793556527757788;
0,000822866819455239;
0,00068359139905182;
0,000458580460673628;
0,000256162918195076;
0,000135654096282233;
7,90034487442416E-5;
2,4623231368003E-5;
-7,05464855655426E-5;
-0,000194340077656369;
-0,000296412541384953;
-0,000339949578598232;
-0,00033960046463112;
-0,00035021453388838;
-0,00041472007023552;
-0,000516539383425156;
-0,000580517117333548;
-0,000526911185323337;
-0,000337951785107087;
-8,33587337335884E-5;
0,000118347269266309;
0,000175909904433774;
8,25260878313919E-5;
-8,73901558536023E-5;
-0,000236605777311405;
-0,000312001901423747;
-0,000329960693220002;
-0,000345907554206275;
-0,000398584345598171;
-0,000477172201173376;
-0,000536642358896763;
-0,000544130426872665;
-0,000512884739257517;
-0,00049211465538415;
-0,00052030291161627;
-0,000582665184325681;
-0,000612061175517754;
-0,000537320304198415;
-0,000342699827540668;
-9,05839795398984E-5;
0,000113162823639342;
0,000187119159867848;
0,000125266281706553;
-6,00925764756862E-6;
-0,00012005370744955;
-0,000169584745414066;
-0,000169231475612404;
-0,000168341161960684;
-0,000201364839084311;
-0,00025865302653773;
-0,00030016447206051;
-0,000296703342428184;
-0,00026004261217663;
-0,00023385142884276;
-0,000252231406295226;
-0,000302013150832739;
-0,00032363830490922;
-0,00025404359715422;
-7,93163736888053E-5;
0,00014529112046747;
0,000326121966719391;
0,000391239622227907;
0,000335438007878488;
0,000217489713090872;
0,000114003439899725;
6,67536456815907E-5;
6,28479405785365E-5;
5,87928876481806E-5;
2,42740067229849E-5;
-3,21359494734675E-5;
-7,51118500695841E-5;
-7,89165670618143E-5;
-5,38875731770137E-5;
-3,83996463530542E-5;
-6,23737867227713E-5;
-0,000114166929847599;
-0,000141415517341727;
-8,87435909636355E-5;
5,60368418310771E-5;
0,000244446830572827;
0,00039440118176533;
0,000442936356935136;
0,000385590832005684;
0,000273900688094004;
0,000174944424158669;
0,000125267277278241;
0,000113600740755198;
0,000101961424609734;
6,3913956806183E-5;
6,98179626024067E-6;
-3,79937230058203E-5;
-4,85688148261919E-5;
-3,37568523282442E-5;
-2,69745228069234E-5;
-5,42409542924423E-5;
-0,000105390379621539;
-0,000134870236074436;
-9,45706482788318E-5;
2,60464509699802E-5;
0,000184842302390707;
0,00031057294663862;
0,000348662565707531;
0,000295302828314726;
0,000195193199304589;
0,000106432524285813;
6,06299673826746E-5;
4,80100510244541E-5;
3,57220893679697E-5;
9,31331482141684E-7;
-4,98541184435507E-5;
-9,00192466229444E-5;
-0,000100227201511556;
-8,82770241255511E-5;
-8,2975461957052E-5;
-0,000106722207091344;
-0,000150757127799796;
-0,000175908126329164;
-0,000140861727597173;
-3,66300152081696E-5;
0,000100549223347896;
0,000209521909803563;
0,000243507418327231;
0,000199284659544908;
0,000115170750812166;
4,08965858201051E-5;
3,47326626367356E-6;
-5,49107644143076E-6;
-1,40821475002209E-5;
-4,17963175528506E-5;
-8,30744918498468E-5;
-0,000115228079024025;
-0,000121803068052238;
-0,000109470537278245;
-0,000102762276562266;
-0,000120724188474689;
-0,000155898625709823;
-0,000175019100723562;
-0,000143055693886813;
-5,24439900985879E-5;
6,60465600420436E-5;
0,000160597178173544;
0,000191633823144448;
0,000156478590362426;
8,75575163283324E-5;
2,68840623022155E-5;
-2,76298307740031E-6;
-8,4880825116647E-6;
-1,39740034191589E-5;
-3,56325101010237E-5;
-6,87710714152512E-5;
-9,43075372266941E-5;
-9,84303486463944E-5;
-8,67610400681105E-5;
-7,98892213738301E-5;
-9,37691298360453E-5;
-0,000122132566577392;
-0,000137128997953834;
-0,000109486312243081;
-3,29324131156381E-5;
6,67943036222802E-5;
0,00014644728584858;
0,000173065386968176;
0,000144471836537642;
8,76997964758354E-5;
3,77021752077103E-5;
1,33925698386589E-5;
8,85380715203281E-6;
4,43791315174041E-6;
-1,34411219278862E-5;
-4,08780930732666E-5;
-6,20801921158304E-5;
-6,56423823275627E-5;
-5,6221416092284E-5;
-5,08044979950667E-5;
-6,25227592407819E-5;
-8,61903611819861E-5;
-9,88897351183141E-5;
-7,65889698238541E-5;
-1,41858757857027E-5;
6,71672461471874E-5;
0,000132027395181283;
0,000153448031924888;
0,000129705410258371;
8,2928990012618E-5;
4,16568834668726E-5;
2,1294204534502E-5;
1,70035503726459E-5;
1,27988044565831E-5;
-2,34404789029724E-6;
-2,52355127623349E-5;
-4,30652141994021E-5;
-4,66084236833885E-5;
-3,96479843566897E-5;
-3,59109270162374E-5;
-4,59763228975495E-5;
-6,56406391486723E-5;
-7,64488443034482E-5;
-5,91053841187304E-5;
-9,56372697331854E-6;
5,51663389197457E-5;
0,000106684812310278;
0,00012346823044118;
0,000104195698638427;
6,65701313283978E-5;
3,33449167074025E-5;
1,67628092386151E-5;
1,29575223637181E-5;
9,2369719752197E-6;
-3,1210352170158E-6;
-2,15744823896115E-5;
-3,59972761737158E-5;
-3,9125862264341E-5;
-3,39594155085308E-5;
-3,12996356071627E-5;
-3,94382394550646E-5;
-5,50567275679827E-5;
-6,3704880847453E-5;
-5,0333850306323E-5;
-1,18423510295207E-5;
3,84709074010428E-5;
7,85106074531977E-5;
9,16033931081829E-5;
7,67842679259647E-5;
4,77939618290358E-5;
2,22130834158216E-5;
9,45829330034856E-6;
6,53030662912108E-6;
3,67659497130029E-6;
-5,77304070683081E-6;
-1,98562093850417E-5;
-3,08413188520731E-5;
-3,32128007688609E-5;
-2,92715886540881E-5;
-2,72150904792768E-5;
-3,33006354994042E-5;
-4,49988009378688E-5;
-5,14214586463629E-5;
-4,12936234445569E-5;
-1,2351688802991E-5;
2,5403442309858E-5;
5,54736865213439E-5;
6,54879558566139E-5;
5,47947008954074E-5;
3,36204034965907E-5;
1,49616689294262E-5;
5,73297845665984E-6;
3,70384299337425E-6;
1,72354288167376E-6;
-5,06339942636224E-6;
-1,52075364742069E-5;
-2,3093166246645E-5;
-2,47476781402708E-5;
-2,18541435044459E-5;
-2,03108541312186E-5;
-2,45807028864083E-5;
-3,28304407715285E-5;
-3,73108924685989E-5;
-3,00697020523889E-5;
-9,57805334653667E-6;
0,00935050208873835;
0,0226680252032145;
0,0164182524874064;
0,00947144643905297;
0,0121933310835553;
0,00703742197850105;
0,00563983348105056;
0,00458637974989245;
0,000842845805686506;
0,00103017145356928;
-0,00119946971870849;
-0,00200627106400242;
-0,00282259874266796;
-0,00456728317431837;
-0,00489995143566266;
-0,00587133154012603;
-0,00596200745285584;
-0,00620618312152134;
-0,00701266612177789;
-0,00792678726187914;
-0,00933812795119907;
-0,0102187295309912;
-0,0104896822016588;
-0,0100839290139829;
-0,00919172214324221;
-0,00842195996889942;
-0,00782584261256966;
-0,00745373185198289;
-0,00704516076766362;
-0,00641851351148497;
-0,00567929112182152;
-0,00496543872011081;
-0,0044608036115564;
-0,00409758907178309;
-0,00367022442534811;
-0,00303456098007225;
-0,00223914084362373;
-0,0015853281895101;
-0,00137128677929896;
-0,00166894604700466;
-0,00222107166774901;
-0,00257579494294651;
-0,00239308605895054;
-0,00164523993622054;
-0,00061652072569478;
0,000321618946726562;
0,000966994142779014;
0,00137876423681833;
0,00176758574909552;
0,00227976335193687;
0,00287342384864095;
0,00337667932549767;
0,00366297551765035;
0,00378255664606687;
0,00392284934687069;
0,00423100915756967;
0,00465086007419941;
0,0049254431351706;
0,00478205224371358;
0,00415971528140601;
0,00329720350899939;
0,00260087234476367;
0,00238422708330087;
0,00267191606624508;
0,00321021813232696;
0,00366688843052314;
0,00386047619963789;
0,00384760378544454;
0,00381890106729608;
0,00390800174539134;
0,00407868882250679;
0,00417729813346639;
0,0040917104732759;
0,00386796038363597;
0,00367559960256673;
0,00364755249467159;
0,00373392585828596;
0,00370485666200244;
0,003316290626234;
0,0025143053200851;
0,0015134425920334;
0,000678015555335058;
0,000288783796843675;
0,000367556206305591;
0,000687085209149624;
0,000950045252919554;
0,000994134116721194;
0,000869856422117592;
0,000747250011031927;
0,000745258681715175;
0,000831093514044841;
0,000867219126374224;
0,000753250612603823;
0,00052979997281172;
0,000347423331103408;
0,000323866159091178;
0,000414024474539121;
0,000412732895667847;
0,000102421254399013;
-0,000565258299482055;
-0,010733535311134;
-0,0247088458429657;
-0,0187265718850385;
-0,0116389136939656;
-0,0140069157877686;
-0,00853948352185252;
-0,00701244659682962;
-0,00596897467287906;
-0,00222974591445571;
-0,00231435217092278;
9,63484464561184E-5;
0,00104408225817459;
0,00187459483572651;
0,00354098634600484;
0,00383144925126666;
0,00489718524644443;
0,00517963803885466;
0,00553661386100497;
0,0061898741934798;
0,0066428443229081;
0,00744785095608882;
0,00785365061052958;
0,00799418651503954;
0,00781795123986521;
0,00734122612776518;
0,00694581140297263;
0,00655871708740074;
0,00626802071905165;
0,00594179775029598;
0,00548808297104376;
0,00498677399748281;
0,00447077197804769;
0,00404720388063333;
0,00367860069904262;
0,00327308452214924;
0,00277526503128355;
0,00219902517776786;
0,00168992604613831;
0,0013811226024793;
0,00130778539703642;
0,00135644775537165;
0,00131932395533414;
0,00104395153986093;
0,000516253571555097;
-0,000132698318672744;
-0,000731212449252353;
-0,00118615195384477;
-0,00152329871939742;
-0,00184017282206282;
-0,0022042112647115;
-0,00259590582411711;
-0,00293538714112552;
-0,00316317415341398;
-0,00330268963157425;
-0,0034415450291039;
-0,00364902695377463;
-0,00389918285875315;
-0,00407120126710297;
-0,00403641008166107;
-0,00376563430213593;
-0,00337173548715924;
-0,00304773580782939;
-0,00294336628979309;
-0,00307137995266216;
-0,00331158393132432;
-0,00350568551826355;
-0,00356701166463425;
-0,00352291799424478;
-0,00346543813932227;
-0,00345952304300042;
-0,00348831534251104;
-0,00347797628602166;
-0,00337446722069776;
-0,00320038690525424;
-0,00303860242187748;
-0,00295448749181753;
-0,00292430620790629;
-0,00283601333301513;
-0,00257004956934618;
-0,00209978506809927;
-0,00153073375861836;
-0,00104281357171517;
-0,000775407433904813;
-0,000740164814048459;
-0,000825091594794873;
-0,000882816222052799;
-0,000832623691572356;
-0,000699743459599404;
-0,000569340839104526;
-0,000501320417565967;
-0,000479580423103515;
-0,000435172350960328;
-0,000317546201835935;
-0,000147171346178791;
-2,81147247578557E-7;
6,32023738959553E-5;
6,58982968671468E-5;
0,000112094305680318;
0,000312916463666484;
0,000693482856814075;
0,00115681081426928;
0,0015373221265096;
0,00170704760380349;
0,00165602825935255;
0,00148835946756373;
0,00134063460030962;
0,00128785448696459;
0,00130732360964913;
0,00132116395487112;
0,00127482146171509;
0,00118372347385813;
0,00111186953941425;
0,00110625226018293;
0,00114851979363903;
0,00116908835945873;
0,00111340832698798;
0,00100273846103109;
0,000933230814752794;
0,00100717863927551;
0,00124787489864591;
0,00156664837245719;
0,00181205045224552;
0,0018672140363471;
0,00172340908415999;
0,00147626561427881;
0,00125101850076348;
0,00111642905081345;
0,00105186655039943;
0,000986280513198768;
0,000869973391367806;
0,000717165235914889;
0,000586364263603629;
0,000520481346508911;
0,000502776913445568;
0,00046981204453402;
0,000371894711397561;
0,00022841261649248;
0,000126900586793711;
0,00016037342289482;
0,000349864257119621;
0,000614552879266766;
0,000816623573873123;
0,000849812415290565;
0,000706173527639438;
0,000472512399619176;
0,000262408629218625;
0,000138088960661241;
8,06484272150129E-5;
2,54917666668251E-5;
-7,2568683872296E-5;
-0,000200787699536925;
-0,000306340485291189;
-0,000350575565439495;
-0,000348846018595065;
-0,000358719929934719;
-0,000425280357127126;
-0,000531145628530274;
-0,000597400417329865;
-0,000540262119938391;
-0,000340995835663519;
-7,2769921174076E-5;
0,000139925830735446;
0,000201170380688313;
0,000103731647356318;
-7,42687770796759E-5;
-0,000230674159888647;
-0,000309634918303928;
-0,000328332103135887;
-0,000345007298919337;
-0,000400394596491244;
-0,000483132846434606;
-0,000545872888887446;
-0,000554031168223374;
-0,000521512927807323;
-0,000500067824675909;
-0,00053019190010592;
-0,00059635068657759;
-0,000627893833429876;
-0,000549878538653809;
-0,000345658463794926;
-8,08299739460462E-5;
0,000133180182254334;
0,000210602287544084;
0,00014501310066278;
6,24538160059641E-6;
-0,000114468476850098;
-0,000167306087006506;
-0,000167637214283129;
-0,000167424335179746;
-0,000202968528641136;
-0,000264117182708183;
-0,000308675612952011;
-0,000305852374124799;
-0,000268028481189977;
-0,000241227236758062;
-0,000261416126864843;
-0,000314731618734059;
-0,00033836521596652;
-0,000265760310100234;
-8,2164825257648E-5;
0,000154201460730099;
0,000344540211835797;
0,000412894043756092;
0,000353678311887331;
0,000228842862055096;
0,000119219897119235;
6,89277323465461E-5;
6,43929154918699E-5;
5,97129171067921E-5;
2,28689557895257E-5;
-3,7103200910257E-5;
-8,28958957384965E-5;
