-9,83144128851E-7;
-2,60222086552738E-6;
-3,25980126257381E-6;
-2,87544815872886E-6;
-1,92678318783566E-6;
-1,05760161997944E-6;
-6,28304668672757E-7;
-5,43809575069981E-7;
-4,50554176009672E-7;
-9,82961190492469E-8;
4,46939614975565E-7;
8,99504699401845E-7;
1,04698751788523E-6;
9,63596324302618E-7;
9,48336029425133E-7;
1,23862836055424E-6;
1,75051007889579E-6;
2,0819362391982E-6;
1,79896938715197E-6;
7,86799201540746E-7;
-6,14550577982439E-7;
-1,80537820284478E-6;
-2,31057203988647E-6;
-2,06777581141847E-6;
-1,41546713930506E-6;
-8,11877845378545E-7;
-5,14201099486803E-7;
-4,56715022638407E-7;
-3,90871851920204E-7;
-1,40752155742212E-7;
2,47675871066311E-7;
5,7489022527822E-7;
6,92367624438236E-7;
6,50470010030663E-7;
6,54964023532804E-7;
8,69307445309146E-7;
1,23671665963949E-6;
1,48316794185359E-6;
1,31250968729399E-6;
6,4384755693226E-7;
-2,97756089259473E-7;
-1,11264517042499E-6;
-1,48267200889948E-6;
-1,36160423920185E-6;
-9,66607723169684E-7;
-5,93961420255393E-7;
-4,10720221286077E-7;
-3,76659700859364E-7;
-3,34723973534002E-7;
-1,7375905562079E-7;
7,7709410319811E-8;
2,95140538895414E-7;
3,85667098642646E-7;
3,78981302013988E-7;
3,9982108059893E-7;
5,47348216878771E-7;
7,88334466274407E-7;
9,59897472612696E-7;
8,85563656205306E-7;
5,14069134850811E-7;
-2,89643218696688E-8;
-5,17126851012485E-7;
-7,68338788923965E-7;
-7,50621976999948E-7;
-5,76514227805784E-7;
-4,02456360290131E-7;
-3,17605959459918E-7;
-3,03629635922711E-7;
-2,8231633498229E-7;
-1,98345064910828E-7;
-6,52422993769136E-8;
5,70245974883194E-8;
1,23541232324511E-7;
1,46289081948781E-7;
1,8037857448785E-7;
2,69692786500763E-7;
4,01183801036273E-7;
5,07374821834417E-7;
5,14577958998823E-7;
3,97155200021671E-7;
1,95719867220876E-7;
-1,16327065144216E-8;
-1,59425271362681E-7;
-2,28167701503516E-7;
-2,41255415675773E-7;
-2,35823046048495E-7;
-2,34503442514892E-7;
-2,37518919258755E-7;
-2,33777706622203E-7;
-2,15506492744808E-7;
-1,83492456897292E-7;
-1,42777727591569E-7;
-9,74649162703764E-8;
-5,05463300295571E-8;
-5,99341796204284E-9;
3,31476330983505E-8;
7,08914842778103E-8;
1,20611502110564E-7;
1,95789050145594E-7;
2,92684429755613E-7;
3,80210319279667E-7;
4,111708603474E-7;
3,52418856277867E-7;
2,1261187076928E-7;
4,32448536664445E-8;
-9,24212513897296E-8;
-1,60982564527502E-7;
-1,78154873673215E-7;
-1,89173569779996E-7;
-2,26194971533165E-7;
-2,79344638959557E-7;
-3,07608040921595E-7;
-2,80841574794697E-7;
-2,14507698860471E-7;
-1,61977054172281E-7;
-1,65556535317552E-7;
-2,07025557033978E-7;
-2,05508021826788E-7;
-7,46942889415054E-8;
2,00136064985988E-7;
5,28378870578095E-7;
7,58630343668263E-7;
7,75591878200362E-7;
5,78633806354331E-7;
2,81130484844688E-7;
2,94482897492229E-8;
-9,65539697317736E-8;
-1,2529887870719E-7;
-1,48512161669079E-7;
-2,31311842636582E-7;
-3,5505543642221E-7;
-4,40772458635257E-7;
-4,30061537009998E-7;
-3,48573754635523E-7;
-2,9025883306555E-7;
-3,29698340469423E-7;
-4,3706463554848E-7;
-4,7613343259433E-7;
-3,00819716051736E-7;
1,18913718781173E-7;
6,44003044515249E-7;
1,03799233313726E-6;
1,11841110897993E-6;
8,76773384761275E-7;
4,76541304009709E-7;
1,31517861542856E-7;
-4,06806737791513E-8;
-7,86706516114919E-8;
-1,11747799879768E-7;
-2,31696928540675E-7;
-4,12821571750368E-7;
-5,45508845021921E-7;
-5,4852657493594E-7;
-4,55666397501627E-7;
-3,93485473889371E-7;
-4,62523631524844E-7;
-6,2368657238341E-7;
-6,96372803233771E-7;
-4,86521770793896E-7;
4,83672768043363E-8;
7,30728820867752E-7;
1,2563167204256E-6;
1,38900483755129E-6;
1,11376278644469E-6;
6,33551341544368E-7;
2,15516121982389E-7;
7,20273184025326E-9;
-3,79465591336246E-8;
-7,87960199470003E-8;
-2,28131819575614E-7;
-4,54737797345766E-7;
-6,24934999105374E-7;
-6,39534118647291E-7;
-5,38629914802885E-7;
-4,74240198375914E-7;
-5,67200068496277E-7;
-7,71243417144504E-7;
-8,71223723332173E-7;
-6,35671026592576E-7;
-1,21927812868986E-8;
7,92031234103213E-7;
1,42040107160755E-6;
1,59522509577364E-6;
1,29612608291294E-6;
7,5612749168611E-7;
2,8314901556217E-7;
4,76801049183622E-8;
-2,77986040678842E-9;
-4,95353842065707E-8;
-2,21333493861508E-7;
-4,82798063728385E-7;
-6,82037092630006E-7;
-7,06246144601028E-7;
-6,00191629827814E-7;
-5,35005936918811E-7;
-6,46785279512784E-7;
-8,83948079544932E-7;
-1,00552693449179E-6;
-7,52030819835521E-7;
-6,34814621720705E-8;
8,3119490014792E-7;
1,53672672751904E-6;
1,74457968687873E-6;
1,43011183734294E-6;
8,48084733831129E-7;
3,36078962287529E-7;
8,13450989513568E-8;
2,71986824612611E-8;
-2,38149400855947E-8;
-2,1194884484E-7;
-4,98872344107089E-7;
-7,19641502337517E-7;
-7,516615309776E-7;
-6,42945881643467E-7;
-5,78154647129533E-7;
-7,04203454808953E-7;
-9,65822705928935E-7;
-1,10390913190011E-6;
-8,39219808814778E-7;
-1,06226642807126E-7;
8,5129577136926E-7;
1,61141347124615E-6;
1,84417697824761E-6;
1,52165449996379E-6;
9,13060525927292E-7;
3,75906130995336E-7;
1,08789979363289E-7;
5,23718136929982E-8;
-1,45777184181938E-9;
-2,00562176037144E-7;
-5,04703681988948E-7;
-7,40394391955078E-7;
-7,78601685373347E-7;
-6,69342481020166E-7;
-6,05924855573284E-7;
-7,42219147611125E-7;
-1,02068195730236E-6;
-1,17076509435407E-6;
-9,00688171435841E-7;
-1,41157815288002E-7;
8,55187058653949E-7;
1,65018719465461E-6;
1,90068904334749E-6;
1,57633359507887E-6;
9,54485409506134E-7;
4,04160951788379E-7;
1,30601142926587E-7;
7,31244017635075E-8;
1,77261352767758E-8;
-1,87696479206052E-7;
-5,01902163022131E-7;
-7,46759188803513E-7;
-7,89694802677344E-7;
-6,81663484729178E-7;
-6,20415172914112E-7;
-7,63430490794103E-7;
-1,05211232369356E-6;
-1,21023175039278E-6;
-9,39690631556638E-7;
-1,68994267918705E-7;
8,45493784735862E-7;
1,65836588026298E-6;
1,92032507247817E-6;
1,59935326500175E-6;
9,75577911877203E-7;
4,22291454002789E-7;
1,47345342310007E-7;
8,98427721046313E-8;
3,39454371145475E-8;
-1,73808164703082E-7;
-4,91940439321886E-7;
-7,4100682078252E-7;
-7,87374625132093E-7;
-6,82028271278349E-7;
-6,23574933693174E-7;
-7,70255460641356E-7;
-1,06344930271415E-6;
-1,22616167238245E-6;
-9,59279044950037E-7;
-1,90440855108405E-7;
8,24612440906081E-7;
1,64084214707909E-6;
1,90881688459366E-6;
1,59552947183124E-6;
9,79322120327972E-7;
4,31655898581147E-7;
1,59576448711603E-7;
1,02908772692536E-7;
4,74131034451298E-8;
-1,59296450363555E-7;
-4,76155627809509E-7;
-7,25214673771761E-7;
-7,73871033951725E-7;
-6,72380996301684E-7;
-6,17199258927734E-7;
-7,64926013576744E-7;
-1,05777969911104E-6;
-1,22212392426441E-6;
-9,6228566321624E-7;
-2,06179348934184E-7;
7,94711551328445E-7;
1,6020876997893E-6;
1,87141602984193E-6;
1,56928451964341E-6;
9,68468290549495E-7;
4,33515269659857E-7;
1,67819360546536E-7;
1,12695042645542E-7;
5,83494823628184E-8;
-1,44504137366324E-7;
-4,55752605195244E-7;
-7,01265814746368E-7;
-7,5121203592852E-7;
-6,54499332785798E-7;
-6,02930846636423E-7;
-7,49484989915483E-7;
-1,03793187519058E-6;
-1,20139453022924E-6;
-9,51323733309131E-7;
-2,16861502016633E-7;
7,57736661038187E-7;
1,54615077674443E-6;
1,81289295677595E-6;
1,52464083472606E-6;
9,45530969928571E-7;
4,29038963200112E-7;
1,72571183309597E-7;
1,19560395761782E-7;
6,69740179141849E-8;
-1,29725467578502E-7;
-4,31806656831449E-7;
-6,70858330631768E-7;
-7,21230658907423E-7;
-6,29985896885112E-7;
-5,822601535992E-7;
-7,25793464159038E-7;
-1,00648147425466E-6;
-1,16695790022263E-6;
-9,28781582632973E-7;
-2,23109687722458E-7;
7,15417708317256E-7;
1,4766694811049E-6;
1,73754542349214E-6;
1,465236514813E-6;
9,1279245473299E-7;
4,19297696914116E-7;
1,7430267286976E-7;
1,23850128593208E-7;
7,35087459272601E-8;
-1,15200427984782E-7;
-4,05266804763663E-7;
-6,35503536337334E-7;
-6,8556677616421E-7;
-6,00279655897747E-7;
-5,56524917897532E-7;
-6,95527456901977E-7;
-9,65751467645202E-7;
-1,12151261920709E-6;
-8,96830859812119E-7;
-2,25508791267946E-7;
6,69278661121427E-7;
1,39688111985743E-6;
1,6492143389231E-6;
1,39433020449737E-6;
8,72303182669945E-7;
4,05262160707126E-7;
1,73451848332241E-7;
1,25889509343546E-7;
7,81648946532728E-8;
-1,01128154640421E-7;
-3,7696652187283E-7;
-5,96538553332048E-7;
-6,4567452693045E-7;
-5,66664935308526E-7;
-5,26920521385076E-7;
-6,60184858081034E-7;
-9,17824001935741E-7;
-1,06747794491114E-6;
-8,57423276391499E-7;
-2,24603752859378E-7;
6,206509901601E-7;
1,30964930075806E-6;
1,55130432198088E-6;
1,31481394040168E-6;
8,25894474592382E-7;
3,87811930735042E-7;
1,70423767117894E-7;
1,25987430716264E-7;
8,11530980694211E-8;
-8,76676287083692E-8;
-3,47627646806566E-7;
-5,55133929775945E-7;
-6,02828907521837E-7;
-5,30266906570431E-7;
-4,94504615174966E-7;
-6,21093441379278E-7;
-8,64543881339126E-7;
-1,00700444543446E-6;
-8,12307009142329E-7;
-2,20907707942565E-7;
5,70681744358518E-7;
1,21747563208191E-6;
1,44680376122673E-6;
1,22923913079457E-6;
7,75187610216265E-7;
3,67733664185628E-7;
1,65589425056551E-7;
1,24429483995967E-7;
8,26745426717675E-8;
-7,4940366968684E-8;
-3,17866443919343E-7;
-5,1230348151363E-7;
-5,58144124328883E-7;
-4,92071347085596E-7;
-4,60203803551651E-7;
-5,79423556954909E-7;
-8,07537310281427E-7;
-9,41989276674897E-7;
-7,6302594105088E-7;
-2,14884027093227E-7;
5,20347300517723E-7;
1,12252204236792E-6;
1,33830757896583E-6;
1,13982396940458E-6;
7,21600084447098E-7;
3,45724176475917E-7;
1,59291266444969E-7;
1,21484678111203E-7;
8,29173137366321E-8;
-6,30372163076216E-8;
-2,8820435631284E-7;
-4,68919030285437E-7;
-5,12580592089482E-7;
-4,52930359075466E-7;
-4,24817354150407E-7;
-5,36188510775734E-7;
-7,48220907264932E-7;
-8,74085543703938E-7;
-7,10940186288891E-7;
-2,06965724737633E-7;
4,70470134423358E-7;
1,02663936165304E-6;
1,22804700824688E-6;
1,0484855148568E-6;
6,66362979718899E-7;
3,22396802513426E-7;
1,51833308755316E-7;
1,17395374443187E-7;
8,20644238697556E-8;
-5,20194719188523E-8;
-2,59076067632068E-7;
-4,25711666279048E-7;
-4,66946008954578E-7;
-4,13566050461417E-7;
-3,89037470735959E-7;
-4,92263974691071E-7;
-6,87812902759591E-7;
-8,04723437542895E-7;
-6,57225630329155E-7;
-1,97538485700053E-7;
4,21728981555349E-7;
9,3138838309942E-7;
1,11791261373567E-6;
9,56856995175148E-7;
6,10532717228075E-7;
2,98286948742401E-7;
1,4349610149135E-7;
1,12385792495799E-7;
8,02828436124609E-8;
-4,19232554417004E-8;
-2,30834416148306E-7;
-3,83294045932965E-7;
-4,21926017369773E-7;
-3,74591566137221E-7;
-3,53443232567101E-7;
-4,48389919841117E-7;
-6,27351576643645E-7;
-7,35121304450855E-7;
-6,02897222318473E-7;
-1,86953432006258E-7;
3,74672287083175E-7;
8,38065924466425E-7;
1,00948829637723E-6;
8,66306085892016E-7;
5,55003039586415E-7;
2,73854074792E-7;
1,34520832470424E-7;
1,06658392496415E-7;
7,77279231604894E-8;
-3,27657453003211E-8;
-2,03761741581908E-7;
-3,42164534288568E-7;
-3,78079347638054E-7;
-3,36512805623656E-7;
-3,18519652887496E-7;
-4,05186647638024E-7;
-5,6770879437097E-7;
-6,66305323085011E-7;
-5,48814188806059E-7;
-1,75523283720326E-7;
3,29733735555045E-7;
7,47722992256402E-7;
9,0406859893125E-7;
7,77967321306082E-7;
5,00519127128109E-7;
2,49491864683331E-7;
1,25126525581117E-7;
1,00395191414098E-7;
7,45458412680605E-8;
-2,45449444774701E-8;
-1,78076539914613E-7;
-3,02723108695508E-7;
-3,35857586446333E-7;
-2,99735912916443E-7;
-2,84664287902232E-7;
-3,63167293213315E-7;
-5,09603096160852E-7;
-5,99128151588485E-7;
-4,95696537884822E-7;
-1,63523282434544E-7;
2,87241525772555E-7;
6,6120181146363E-7;
8,02701318707358E-7;
6,92756538651677E-7;
4,47689010650286E-7;
2,25525750237019E-7;
1,15502337492147E-7;
9,37579966295619E-8;
7,08667191212631E-8;
-1,72432934439335E-8;
-1,53937884800812E-7;
-2,65273975097963E-7;
-2,95616137140055E-7;
-2,64588086391182E-7;
-2,52191406230436E-7;
-3,22742860646569E-7;
-4,53616672966834E-7;
-5,34275178816635E-7;
-4,44132603275351E-7;
-1,51200567201883E-7;
2,47432643722633E-7;
5,79146198206021E-7;
7,06196732979034E-7;
6,11395385860968E-7;
3,97000901675937E-7;
2,02227981648008E-7;
1,05811801174614E-7;
8,68892852822105E-8;
6,68100661375352E-8;
-1,08314162410838E-8;
-1,31456661686738E-7;
-2,30046674335676E-7;
-2,57620170574438E-7;
-2,31314234106884E-7;
-2,21347191151257E-7;
-2,84233296110743E-7;
-4,00203628030659E-7;
-4,72294802460731E-7;
-3,94598317427384E-7;
-1,38760055378328E-7;
2,10468835637062E-7;
5,02029603766663E-7;
6,15166186877678E-7;
5,34432989736734E-7;
3,48833445635527E-7;
1,79818330174211E-7;
9,61935405327906E-8;
7,99126680675168E-8;
6,24833184488455E-8;
-5,26950240177273E-9;
-1,10698739687685E-7;
-1,97197282959972E-7;
-2,22061147867574E-7;
-2,00095087872388E-7;
-1,92313720150477E-7;
-2,47883126533687E-7;
-3,49711173064141E-7;
-4,1360134711919E-7;
-3,47461932632422E-7;
-1,26385140124987E-7;
1,76434877203536E-7;
4,30174434919288E-7;
5,30041826058112E-7;
4,62266233497247E-7;
3,03466328933464E-7;
1,58467791336812E-7;
8,67663045292892E-8;
7,29360937459094E-8;
5,79810041176377E-8;
-5,11771851444945E-10;
-9,1696615432212E-8;
-1,66823929579433E-7;
-1,89061804258486E-7;
-1,71051087965482E-7;
-1,65216119193363E-7;
-2,1386229668783E-7;
-3,02388281685156E-7;
-3,58499315012989E-7;
-3,02999955813604E-7;
-1,14226571802663E-7;
1,45363480405718E-7;
3,63776633170287E-7;
4,5109748316284E-7;
3,95158462908694E-7;
2,61095983014634E-7;
1,3830236800737E-7;
7,76261457570622E-8;
6,60514976078086E-8;
5,33857957264875E-8;
3,49399110347483E-9;
-7,44464284379496E-8;
-1,38968124528518E-7;
-1,58687791381492E-7;
-1,44250423359551E-7;
-1,40131337538454E-7;
-1,82282817122135E-7;
-2,58397059796914E-7;
-3,07190580693766E-7;
-2,61408754363295E-7;
-1,02412034539006E-7;
1,17231396292631E-7;
3,02914420183454E-7;
3,78473034253584E-7;
3,33252626822955E-7;
2,21843781831042E-7;
1,19418960472123E-7;
6,88486697016491E-8;
5,93339621986281E-8;
4,87718624298083E-8;
6,80326491032128E-9;
-5,8919143120731E-8;
-1,13629167816347E-7;
-1,30955859839805E-7;
-1,19717528927091E-7;
-1,170948698874E-7;
-1,53200682191562E-7;
-2,17828426497695E-7;
-2,59794828492572E-7;
-2,22811286295314E-7;
-9,10436946734734E-8;
9,19813152361173E-8;
2,47576132986554E-7;
3,121930078899E-7;
2,76601749814873E-7;
1,85766496888202E-7;
1,018736787188E-7;
6,04994730332758E-8;
5,28489393266542E-8;
4,42022896209407E-8;
9,47632436165118E-9;
-4,5067421294737E-8;
-9,07701525861995E-8;
-1,05840181286222E-7;
-9,74421374586459E-8;
-9,61093569678491E-8;
-1,26632141795855E-7;
-1,80707372919063E-7;
-2,16350989626841E-7;
-1,87270291965852E-7;
-8,02048885084927E-8;
6,95148092022232E-8;
1,97669011965311E-7;
2,52189030316368E-7;
2,25167835351628E-7;
1,52865544024173E-7;
8,57008844129457E-8;
5,26236509140864E-8;
4,66439234493065E-8;
3,97287469796927E-8;
1,15699943268744E-8;
-3,28241615347904E-8;
-7,03228006753693E-8;
-8,32824359845263E-8;
-7,73789936247814E-8;
-7,71436669364687E-8;
-1,02548503809655E-7;
-1,47006069770966E-7;
-1,76840271660248E-7;
-1,54793065853569E-7;
-6,99549063905904E-8;
4,9715056495772E-8;
1,53037043250493E-7;
1,98306660349885E-7;
1,78844030780279E-7;
1,23099281531335E-7;
7,090585423112E-8;
4,52518614332958E-8;
4,07605778776E-8;
3,53956571012871E-8;
1,31435818070413E-8;
-2,21077091571024E-8;
-5,21911419452876E-8;
-6,31941258428316E-8;
-5,94624872483014E-8;
-6,01438095691107E-8;
-8,08934163995628E-8;
-1,16654014073475E-7;
-1,41188369528487E-7;
-1,25345692331808E-7;
-6,03425628100865E-8;
3,24384149402191E-8;
1,13471407939646E-7;
1,50333822158132E-7;
1,3747141131933E-7;
9,63855593021399E-8;
5,7477982117904E-8;
3,8408697214769E-8;
3,522705991999E-8;
3,12389242516113E-8;
1,42551804696638E-8;
-1,28291428823646E-8;
-3,62661108202928E-8;
-4,54663320027652E-8;
-4,36009615087344E-8;
-4,50368943762318E-8;
-6,15851917956861E-8;
-8,95428931329696E-8;
-1,09280175388022E-7;
-9,88557558076755E-8;
-5,13957242912432E-8;
1,75296198657888E-8;
7,8723108468737E-8;
1,08003317932665E-7;
1,00839334423156E-7;
7,26111290142453E-8;
4,53844145319872E-8;
3,21017634154659E-8;
3,00640754863616E-8;
2,72873673895538E-8;
1,49621555394908E-8;
-4,89152417550936E-9;
-2,24224660049175E-8;
-2,99733733248171E-8;
-2,96914730534693E-8;
-3,17346034040966E-8;
-4,45206352616218E-8;
-6,55348036040943E-8;
-8,0965316862923E-8;
-7,5221321426425E-8;
-4,31312071208977E-8;
4,82172946189123E-9;
4,85115172950307E-8;
7,10089373618219E-8;
6,87096267575157E-8;
5,16447122790565E-8;
3,45847062939042E-8;
2,63355995655699E-8;
2,52824805342848E-8;
2,35612222986243E-8;
1,5315710296418E-8;
1,80613338939104E-9;
-1,05197997495842E-8;
-1,6576154804537E-8;
-1,76187894341793E-8;
-2,01337138886263E-8;
-2,95808218261192E-8;
-4,4472642913187E-8;
-5,60657251840393E-8;
-5,43167259277617E-8;
-3,55557448805027E-8;
-5,85658284572673E-9;
2,25395865889976E-8;
3,90188705817603E-8;
4,08108041482392E-8;
3,33295140788125E-8;
2,50200601374828E-8;
2,11028636453926E-8;
2,08913086056288E-8;
2,0077086171205E-8;
1,53676085925641E-8;
7,36757017548423E-9;
-4,18889847847892E-10;
-5,12961218231809E-9;
-7,2596305435095E-9;
-1,01281865782624E-8;
-1,66369070188193E-8;
-2,61798150399715E-8;
-3,43841304906641E-8;
-3,5998136357583E-8;
-2,86653206858766E-8;
-1,46791420943039E-8;
4,94362457905052E-10;
1,16832532499299E-8;
1,68600235982261E-8;
1,74978797522323E-8;
1,66303272504527E-8;
1,63935267245124E-8;
1,68868627541453E-8;
1,68455893858923E-8;
1,51647569200383E-8;
1,18961825791594E-8;
8,02923486255173E-9;
4,51719278959692E-9;
1,51334912335006E-9;
-1,6017464929008E-9;
-5,54956541508934E-9;
-1,04699386311053E-8;
-1,5710941988833E-8;
-2,01088025966703E-8;
-2,24433062186795E-8;
-2,1817795982977E-8;
-1,79464025964681E-8;
-1,13621008499786E-8;
-3,43916271625057E-9;
3,97696956157131E-9;
9,34443023564793E-9;
1,21882779161984E-8;
1,32643651818546E-8;
1,3870324472852E-8;
1,47519371695446E-8;
1,54946905800197E-8;
1,49688649691959E-8;
1,2519225916002E-8;
8,83381580644427E-9;
5,56106573087043E-9;
3,81963876278671E-9;
2,84971920185006E-9;
1,75190137506999E-10;
-6,48252689517992E-9;
-1,68734103862866E-8;
-2,7446232625124E-8;
-3,31010020019155E-8;
-3,0478698687049E-8;
-2,03872702773294E-8;
-7,41530394650461E-9;
3,08955292309369E-9;
8,46866188668617E-9;
1,0015220559317E-8;
1,11528226862536E-8;
1,41674312111112E-8;
1,82615523822642E-8;
2,05451648055322E-8;
1,90256757371007E-8;
1,48292999859429E-8;
1,1478336034986E-8;
1,16168232761925E-8;
1,39761731683041E-8;
1,34972622174979E-8;
5,05236305520874E-9;
-1,19293341396872E-8;
-3,17266705469442E-8;
-4,52846919695392E-8;
-4,60330244009003E-8;
-3,42837786202896E-8;
-1,68579887139703E-8;
-2,21294790142318E-9;
5,20836006464628E-9;
7,12570817379039E-9;
8,69222661169459E-9;
1,34501926747544E-8;
2,02929263339275E-8;
2,4900892615125E-8;
2,4188113018629E-8;
1,96302596630488E-8;
1,62678317433208E-8;
1,79843001353222E-8;
2,31040849195075E-8;
2,44796238730876E-8;
1,46693169047542E-8;
-7,58159447551305E-9;
-3,48184527343169E-8;
-5,48057825263315E-8;
-5,83776077420987E-8;
-4,54253162978127E-8;
-2,45347038124614E-8;
-6,64007718822541E-9;
2,38036202709435E-9;
4,57894495371205E-9;
6,48191798471305E-9;
1,26314541617292E-8;
2,16793254756745E-8;
2,81702677770198E-8;
2,81483377307082E-8;
2,33595629081907E-8;
2,00428252514865E-8;
2,30620530289383E-8;
3,04261493085291E-8;
3,33434660273269E-8;
2,25383621101422E-8;
-3,79777476612701E-9;
-3,686929822525E-8;
-6,19603155547016E-8;
-6,7858424370143E-8;
-5,40969288250301E-8;
-3,06160520859656E-8;
-1,02665796018577E-8;
-4,22709966138915E-11;
2,35772469320153E-9;
4,51426019046722E-9;
1,17396119422147E-8;
2,25045953115214E-8;
3,0482830534794E-8;
3,10462029048109E-8;
2,61406779264957E-8;
2,29146693176931E-8;
2,69850347585162E-8;
3,61291014327028E-8;
4,03045873293128E-8;
2,88322127247537E-8;
-5,39705663751964E-10;
-3,80229781563115E-8;
-6,70325362154923E-8;
-7,48035001055091E-8;
-6,05777194102216E-8;
-3,52789287250005E-8;
-1,31734161984033E-8;
-2,09059909915085E-9;
4,42165494833221E-10;
2,77923894546718E-9;
1,08026453247821E-8;
2,28513053570193E-8;
3,1963585328947E-8;
3,30135945950475E-8;
2,80834780161669E-8;
2,49867054231994E-8;
2,98868892015245E-8;
4,03955361714784E-8;
4,55707560578132E-8;
3,37120721998411E-8;
2,22667762642955E-9;
-3,84096036425717E-8;
-7,02865186551871E-8;
-7,95252408329519E-8;
-6,5128859406744E-8;
-3,86813630392276E-8;
-1,54311985356166E-8;
-3,79409372517788E-9;
-1,18830810196918E-9;
1,26482976613324E-9;
9,83956565412452E-9;
2,27923647476517E-8;
3,27270310197785E-8;
3,41738177980947E-8;
2,93010352226475E-8;
2,635964743986E-8;
3,18865258803925E-8;
4,339450398824E-8;
4,93401543417842E-8;
3,73359705496125E-8;
4,54154349881783E-9;
-3,81473799824239E-8;
-7,19736079881295E-8;
-8,23190584757486E-8;
-6,79967355255814E-8;
-4,09806546578509E-8;
-1,71153802388984E-8;
-5,18281810954614E-9;
-2,55413303088355E-9;
-4,01510919439284E-11;
8,87328840707938E-9;
2,23958774343497E-8;
3,28776022618622E-8;
3,46410391970689E-8;
2,98897023557693E-8;
2,71275198367116E-8;
3,31075868404503E-8;
4,52892609402099E-8;
5,18002884162296E-8;
3,98565207335988E-8;
6,44236795190397E-9;
-3,73518556054921E-8;
-7,23266165616675E-8;
-8,34594209254347E-8;
-6,94182716864915E-8;
-4,23211732640449E-8;
-1,82886937070586E-8;
-6,28715543154288E-9;
-3,67972902619361E-9;
-1,15087787721379E-9;
7,91725411388611E-9;
2,17251651668993E-8;
3,25166544774239E-8;
3,45212078019037E-8;
2,99457651700218E-8;
2,73762643772286E-8;
3,36516135463515E-8;
4,62303414993517E-8;
5,31294079369833E-8;
4,14131493361351E-8;
7,96666209865319E-9;
-3,61200079332165E-8;
-7,15585840193168E-8;
-8,31971991675374E-8;
-6,96028606824931E-8;
-4,28408899270157E-8;
-1,90202865479672E-8;
-7,13441088587155E-9;
-4,5848884698073E-9;
-2,08224501249367E-9;
6,98509689840289E-9;
2,08332448951587E-8;
3,17315611125111E-8;
3,39146596687972E-8;
2,955605338413E-8;
2,71892112354596E-8;
3,36261379686269E-8;
4,63589614464419E-8;
5,34879383963782E-8;
4,21386291213948E-8;
9,15110896793248E-9;
-3,45448787844823E-8;
-6,98632539957618E-8;
-8,17673142155605E-8;
-6,87517231445677E-8;
-4,266146403189E-8;
-1,93694933123505E-8;
-7,75599856624031E-9;
-5,29065514728141E-9;
-2,84547119263419E-9;
6,08882959709922E-9;
1,9771268578434E-8;
3,06041001569887E-8;
3,2907686389902E-8;
2,87975646638126E-8;
2,66382815215588E-8;
3,3120793360787E-8;
4,58033100661497E-8;
5,3028056269934E-8;
4,21557936312519E-8;
1,00322356924708E-8;
-3,27062702746015E-8;
-6,74183578380014E-8;
-7,93791749243055E-8;
-6,70451528800301E-8;
-4,19009064307912E-8;
-1,93900691406446E-8;
-8,17452036496225E-9;
-5,8183510244076E-9;
-3,45857960526466E-9;
5,23627311084251E-9;
1,85836065440629E-8;
2,92077395538082E-8;
3,15820093554299E-8;
2,77414083636841E-8;
2,57913988038377E-8;
3,22215749018341E-8;
4,46843904236448E-8;
5,18912911855618E-8;
4,15779045036179E-8;
1,06449456434714E-8;
-3,06750717337211E-8;
-6,43837847543793E-8;
-7,62256386586892E-8;
-6,4646686062355E-8;
-4,06640438876816E-8;
-1,91363796821265E-8;
-8,41759187815493E-9;
-6,18777748110004E-9;
-3,93365603283067E-9;
4,43453920598445E-9;
1,73094068198284E-8;
2,76059411745158E-8;
3,00077636630578E-8;
2,6452737443774E-8;
2,47067537854939E-8;
3,10045645804546E-8;
4,3107686770944E-8;
5,01983330407095E-8;
4,05082744112737E-8;
1,10226765863507E-8;
-2,8513555588519E-8;
-6,08993630848543E-8;
-7,247665464417E-8;
-6,17040502301178E-8;
-3,9045531789156E-8;
-1,8654961377605E-8;
-8,50896381752741E-9;
-6,41845695188159E-9;
-4,28627292270066E-9;
3,68816442112162E-9;
1,59810505754441E-8;
2,58576826880369E-8;
2,82522391002895E-8;
2,49878594448183E-8;
2,34410381904495E-8;
2,95393937946027E-8;
4,11690992807969E-8;
4,80666235580381E-8;
3,9042042700305E-8;
1,11947421048347E-8;
-2,6276884604783E-8;
-5,70898991395375E-8;
-6,82849662662725E-8;
-5,83481988331478E-8;
-3,71283952879053E-8;
-1,7988719147608E-8;
-8,47188653404776E-9;
-6,52811846480938E-9;
-4,52969463886372E-9;
2,99869115294511E-9;
1,46303188228783E-8;
2,40133769679469E-8;
2,63649206362389E-8;
2,33952407533799E-8;
2,20412432284786E-8;
2,78873038150864E-8;
3,89568678977578E-8;
4,55946294178903E-8;
3,72603748843455E-8;
1,11904712214575E-8;
-2,40109429509547E-8;
-5,30653498989128E-8;
-6,37822925527097E-8;
-5,46937999782201E-8;
-3,49915759629636E-8;
-1,71768055989965E-8;
-8,32463607361658E-9;
-6,53402912721098E-9;
-4,67580478663518E-9;
2,37098818826325E-9;
1,32786945630047E-8;
2,21141883466705E-8;
2,44007894173576E-8;
2,17218563172463E-8;
2,0550646841182E-8;
2,61025237357095E-8;
3,65435254354843E-8;
4,28733698888198E-8;
3,52426592006442E-8;
1,10382001473137E-8;
-2,17565670896178E-8;
-4,89206663047119E-8;
-5,90859285316248E-8;
-5,0844230111643E-8;
-3,26993295691745E-8;
-1,62536487769615E-8;
-8,08691726592912E-9;
-6,45051902180273E-9;
-4,73818730693457E-9;
1,80298266194057E-9;
1,19493266714374E-8;
2,02002375563624E-8;
2,23988897875666E-8;
2,00040062790579E-8;
1,90027987063733E-8;
2,42308762779685E-8;
3,40013004928008E-8;
3,9982727040664E-8;
3,30514897863979E-8;
1,07610877969765E-8;
-1,95431855545863E-8;
-4,47346661307206E-8;
-5,42956984368659E-8;
-4,68841894789333E-8;
-3,03086637413332E-8;
-1,52502957508247E-8;
-7,77640527536016E-9;
-6,29361174754339E-9;
-4,72889353971615E-9;
1,29498433722193E-9;
1,0656225033339E-8;
1,82984191643708E-8;
2,03947996904945E-8;
1,82734965605019E-8;
1,74316452628375E-8;
2,23151187429634E-8;
3,13814165343151E-8;
3,69884054640789E-8;
3,07480714549868E-8;
1,03826680971798E-8;
-1,73998432689621E-8;
-4,05770577437802E-8;
-4,94962206198701E-8;
-4,28909781193256E-8;
-2,78706237653173E-8;
-1,41914092989774E-8;
-7,40800334096899E-9;
-6,07621740421993E-9;
-4,65773390553287E-9;
8,45226857640273E-10;
9,41537808523971E-9;
1,64389045449059E-8;
1,84197030398162E-8;
1,65594025498401E-8;
1,58625483896198E-8;
2,03879201065099E-8;
2,87380537479163E-8;
3,39511224757602E-8;
2,83799122464022E-8;
9,92335377886454E-9;
-1,53462118421384E-8;
-3,65043829283934E-8;
-4,47601290311709E-8;
-3,89272164866704E-8;
-2,54289041840014E-8;
-1,31043310109475E-8;
-6,99602443619518E-9;
-5,81055373485545E-9;
-4,53564542910329E-9;
4,52613628127856E-10;
8,23588871330254E-9;
1,46403275574846E-8;
1,649609761382E-8;
1,48815952539262E-8;
1,43197561558981E-8;
1,84805109156899E-8;
2,61107221996995E-8;
3,09228462649412E-8;
2,59933024554781E-8;
9,40161176958384E-9;
0,00933342064767272;
0,0226296972631745;
0,0163726971309969;
0,0094330611316247;
0,0121693687687158;
0,0070261553258119;
0,00563481057772666;
0,00458270454624779;
0,000840495717781321;
0,00103239248415289;
-0,00119043237122045;
-0,00199193973871633;
-0,00280712228959956;
-0,00455366805937419;
-0,00488731218046877;
-0,00585588409238448;
-0,00594119373879359;
-0,00618246038079069;
-0,00699355304438108;
-0,00792069471379311;
-0,0093488995633988;
-0,0102429174978658;
-0,0105185350929314;
-0,0101085544299684;
-0,00920768533182471;
-0,00843030771558936;
-0,0078304402579718;
-0,00745747667336431;
-0,00704805745185496;
-0,0064186772459162;
-0,00567544754361321;
-0,00495847598290729;
-0,0044530685330708;
-0,00409075570124783;
-0,00366381449161093;
-0,0030265526227495;
-0,00222821150521747;
-0,00157280402842209;
-0,0013610551580831;
-0,00166523733953348;
-0,00222573528954498;
-0,00258708698012341;
-0,00240679377902171;
-0,0016572124045979;
-0,000624752414103197;
0,000316659854370849;
0,000963657908581789;
0,00137586404274673;
0,00176512779898302;
0,00227846151300116;
0,00287371696793221;
0,00337821881183357;
0,00366495349182994;
0,00378443583303744;
0,003924757640581;
0,0042334611548534;
0,00465412179381222;
0,00492915174500679;
0,00478541516763264;
0,00416206352531306;
0,00329838581928216;
0,00260118309302654;
0,00238401930760429;
0,00267131019639148;
0,00320915439466989;
0,00366538675336142;
0,00385876313092529;
0,00384594018315789;
0,00381730131703962;
0,00390618825705042;
0,00407639356077589;
0,00417462829306755;
0,00408915782310342;
0,00386594737409877;
0,00367395948363701;
0,00364553081743005;
0,00373090013473375;
0,0037012758650512;
0,00331396583411245;
0,00251556183186477;
0,00151955751411471;
0,000688070073030284;
0,000299897808329081;
0,000376475269986854;
0,000692020820202394;
0,000951424573229426;
0,000993750607676771;
0,000869179391635691;
0,000746301198880429;
0,000742935060793961;
0,000826539373793778;
0,000860921903649543;
0,0007467836699797;
0,000524384326443707;
0,000342649313352218;
0,000317928733605007;
0,000405566735671439;
0,000402877506787486;
9,51345124288792E-5;
-0,000565174579287705;
-0,0107236220430274;
-0,0246910195966496;
-0,018706374701078;
-0,0116223773673223;
-0,013997251006987;
-0,00853592975971844;
-0,00701192547191799;
-0,00596902659388794;
-0,00223034308380598;
-0,00231727269189966;
8,97688719701105E-5;
0,00103464191708604;
0,0018647498020119;
0,00353260899305605;
0,00382393302029666;
0,00488787177167406;
0,00516657477970438;
0,00552147095852427;
0,00617836571375176;
0,00664177840891175;
0,00746064436422228;
0,0078775828164839;
0,00802156925306031;
0,00784051481906806;
0,00735461399949581;
0,0069510499628203;
0,00655991415406813;
0,00626842837191226;
0,00594144783777662;
0,00548465713589019;
0,00497855285244617;
0,00445880132099107;
0,00403464250184643;
0,00366783895106265;
0,00326335963282074;
0,00276324211608317;
0,0021822802394621;
0,0016705625455578;
0,00136623542882368;
0,00130576580037771;
0,00137146793405512;
0,00134803272009067;
0,00107697666314476;
0,000543571032761314;
-0,000116343343933159;
-0,000724588297230666;
-0,00118435036072169;
-0,00152245238414374;
-0,00184024779203825;
-0,00220794564432388;
-0,00260531664295658;
-0,0029492377897985;
-0,00317776404673844;
-0,00331522965360578;
-0,00345291790372217;
-0,00366308629198601;
-0,00391871330587049;
-0,00409376782098867;
-0,0040538641442998;
-0,00376837871164873;
-0,00335502285878041;
-0,00301539382627196;
-0,00290603976552942;
-0,00304041690478717;
-0,00329291696956905;
-0,0034979311353183;
-0,00356466416067305;
-0,00352165189762475;
-0,00346521881679526;
-0,00346340115042028;
-0,00349852894833294;
-0,00349314791137178;
-0,00339049677313903;
-0,00321419183197364;
-0,00305115306670675;
-0,00297001634134673;
-0,00294586029846328;
-0,00286091584289451;
-0,00258938705148162;
-0,00210308751173577;
-0,00151283773227334;
-0,00100788723341562;
-0,000735005254238232;
-0,000706579185800264;
-0,00080473823100022;
-0,00087420637212839;
-0,000829832512813723;
-0,000698125167301099;
-0,000568861110771538;
-0,000505247981995233;
-0,000490306840673512;
-0,000451222912729537;
-0,000334546014868645;
-0,000161836687508977;
-1,36415202477302E-5;
4,66583010138123E-5;
4,29473047418635E-5;
8,55765659301615E-5;
0,000292257464101784;
0,000689733988890561;
0,00117541221694049;
0,00157388385467338;
0,00174942245437055;
0,00169131097659727;
0,00150982133508768;
0,00134982923458332;
0,00129097067363179;
0,00130920747869952;
0,00132184873414991;
0,00127090263191463;
0,00117271479976428;
0,00109530507026899;
0,00108867333137463;
0,00113333112317917;
0,00115522593589118;
0,0010962337060516;
0,000978926953844977;
0,000905717880510741;
0,000985682692242467;
0,0012437761249299;
0,00158554272411792;
0,00184942851441028;
0,00191060958957609;
0,00175959034344851;
0,00149833781829143;
0,00126056545339364;
0,00111976976969046;
0,00105394416792941;
0,000987126488129849;
0,000866118230205891;
0,000706078622260514;
0,000569606997976614;
0,000502668050722853;
0,000487364370096417;
0,000455722796697698;
0,000354431729089401;
0,00020421374147184;
9,89381778034418E-5;
0,000138471055922808;
0,000345514523657122;
0,000633403821421026;
0,000854133436285068;
0,000893429551474895;
0,000742583998867078;
0,00049478088229225;
0,000272119731194996;
0,000141578169892437;
8,28679801937633E-5;
2,64707975943631E-5;
-7,63044191219704E-5;
-0,000211769570897112;
-0,000323008581386014;
-0,00036832102372803;
-0,000364218476142931;
-0,000372792491431261;
-0,000442731449262604;
-0,000555320736887641;
-0,000625339677839094;
-0,000562195545760229;
-0,000345501358177879;
-5,42352036879277E-5;
0,000176999893062606;
0,00024434337322743;
0,000139813254430995;
-5,21487078930606E-5;
-0,000220954691143812;
-0,000306059459304006;
-0,000326012979994911;
-0,000343918087812965;
-0,000403963751902916;
-0,000493856700073783;
-0,000562215475701382;
-0,000571455423372353;
-0,000536623765590859;
-0,000513919156113646;
-0,000547379170033991;
-0,000620157558318627;
-0,000655414054853168;
-0,000571527864475724;
-0,000350237577874905;
-6,28354153751482E-5;
0,000169348876724871;
0,000252778865639685;
0,000180301375335669;
2,79280653158036E-5;
-0,000104874122705202;
-0,000163700945810454;
-0,000165258833051197;
-0,000166249244532273;
-0,000206337690637472;
-0,000274462098034414;
-0,000324503145692542;
-0,000322751463936344;
-0,000282699402902843;
-0,000254692546905128;
-0,000278135557893999;
-0,000337890057776432;
-0,000365143625078605;
-0,000286868144644294;
-8,67498698452162E-5;
0,00950490796330606;
0,0230091508151108;
0,0168263606564451;
0,00982088882039005;
0,0124192408645777;
0,00715474294723966;
0,00570732831961531;
0,0046495024840836;
0,000901448976222537;
0,00105211396821322;
-0,00123741599148744;
-0,00209001260501258;
-0,00291065300118045;
-0,00462899122823308;
-0,00494545920728069;
-0,00594282656296471;
-0,00608939665196112;
-0,0063632724008585;
-0,00711352538270465;
-0,00787191972971233;
-0,00907996090619597;
-0,00979838579479217;
-0,0100168287821543;
-0,00967357900934254;
-0,00890319034878852;
-0,00824149411728042;
-0,00769959190912324;
-0,00733999992213092;
-0,00694390619847455;
-0,00635889075866178;
-0,00568228091673049;
-0,00501792859104345;
-0,0045246785918992;
-0,00414460253680572;
-0,00370932417590353;
-0,00310387653437467;
-0,00236558828882693;
-0,00174471829857904;
-0,0014850563045668;
-0,00164620827137433;
-0,00201819317196533;
-0,00222979615737287;
-0,00200327378521683;
-0,00131575451921963;
-0,000400900824692581;
0,000436167710364768;
0,00102964129250766;
0,00142763891414949;
0,00180303974768926;
0,00227568775362277;
0,00281111791247065;
0,00326831327891537;
0,00354333817391566;
0,00367748740820809;
0,00382452986955354;
0,00410523176819867;
0,00447355255577774;
0,00471869801169841;
0,00461704510291502;
0,00411871248342134;
0,00341979753361615;
0,0028538841700828;
0,00267831286450202;
0,00291337973768242;
0,00335095198537403;
0,00371851014305334;
0,00386732776919436;
0,00384407279712297;
0,00380538397393621;
0,00386110043747578;
0,00398166011313802;
0,00404112257755512;
0,00394766302502438;
0,00373926478623549;
0,00355526871292458;
0,00350492842679505;
0,00354743753191981;
0,00349429684069969;
0,00314540136418653;
0,00245673387806947;
0,00160461927712093;
0,000888254334280925;
0,000538172887242153;
0,000572299473494124;
0,000804122429743583;
0,000989652646844757;
0,000995791067723242;
0,000864149884772436;
0,000734445309594953;
0,000704410319726392;
0,000747191920696997;
0,000749951570814208;
0,000630369128685938;
0,000421883278020494;
0,00024817042578795;
0,000205931444919445;
0,000258147993519695;
0,000236410603547699;
-3,78241833126552E-5;
-0,000604123622670018;
-0,0106396405137608;
-0,0245085694697767;
-0,0184908145128235;
-0,011442007666278;
-0,0138871033287576;
-0,00848778321997628;
-0,00699403593598186;
-0,00595689810130444;
-0,00222385227619586;
-0,00233322558985262;
3,93775128007035E-5;
0,00095749481766665;
0,00178281482775558;
0,00346210857358816;
0,00375987070991848;
0,00480876471139203;
0,00505736825760398;
0,00539585846142239;
0,00608034303413682;
0,00662196427646548;
0,00754321436681283;
0,00804208780723254;
0,00821342444420211;
0,00800271285331843;
0,00745791314037606;
0,00700224972220935;
0,00658538692869567;
0,00628850879849802;
0,0059562188824316;
0,00548015968533876;
0,0049448347968168;
0,00440222557547314;
0,00397339490338687;
0,00361534240826001;
0,00321549764351547;
0,00270229659878522;
0,00209585455647013;
0,00156996324162615;
0,00128770840891377;
0,00129097526923538;
0,0014403157801944;
0,00148377095572883;
0,0012348730745561;
0,000676938875676209;
-3,14356333210209E-5;
-0,000682591022836519;
-0,00116373335934788;
-0,00150662523019752;
-0,00182913164087639;
-0,00221288599975573;
-0,00263438550350907;
-0,00299724520575727;
-0,00322993177926575;
-0,00336065352571208;
-0,00349490168158538;
-0,00371592578189414;
-0,00399238829960757;
-0,0041791231851085;
-0,00412165796642282;
-0,00378504022132095;
-0,00330451292251953;
-0,00291111914451771;
-0,0027838383290603;
-0,00293766201262342;
-0,00322875107994503;
-0,00346793459463586;
-0,0035516768913783;
-0,00351246466401829;
-0,00345976571911031;
-0,00347068514799213;
-0,00352494177454617;
-0,00353456791023022;
-0,00343522443217158;
-0,0032536026639433;
-0,00308783698229051;
-0,00301521222058801;
-0,00300739536885857;
-0,00293158386799545;
-0,00264624872180244;
-0,00211985051555961;
-0,00147694721161039;
-0,00092977779435963;
-0,00064256913673637;
-0,000628869544087392;
-0,000756627389090606;
-0,000852299905807587;
-0,000820892270873108;
-0,000691979136513849;
-0,000565470859913757;
-0,000511540501720752;
-0,000511189457400906;
-0,000483542068623822;
-0,000369362712599998;
-0,00019257344579029;
-4,22666479546671E-5;
1,16148840360384E-5;
-4,43816519544183E-6;
3,13083683841654E-5;
0,00024842659647658;
0,000676147503040151;
0,00120151430687446;
0,00163186719155381;
0,00181843983725627;
0,00174968670221645;
0,00154646696602886;
0,00136722705551634;
0,0012988796896296;
0,00131510552296017;
0,00132574647706954;
0,00126770764710176;
0,00115883076834825;
0,00107302750768525;
0,00106449924500751;
0,00111202757473774;
0,00113537219450253;
0,00107169056821618;
0,000945450255865772;
0,000867226398950269;
0,000954542230427796;
0,00123407755134416;
0,00160398822314786;
0,0018905220485087;
0,00195970366161234;
0,00180150132058042;
0,00152530965188467;
0,00127428607933663;
0,00112694948559136;
0,00105970173084309;
0,000991453466533975;
0,000865536229071092;
0,000698145884471828;
0,000555872727673983;
0,000487495899794194;
0,000473941374770613;
0,00044311160335733;
0,000338588121934821;
0,000182366286582275;
7,3664463318544E-5;
0,000117814719727559;
0,000338579873436793;
0,000644501910294503;
0,000879783782912206;
0,000924388967488396;
0,000769327548090242;
0,000512460155752083;
0,000281739446435983;
0,000147204959060358;
8,75763618423143E-5;
3,02406141715398E-5;
-7,55459398952175E-5;
-0,000215458042393063;
-0,00033023782496363;
-0,000376572870200724;
-0,000371671838815368;
-0,000379963950855957;
-0,000451850146824698;
-0,000567882077679578;
-0,000639923405708185;
-0,000574491222403032;
-0,000350711255416259;
-5,01142002406762E-5;
0,000188706960880223;
0,000259050434759431;
0,000152871440315577;
-4,30809179474521E-5;
-0,000215456052895571;
-0,00030233293401406;
-0,000322738447100477;
-0,000341124393850277;
-0,000402516122755446;
-0,000494326631780792;
-0,000564247267022429;
-0,000574111919317781;
-0,000539254024481758;
-0,000516680572029189;
-0,000550949385767556;
-0,000624941973038959;
-0,000660981928584837;
-0,000576757716061767;
-0,000354009498553993;
-6,46707817740067E-5;
0,000169178908503674;
0,000253650133308473;
0,00018171321839574;
2,96721013878865E-5;
-0,000102870070297269;
-0,000161565247013607;
-0,000163159432414259;
-0,000164222556575608;
-0,000204226083820704;
-0,000272105623907441;
-0,000322012308251856;
-0,000320526903187381;
-0,00028108041912531;
-0,000253534911522227;
-0,000276809176248371;
-0,000335882366740857;
-0,000362859064572433;
-0,000285872848216414;
-8,90224969876531E-5;
0,000164921500316704;
0,000369550598774174;
0,000443133513273999;
0,000379661694709231;
0,000245658313099822;
0,000127842263840437;
7,34978223008497E-5;
6,80879498805825E-5;
6,25108661757468E-5;
2,25616969684497E-5;
-4,20879009569119E-5;
-9,16216032262551E-5;
-9,70427484756223E-5;
-6,99654904883591E-5;
-5,3524598921762E-5;
-8,13353698926282E-5;
-0,000140333946813219;
-0,000171781182023999;
-0,000113582672381789;
4,79663801847252E-5;
0,000258677334426627;
0,000426797224701266;
0,000481947873371655;
0,000419052221399037;
0,000295471606612565;
0,000185871956517114;
0,000130925979667228;
0,000118139349424697;
0,000105352700873479;
6,32426037465145E-5;
1,51141081684955E-7;
-4,97560995210903E-5;
-6,16299831453701E-5;
-4,54230643494302E-5;
-3,80436692689398E-5;
-6,82116092993074E-5;
-0,000124721185489541;
-0,000157378517417742;
-0,000113198090792022;
1,94574014531793E-5;
0,000194335555519887;
0,000333246084131808;
0,000376298864598334;
0,000319236339820765;
0,000210887957833519;
0,000114718598414873;
6,52477651493647E-5;
5,18421322639268E-5;
3,8734320779222E-5;
1,08244434028059E-6;
-5,40330917778306E-5;
-9,76980001399323E-5;
-0,000108920150195265;
-9,6141899032743E-5;
-9,05494273154672E-5;
-0,000116372084485905;
-0,000164143469735207;
-0,000191569206516332;
-0,000154073925059745;
-4,19367406427013E-5;
0,000105885921336836;
0,000223672353956667;
0,000261163429487929;
0,000214835560655465;
0,000125657737494434;
4,67898922745218E-5;
7,0921963858157E-6;
-2,36502464376429E-6;
-1,14880107897308E-5;
-4,10137270738301E-5;
-8,50251124053113E-5;
-0,000119425617423426;
-0,000126758046904544;
-0,000114080098012898;
-0,000107337577295486;
-0,000126650218334781;
-0,000164143420175654;
-0,000184745320793343;
-0,000151562808904266;
-5,66165877455098E-5;
6,7811752142973E-5;
0,000167393189857783;
0,000200663065020534;
0,000164769258974645;
9,35147704387854E-5;
3,0671224376162E-5;
-4,89653525372166E-8;
-6,01281006022822E-6;
-1,1779858530676E-5;
-3,43427387535385E-5;
-6,88353966542441E-5;
-9,55342566360221E-5;
-0,0001001852266192;
-8,85762576620005E-5;
-8,1882397143642E-5;
-9,64832363736325E-5;
-0,000125941607210454;
-0,000141730254358212;
-0,000113912352118217;
-3,60740960485207E-5;
6,55652014434174E-5;
0,000147007424201082;
0,000174758228217093;
0,000146577651177894;
8,97894997179482E-5;
3,9680920774569E-5;
1,53189887575603E-5;
1,07577846395198E-5;
6,27507524494521E-6;
-1,17352351587598E-5;
-3,93511521589587E-5;
-6,07894271054419E-5;
-6,46784842256171E-5;
-5,56550296093954E-5;
-5,05896535717669E-5;
-6,24895883127668E-5;
-8,62098201733718E-5;
-9,91108008321926E-5;
-7,75094428074892E-5;
-1,6393499065572E-5;
6,34733950813612E-5;
0,000127379870657193;
0,000148991066847227;
0,000126615051046143;
8,17591995381375E-5;
4,20992553714375E-5;
2,25382088775806E-5;
1,8405615835375E-5;
1,43137993989251E-5;
-3,1150671031866E-7;
-2,23952930455705E-5;
-3,96815764912429E-5;
-4,33773434325067E-5;
-3,70898707181108E-5;
-3,38435873338083E-5;
-4,36354289742257E-5;
-6,24774746598669E-5;
-7,29880582876214E-5;
-5,70645317878625E-5;
-1,09438453451442E-5;
4,9474577721098E-5;
9,77534944991979E-5;
0,000113931510089799;
9,6799756653255E-5;
6,26848545311035E-5;
3,24888092578043E-5;
1,74103871822683E-5;
1,39112484040318E-5;
1,04520333738157E-5;
-8,52790032012925E-7;
-1,76837557708527E-5;
-3,09172716254357E-5;
-3,40488998543199E-5;
-2,97748809552388E-5;
-2,77139737432678E-5;
-3,52003311806777E-5;
-4,92740291935408E-5;
-5,72086371502972E-5;
-4,58382104369304E-5;
-1,25037773722994E-5;
3,11937741451791E-5;
6,61242045951802E-5;
7,79500515467027E-5;
6,58849919073979E-5;
4,16828380547415E-5;
2,02718784174453E-5;
9,58597815374119E-6;
7,08340098932615E-6;
4,61148820264082E-6;
-3,35139772439364E-6;
-1,51524970173131E-5;
-2,44233684754371E-5;
-2,66709235063524E-5;
-2,37911981768597E-5;
-2,24136940736384E-5;
-2,75375154209464E-5;
-3,71060729230818E-5;
-4,24747166508456E-5;
-3,48024009294246E-5;
-1,23952835923003E-5;
1,69101659943709E-5;
4,03772094628794E-5;
4,85854647357744E-5;
4,11163580346533E-5;
2,57278239555921E-5;
1,21322335309411E-5;
5,41509326123645E-6;
3,90492652499954E-6;
2,40188558151538E-6;
-2,55635348327606E-6;
-9,89823630596749E-6;
-1,56534345587065E-5;
-1,70777490692602E-5;
-1,53701220728347E-5;
-1,45613799186379E-5;
-1,76224699599194E-5;
-2,32815680321119E-5;
-2,64357050632642E-5;
-2,19931705221551E-5;
-9,09422730951619E-6;
7,68826782858426E-6;
2,11547238406713E-5;
2,61398780674858E-5;
2,25425535922824E-5;
1,46662732202763E-5;
7,7178422136299E-6;
4,32469766677382E-6;
3,56760573010686E-6;
2,79391880931596E-6;
3,16167801037756E-7;
-3,2950774610593E-6;
-6,13388803964672E-6;
-6,95988182857221E-6;
-6,37128283249302E-6;
-6,16479005632813E-6;
-7,56944122274962E-6;
-9,9876211015081E-6;
-1,13548515111303E-5;
-9,79297691929788E-6;
-5,15492144563479E-6;
7,83336936449874E-7;
5,56215191078807E-6;
7,65549456571016E-6;
7,23263150410793E-6;
5,6456246605695E-6;
4,25515419926196E-6;
3,59242191112533E-6;
3,38031522895222E-6;
3,13656778132711E-6;
2,68433495767332E-6;
2,16716106707569E-6;
1,73532440895252E-6;
1,35180185063944E-6;
9,29233518013998E-7;
5,67100787420276E-7;
5,13009980242398E-7;
7,92202837696186E-7;
8,95358240175423E-7;
-1,84336274514768E-8;
-2,40329589656259E-6;
-5,66996290648551E-6;
-8,27445477290257E-6;
-8,67214157601448E-6;
-6,46688953152844E-6;
-2,79475524898854E-6;
4,66085238947337E-7;
2,08343474259761E-6;
2,3204557403916E-6;
2,51808368685461E-6;
3,76674971426719E-6;
5,8507587676808E-6;
7,44829498642286E-6;
7,45265602166761E-6;
6,20447996021515E-6;
5,38887570384862E-6;
6,48646321563908E-6;
9,04344250699288E-6;
1,04027394829616E-5;
7,45746781797158E-6;
-7,45849028680484E-7;
-1,16483564452766E-5;
-2,03768351675317E-5;
-2,28364567685364E-5;
-1,844405755333E-5;
-1,04000185513904E-5;
-3,26622439787089E-6;
2,65814399408911E-7;
9,06456435068894E-7;
1,50284683085959E-6;
4,19065634024715E-6;
8,45691077886837E-6;
1,17663929294071E-5;
1,21321316613406E-5;
1,02472638079607E-5;
9,09968885800524E-6;
1,1181337768236E-5;
1,56444985272362E-5;
1,80721366626169E-5;
1,35035665031217E-5;
5,78574567907514E-7;
-1,65339630451906E-5;
-3,02441658119338E-5;
-3,43794773704811E-5;
-2,82056768574566E-5;
-1,66027681490215E-5;
-6,31269943765215E-6;
-1,21048971758988E-6;
-2,22826609755985E-7;
7,16636729665119E-7;
4,58795924352896E-6;
1,06371674601308E-5;
1,53498688238008E-5;
1,60302565695159E-5;
1,36558057977877E-5;
1,22617225528167E-5;
1,51511354110799E-5;
2,11594818241988E-5;
2,4459966928577E-5;
1,86101039160328E-5;
1,92651560741005E-6;
-2,01360351938051E-5;
-3,78229924100385E-5;
-4,33096013595099E-5;
-3,57428695239382E-5;
-2,13360712802657E-5;
-8,55802402216677E-6;
-2,21916183198943E-6;
-9,58884261307745E-7;
2,50550166237633E-7;
5,05328233124292E-6;
1,25049839217718E-5;
1,83223790623213E-5;
1,92546395321163E-5;
1,65024776123727E-5;
1,49194311987274E-5;
1,84405777126759E-5;
2,56536039250906E-5;
2,96355393620102E-5;
2,27949986549722E-5;
3,20017555906105E-6;
-2,26981443387401E-5;
-4,34741196392358E-5;
-5,00309757905034E-5;
-4,14258135347852E-5;
-2,48960444895243E-5;
-1,02330230166851E-5;
-2,96138433346733E-6;
-1,50070631714306E-6;
-9,156376583501E-8;
5,41369404063763E-6;
1,39254890671855E-5;
2,05787943604204E-5;
2,17045590631518E-5;
1,86723523323459E-5;
1,69504993141842E-5;
2,09467925333576E-5;
2,90625318468368E-5;
3,35569023684522E-5;
2,59849640256236E-5;
4,23270230167965E-6;
-2,45100927739541E-5;
-4,75835279147891E-5;
-5,49555945131183E-5;
-4,56191060133703E-5;
-2,75621555612131E-5;
-1,15411111661371E-5;
-3,5992814162483E-6;
-1,99606265161729E-6;
-4,43243757606645E-7;
5,56860093205228E-6;
1,48444494697009E-5;
2,21025606390459E-5;
2,33762257799516E-5;
2,01559108667352E-5;
1,83454305471244E-5;
2,26850945294583E-5;
3,14438234785572E-5;
3,63077808879702E-5;
2,82381107930245E-5;
4,99675357765135E-6;
-2,57132763559252E-5;
-5,03819226273212E-5;
-5,83375205350959E-5;
-4,85311409055621E-5;
-2,94619140480959E-5;
-1,25380144246817E-5;
-4,15022093057977E-6;
-2,44994590375225E-6;
-7,9766399666297E-7;
5,55391516433028E-6;
1,53391401982248E-5;
2,30037373682063E-5;
2,43886007946907E-5;
2,10632342573138E-5;
1,92105532232095E-5;
2,37811790785891E-5;
3,29587434412884E-5;
3,80696391097083E-5;
2,97071234918952E-5;
5,55971076157702E-6;
-2,63526930777466E-5;
-5,20035410923758E-5;
-6,03383015226498E-5;
-5,02859330424963E-5;
-3,06487216864446E-5;
-1,32150510786696E-5;
-4,57478030481992E-6;
-2,81652383024668E-6;
-1,1030558959892E-6;
5,44360088641165E-6;
1,55173233560983E-5;
2,34159530022337E-5;
2,48789308147053E-5;
2,15186701279726E-5;
1,96622417301259E-5;
2,43652088788865E-5;
3,37665522965894E-5;
3,90166402691884E-5;
3,05354794738796E-5;
5,9817373502247E-6;
-2,64766212777401E-5;
-5,25833474814222E-5;
-6,11216644719649E-5;
-5,10153303002711E-5;
-3,11914889109983E-5;
-1,3585911608388E-5;
-4,86038332721768E-6;
-3,07938053192286E-6;
-1,33939423208369E-6;
5,27662649869933E-6;
1,54478898049632E-5;
2,34308502113717E-5;
2,49411445198728E-5;
2,16032686341246E-5;
1,97734179351629E-5;
2,45223474472739E-5;
3,39790049681224E-5;
3,92741267544706E-5;
3,08200214359508E-5;
6,28256038656195E-6;
-2,61656067475118E-5;
-5,22819409329972E-5;
-6,08745749302994E-5;
-5,08764672312705E-5;
-3,11886914922626E-5;
-1,36973977292364E-5;
-5,02876561533782E-6;
-3,25578731120593E-6;
-1,51960806295019E-6;
5,05862340620153E-6;
1,51652349517316E-5;
2,31050475125412E-5;
2,46352755511416E-5;
2,13665645664858E-5;
1,9587520408465E-5;
2,43086982674716E-5;
3,36781109117643E-5;
3,89380771011815E-5;
3,06319999910035E-5;
6,4640139385773E-6;
-2,5508544404506E-5;
-5,12604254965597E-5;
-5,97811123967487E-5;
-5,00248614867427E-5;
-3,07408363212825E-5;
-1,36014087132792E-5;
-5,10760298392062E-6;
-3,36807156573608E-6;
-1,66081552399668E-6;
4,79066274183596E-6;
1,46979207783654E-5;
2,24885812032106E-5;
2,40156048297949E-5;
2,08543226642619E-5;
1,91457695821942E-5;
2,37780163245052E-5;
3,29421808794737E-5;
3,81004184135311E-5;
3,00416156950474E-5;
6,53375209504545E-6;
-2,45798378625495E-5;
-4,96584938570007E-5;
-5,80015060195355E-5;
-4,85944263698513E-5;
-2,9931496239653E-5;
-1,33370033606392E-5;
-5,11362997596383E-6;
-3,42783740825569E-6;
-1,76965169264891E-6;
4,48282920693239E-6;
1,40811586840299E-5;
2,1636297897501E-5;
2,31409573401425E-5;
2,01177320565747E-5;
1,8495270270339E-5;
2,29887585477296E-5;
3,18518813558329E-5;
3,68540946720387E-5;
2,91220757818047E-5;
6,50827080546962E-6;
-2,34374093335475E-5;
-4,75933916316812E-5;
-5,56719601911263E-5;
-4,66980403772771E-5;
-2,88285261609567E-5;
-1,29322703448478E-5;
-5,05515951177011E-6;
-3,43909974422949E-6;
-1,8459854348151E-6;
4,1499765273649E-6;
1,33520939218554E-5;
2,06026995382217E-5;
2,20691093123852E-5;
1,92074005252741E-5;
1,76826542198037E-5;
2,19974447771238E-5;
3,04833778119379E-5;
3,52860046662892E-5;
2,79422746007972E-5;
6,40528082633764E-6;
-2,21306419523327E-5;
-4,51681067392079E-5;
-5,29129153870702E-5;
-4,44357225051801E-5;
-2,74920711700526E-5;
-1,24121279227725E-5;
-4,93972724029265E-6;
-3,40583506867682E-6;
-1,89034378759669E-6;
3,80450151234216E-6;
1,2542833670514E-5;
1,94352238533953E-5;
2,0850279844704E-5;
1,81670305161761E-5;
1,67479624295936E-5;
2,08528230886702E-5;
2,89028351413922E-5;
3,34718091145915E-5;
2,65618060498716E-5;
6,23878770527643E-6;
-2,07052954293998E-5;
-4,24762076832779E-5;
-4,98336443512693E-5;
-4,18988088755065E-5;
-2,59782400264552E-5;
-1,18015381065828E-5;
-4,77692669886488E-6;
-3,33448444230388E-6;
-1,9060942581919E-6;
3,45450867148275E-6;
1,16789774893136E-5;
1,81731108915062E-5;
1,95262728696441E-5;
1,70327818942146E-5;
1,57242339576506E-5;
1,95957368653164E-5;
2,71665952539661E-5;
3,14763754295749E-5;
2,50315192557663E-5;
6,01956618133313E-6;
-1,92031892874899E-5;
-3,96016082999022E-5;
-4,65319326334944E-5;
-3,91693538056318E-5;
-2,4338114003178E-5;
-1,11241707972676E-5;
-4,5768527651164E-6;
-3,23227984065868E-6;
-1,89767242155402E-6;
3,10574535052575E-6;
1,07817475079102E-5;
1,68496844448908E-5;
1,81328161600665E-5;
1,58355896389582E-5;
1,46398226622124E-5;
1,82615177832455E-5;
2,53236918922376E-5;
2,93563452765477E-5;
2,33959552898653E-5;
5,75729204961715E-6;
-1,76604820338931E-5;
-3,66171968692192E-5;
-4,30928118342489E-5;
-3,63187532211879E-5;
-2,26161712050182E-5;
-1,04006479711911E-5;
-4,34828936211208E-6;
-3,10546842665065E-6;
-1,86883266607643E-6;
2,7633585892294E-6;
9,86979087878076E-6;
1,54941766581577E-5;
1,67013157025391E-5;
1,46028042643249E-5;
1,3519924052918E-5;
1,68814706806304E-5;
2,34173680333609E-5;
2,71616223981224E-5;
2,16946418609074E-5;
5,46142375154167E-6;
-1,61072987840753E-5;
-3,35848648852597E-5;
-3,95887774436222E-5;
-3,34078827813801E-5;
-2,08502083029898E-5;
-9,64830726093262E-6;
-4,09842059585709E-6;
-2,95906249927296E-6;
-1,82245674387707E-6;
2,43210894849251E-6;
8,95946685204187E-6;
1,41320530673652E-5;
1,52591439512149E-5;
1,33583564165209E-5;
1,23866540298326E-5;
1,54829740941833E-5;
2,14852414234403E-5;
2,49355632443007E-5;
1,99621144552168E-5;
5,14084117457186E-6;
-1,45685676864684E-5;
-3,05567249527412E-5;
-3,60811174151163E-5;
-3,04883001718749E-5;
-1,90722830359351E-5;
-8,88189085732461E-6;
-3,83341084824092E-6;
-2,79741634548738E-6;
-1,76110714735325E-6;
2,1159079240444E-6;
8,06451905988938E-6;
1,27847882296229E-5;
1,38294186436885E-5;
1,21224968054213E-5;
1,12587673652334E-5;
1,40892516809073E-5;
1,95592156289711E-5;
2,27149605291201E-5;
1,8227779851289E-5;
4,80337202035899E-6;
-1,30649348115031E-5;
-2,7576370770939E-5;
-3,26212708599281E-5;
-2,7603412778962E-5;
-1,73095569988669E-5;
-8,11412665166039E-6;
-3,55884163989818E-6;
-2,62460280733556E-6;
-1,68736316485378E-6;
1,81758844790239E-6;
7,19601163540089E-6;
1,14699358683329E-5;
1,24311194994659E-5;
1,09118670980188E-5;
1,01517077359394E-5;
1,27195191867942E-5;
1,76657742089933E-5;
2,05304194166903E-5;
1,65161842191013E-5;
4,45572301724138E-6;
-1,16132736459166E-5;
-2,46797216854168E-5;
-2,92517559886872E-5;
-2,47892373649135E-5;
-1,55847492217264E-5;
-7,35589470172947E-6;
-3,27972924770816E-6;
-2,44440028064193E-6;
-1,60376160765909E-6;
1,53907551715955E-6;
6,36264708326298E-6;
1,02015638026607E-5;
1,10795420625655E-5;
9,73991983965123E-6;
9,07801059901618E-6;
1,13894423618925E-5;
1,58265678986307E-5;
1,84070200179206E-5;
1,48475563580723E-5;
4,10368116661866E-6;
-1,02269373699876E-5;
-2,18956362365382E-5;
-2,6006883836747E-5;
-2,20749510189793E-5;
-1,39164001907659E-5;
-6,61624740863304E-6;
-3,00042161824561E-6;
-2,26015278989959E-6;
-1,51263668936573E-6;
1,28163357217263E-6;
5,57115527813023E-6;
8,99074739660767E-6;
9,78680461221852E-6;
8,6173635517273E-6;
8,04771441182441E-6;
1,01116060927169E-5;
1,40590015041481E-5;
1,63649656549749E-5;
1,32383183788978E-5;
3,75227382796938E-6;
-8,91604055506995E-6;
-1,92465476013511E-5;
-2,29135098090315E-5;
-1,94835002696526E-5;
-1,23192039733786E-5;
-5,90249334176503E-6;
-2,72456480181335E-6;
-2,07472771477751E-6;
-1,41606450510214E-6;
1,04600728738594E-6;
4,82656781441947E-6;
7,84593599079698E-6;
8,56222267127258E-6;
7,55248644905287E-6;
7,06864196498131E-6;
8,8958570372788E-6;
1,23766948518263E-5;
1,44200919243472E-5;
1,17014803613842E-5;
3,40582762845128E-6;
-7,68784902212217E-6;
-1,67491948892219E-5;
-1,99918690801884E-5;
-1,70322946173162E-5;
-1,08044283857528E-5;
-5,22038850921146E-6;
-2,45518236086376E-6;
-1,89056768767532E-6;
-1,31588667937532E-6;
8,32479866676792E-7;
4,13239056908829E-6;
6,77323715053802E-6;
7,41261507542074E-6;
6,55140704814746E-6;
6,1466265309849E-6;
7,74956974280948E-6;
1,07898650698047E-5;
1,25843228485109E-5;
1,02469643132255E-5;
3,06797508676037E-6;
-6,54716982043413E-6;
-1,44153434271404E-5;
-1,72563958436786E-5;
-1,47338867155076E-5;
-9,38034708808445E-6;
-4,57434164276354E-6;
-2,19476648820125E-6;
-1,70975682320958E-6;
-1,21375655732364E-6;
6,40913182209758E-7;
3,49078500982755E-6;
5,77667909240361E-6;
6,34256940031492E-6;
5,6183001769535E-6;
5,28571683401548E-6;
6,67792528381532E-6;
9,30570421030331E-6;
1,08660951787731E-5;
8,88194607695441E-6;
2,74170046791444E-6;
-5,49670810876871E-6;
-1,22524458368553E-5;
-1,47164749738682E-5;
-1,25965964111884E-5;
-8,05261576595352E-6;
-3,96757323682971E-6;
-1,94533171104223E-6;
-1,53405070372074E-6;
-1,11114755227139E-6;
4,70811074034509E-7;
2,90274398869542E-6;
4,85848924119295E-6;
5,35474650046825E-6;
4,7556623883251E-6;
4,48841007293134E-6;
5,6841798622528E-6;
7,92876954102235E-6;
9,27081526572464E-6;
7,61118967835696E-6;
2,42939085154341E-6;
-4,53736924725968E-6;
-1,02642300813721E-5;
-1,23771234637577E-5;
-1,06250733329313E-5;
-6,82460790685659E-6;
-3,40225423214792E-6;
-1,70845475549871E-6;
-1,36489812390734E-6;
-1,00934918593194E-6;
3,21403223862933E-7;
2,36828178678022E-6;
4,01936776993226E-6;
4,45016502991148E-6;
3,96455402535476E-6;
3,7558804123071E-6;
4,76995091682913E-6;
6,66135665284423E-6;
7,80127635929773E-6;
6,43738011833599E-6;
2,13290921062495E-6;
-3,66853367380095E-6;
-8,4512493363846E-6;
-1,02396242009024E-5;
-8,82081914018074E-6;
-5,69773020295973E-6;
-2,87963996068166E-6;
-1,48531122344393E-6;
-1,2034538484582E-6;
-9,09471882196596E-7;
1,91705894290617E-7;
1,88660333500468E-6;
3,25872960133913E-6;
3,62845679193285E-6;
3,24482346143077E-6;
3,08817632146052E-6;
3,93545591431272E-6;
5,50382998974677E-6;
6,4580364674252E-6;
5,36141676911999E-6;
1,85364932461811E-6;
-2,88831702876314E-6;
-6,81139186086113E-6;
-8,30211017898354E-6;
-7,18267267760367E-6;
-4,67171545310222E-6;
-2,40018612154635E-6;
-1,27671940878399E-6;
-1,05061113902367E-6;
-8,12451597962144E-7;
8,05740745567669E-8;
1,4562493560313E-6;
2,57493314053627E-6;
2,88810555331819E-6;
2,59530742218142E-6;
2,4844074554476E-6;
3,17973786098461E-6;
4,45492925224132E-6;
5,23978327440864E-6;
4,38269535600179E-6;
1,59258316033141E-6;
-2,19380970747251E-6;
-5,34035167747796E-6;
-6,56011567089389E-6;
-5,70726296318625E-6;
-3,74489722233697E-6;
-1,96368104723711E-6;
-1,08318537366669E-6;
-9,07025171556993E-7;
-7,19065738268244E-7;
-1,32480141432672E-8;
1,07522931771287E-6;
1,96546592458035E-6;
2,22664656069589E-6;
2,01401051121113E-6;
1,94290521821427E-6;
2,50086724955039E-6;
3,51205422510207E-6;
4,14364101265776E-6;
3,49934271802142E-6;
1,3503123896682E-6;
-1,58129085963796E-6;
-4,03204927840978E-6;
-5,00705642018441E-6;
-4,38942048245043E-6;
-2,91446796649883E-6;
-1,56935184329971E-6;
-9,0494573900881E-7;
-7,73143768388286E-7;
-6,29944551082953E-7;
-9,10969875767702E-8;
7,41130138877011E-7;
1,42712809398852E-6;
1,64086356719163E-6;
1,49826546522981E-6;
1,46136779211093E-6;
1,89612505299326E-6;
2,67151174507561E-6;
3,16546430490547E-6;
2,70845328724409E-6;
1,1271138180583E-6;
-1,04642279968451E-6;
-2,87901712523655E-6;
-3,63468092692735E-6;
-3,22254538906827E-6;
-2,17669712962697E-6;
-1,21596345183373E-6;
-7,4200480587376E-7;
-6,49230830606425E-7;
-5,45586102987379E-7;
-1,54351035250729E-7;
4,51233723206641E-7;
9,5619419742932E-7;
1,12695520271199E-6;
1,04488702885499E-6;
1,03700486433602E-6;
1,36217103522095E-6;
1,92874410700064E-6;
2,30010598303187E-6;
2,00629244552738E-6;
9,22978663151833E-7;
-5,84411089878325E-7;
-1,8727305496514E-6;
-2,43345561183941E-6;
-2,19892653216654E-6;
-1,52713621428256E-6;
-9,01913304528613E-7;
-5,94168115995202E-7;
-5,35384871514037E-7;
-4,66357947911758E-7;
-2,04399610476194E-7;
2,0259870408384E-7;
5,4855411762589E-7;
6,80689149915306E-7;
6,50303581463527E-7;
6,66656329072923E-7;
8,95188231322003E-7;
1,27853761516997E-6;
1,541650800691E-6;
1,38848491593203E-6;
7,3766187676152E-7;
-1,90163817840808E-7;
-1,00390867807202E-6;
-1,39291369432801E-6;
-1,3100473488086E-6;
-9,60798182166238E-7;
-6,25303913023152E-7;
-4,61072721841332E-7;
-4,3157034801099E-7;
-3,92524274527012E-7;
-2,42615040746687E-7;
-7,84831587644297E-9;
1,9983558641869E-7;
2,97536710158603E-7;
3,10665961615576E-7;
3,46889996630684E-7;
4,91025405903006E-7;
7,15204305849135E-7;
8,83617717877195E-7;
8,50169937681411E-7;
5,70715730711508E-7;
1,41598742681026E-7;
-2,62775388037578E-7;
-5,01962420777564E-7;
-5,46823799887172E-7;
-4,72312624866053E-7;
-3,84023831142783E-7;
-3,42221408655044E-7;
-3,37623524542388E-7;
-3,24239825273906E-7;
-2,70341447933898E-7;
-1,83251897282916E-7;
-9,44865542295915E-8;
-2,72183251146766E-8;
2,1957441613977E-8;
7,41050022716917E-8;
1,45299035327533E-7;
2,32736711097871E-7;
3,19149837285427E-7;
3,86158497714282E-7;
4,21527348346379E-7;
4,16217327978161E-7;
3,60719995439694E-7;
2,50858221130547E-7;
1,00159132844852E-7;
-5,60675567688321E-8;
-1,7580417206551E-7;
-2,37004872234283E-7;
-2,53286681626343E-7;
-2,61571900718848E-7;
-2,88865532975598E-7;
-3,2676671297804E-7;
-3,38998497740461E-7;
-2,98374577392538E-7;
-2,19929376670008E-7;
-1,5539414342143E-7;
-1,46501760813063E-7;
-1,75057523882976E-7;
-1,58831750700534E-7;
-8,95017772766254E-9;
2,89350119724461E-7;
6,39014480927608E-7;
8,76703323013322E-7;
8,77143602496947E-7;
6,40465679311809E-7;
2,93673034388763E-7;
1,71897127710568E-9;
-1,44729372166206E-7;
-1,7821438258591E-7;
-2,04515663845275E-7;
-2,99417858431697E-7;
-4,41501364127541E-7;
-5,38267671421792E-7;
-5,20730759122805E-7;
-4,19111055178792E-7;
-3,45325747299479E-7;
-3,88925079583104E-7;
-5,1443070177796E-7;
-5,57491544942288E-7;
-3,40656232023094E-7;
1,73329789128274E-7;
8,15209647326202E-7;
1,29522213218845E-6;
1,38843908607781E-6;
1,08364466403589E-6;
5,82668327921323E-7;
1,50963610040749E-7;
-6,46378514019887E-8;
-1,11998677098701E-7;
-1,52990322001768E-7;
-3,03152836000988E-7;
-5,30492862010691E-7;
-6,96783400619221E-7;
-6,99016571384088E-7;
-5,79655946274482E-7;
-4,99379953301839E-7;
-5,86497363396992E-7;
-7,91603679962361E-7;
-8,83962749867976E-7;
-6,14464428874068E-7;
7,25356024989595E-8;
0,00933438390923545;
0,022631355933082;
0,016374533352304;
0,00943453526980255;
0,0121702083954744;
0,00702644168102995;
0,00563482120254229;
0,00458265587668324;
0,000840393227127638;
0,00103209122818773;
-0,001191036155037;
-0,00199277155707705;
-0,00280797476831041;
-0,00455438684886255;
-0,00488794615926357;
-0,00585664435980929;
-0,00594222994998788;
-0,00618363357499431;
-0,00699441248057652;
-0,00792071756580773;
-0,00934784017068595;
-0,010241009846925;
-0,0105163883497064;
-0,0101068071977979;
-0,00920666360623699;
-0,00842992252298316;
-0,00783037193943861;
-0,00745747574765934;
-0,00704811922783069;
-0,00641897144925734;
-0,00567609641661553;
-0,00495939606275907;
-0,00445402302051567;
-0,0040915679685639;
-0,00366454002076939;
-0,00302743211643723;
-0,00222941610726469;
-0,0015741772349941;
-0,00136208645979735;
-0,00166533292891552;
-0,00222461173055759;
-0,00258499918584577;
-0,00240441843308072;
-0,00165526172870245;
-0,000623592630123668;
0,000317122789441366;
0,00096377419812102;
0,00137590717752411;
0,00176510172053377;
0,00227817816292088;
0,00287304034801971;
0,00337723862843265;
0,00366392772249345;
0,00378355720291176;
0,00392396594289545;
0,00423249436672407;
0,00465279321004386;
0,00492763025929144;
0,00478425397852527;
0,00416190739698713;
0,00329954590243046;
0,00260339083056548;
0,00238655138355425;
0,00267340305343912;
0,0032104133438619;
0,00366590860844725;
0,00385891851806133;
0,00384601869390041;
0,00381730617967115;
0,00390591874885143;
0,00407570407953782;
0,00417361242279502;
0,00408808751327045;
0,00386502603649147;
0,00367312382984026;
0,00364450474485874;
0,00372948656881433;
0,00369965159866438;
0,00331271183270236;
0,00251535631317719;
0,00152073050928574;
0,000690345659480837;
0,000302524192146439;
0,00037865695593389;
0,000693344913384147;
0,000951988702407849;
0,000993937056517412;
0,000869287000881306;
0,000746332528961661;
0,00074268165473458;
0,000825849644175104;
0,000859891278065403;
0,000745691835236725;
0,000523440698358442;
0,000341788940619542;
0,000316867700328405;
0,000404102095875117;
0,000401190080430091;
9,38201378637027E-5;
-0,000565419376755364;
-0,0107224560317357;
-0,0246887207128471;
-0,0187037076148439;
-0,0116201528103938;
-0,0139958912214938;
-0,00853533794334195;
-0,00701171518259447;
-0,00596889560792753;
-0,00223028945995814;
-0,00231750837981683;
8,90894189898387E-5;
0,00103361424443391;
0,00186365600465304;
0,00353166048320091;
0,0038230643956604;
0,00488679666276892;
0,00516508822199245;
0,00551975450152475;
0,00617701905678966;
0,00664150343300408;
0,0074617868978849;
0,00787986740629746;
0,00802423159333046;
0,0078427431439172;
0,00735598427741915;
0,00695165681527077;
0,00656014184899454;
0,00626857755979881;
0,00594151989242352;
0,00548444021857164;
0,00497789230029013;
0,00445779135383015;
0,0040335631289204;
0,00366690019773669;
0,00326249666567527;
0,00276217063535478;
0,0021807965201157;
0,00166884609698353;
0,00136488053483389;
0,00130546876937101;
0,00137257358318469;
0,00135027179605309;
0,0010795962969946;
0,000545770327419832;
-0,00011498384975923;
-0,000723977256104319;
-0,00118411094378345;
-0,0015222896364131;
-0,00184016085400603;
-0,00220814322730483;
-0,00260595138694907;
-0,00295021798613638;
-0,00317881550294763;
-0,00331614654358227;
-0,00345376364644141;
-0,0036641393598112;
-0,00392017347321775;
-0,00409545990359922;
-0,00405520696399401;
-0,00376869061039943;
-0,0033539647215488;
-0,00301322569872025;
-0,00290349398512734;
-0,00303827368627004;
-0,00329158594106302;
-0,00349732508778847;
-0,00356441799347002;
-0,00352147971824814;
-0,00346512022729274;
-0,00346357924871071;
-0,00349913251408864;
-0,00349408869903172;
-0,00339150943954716;
-0,00321507704717191;
-0,00305197214929281;
-0,00297103886981935;
-0,00294727988231478;
-0,00286256347569435;
-0,00259070090786464;
-0,00210340797788866;
-0,00151183525578856;
-0,00100581027670729;
-0,000732558311189824;
-0,000704513879086463;
-0,000803450085391763;
-0,000873612967619456;
-0,000829583896411364;
-0,000697947193902489;
-0,00056875378944563;
-0,000505406797331976;
-0,000490875221053452;
-0,000452116819222546;
-0,000335511371109459;
-0,00016268248342229;
-1,4426424847842E-5;
4,56760355661585E-5;
4,15820026903013E-5;
8,39896004892286E-5;
0,000290986350645969;
0,000689410418160096;
0,00117635307620496;
0,00157585407167384;
0,00175175108939516;
0,0016932812090679;
0,001511055122319;
0,00135040373902901;
0,00129121806038721;
0,00130938807379339;
0,0013219621733618;
0,00127076260910203;
0,00117218441465028;
0,00109446359331772;
0,00108776171875243;
0,0011325306578849;
0,00115448101004325;
0,00109529927319597;
0,000977626642575999;
0,000904204323165882;
0,000984465296082452;
0,00124345413087188;
0,00158641792662561;
0,0018512805396115;
0,00191280534420808;
0,00176145250633942;
0,00149950840626808;
0,00126111605969538;
0,00112001282739813;
0,00105412465092416;
0,00098724372810795;
0,000865996279256964;
0,00070558799609927;
0,000568821807694326;
0,000501814771704626;
0,000486613516470372;
0,000455022129103186;
0,000353550789358554;
0,000202986474191903;
9,75076742070667E-5;
0,000137315841644243;
0,000345198062969313;
0,000634210992369111;
0,000855859434733807;
0,00089548216519454;
0,000744328770749458;
0,000495881760939706;
0,000272642567913262;
0,00014181433116549;
8,30460223756562E-5;
2,65897992783535E-5;
-7,64092016420919E-5;
-0,000212219568177278;
-0,000323735096296262;
-0,000369112988815644;
-0,000364916858039544;
-0,000373445955815438;
-0,00044355492187945;
-0,00055646925241894;
-0,000626680214766251;
-0,000563282341456005;
-0,000345808998416001;
-5,34970194960867E-5;
0,000178595164245016;
0,000246246344176379;
0,000141434522356885;
-5,11220011586456E-5;
-0,000220462493108477;
-0,000305832281742424;
-0,000325839326181444;
-0,000343799090214802;
-0,000404052408824119;
-0,000494265960245238;
-0,000562882185875719;
-0,000572184481304781;
-0,000537268049803805;
-0,000514523635148366;
-0,000548142668486704;
-0,000621223661058861;
-0,000656660104227318;
-0,000572541959645859;
-0,000350533716791072;
-6,21659695684426E-5;
0,000170811406944388;
0,00025452892732446;
0,000181795806457859;
2,8877919312174E-5;
-0,000104414546663326;
-0,000163484398907582;
-0,000165091169990042;
-0,000166131765460424;
-0,000206411362912592;
-0,000274831150640747;
-0,000325109996680312;
-0,00032341720654853;
-0,000283289016568312;
-0,000255247256973164;
-0,000278837840686693;
-0,000338871851242465;
-0,000366292734311285;
-0,000287806963900961;
-8,703238284099E-5;
0,000172075870948007;
0,000380751049996889;
0,000455220025912344;
0,00038915927671406;
0,00025072093119538;
0,00012900135520308;
7,27158532080712E-5;
6,69528176036207E-5;
6,10635684207814E-5;
1,96617117513797E-5;
-4,73063897446522E-5;
-9,86077801123703E-5;
-0,000104119080842016;
-7,58451701608401E-5;
-5,86392123268192E-5;
-8,75667611284938E-5;
-0,000149076480722032;
-0,000181835566709405;
-0,000120811148724114;
4,85165571979364E-5;
0,000269463611266035;
0,000445702677397925;
0,000503115648915908;
0,000436184013171794;
0,000305268321500867;
0,000189194037035362;
0,000131034133316919;
0,000117623686603813;
0,000104257908769898;
5,97389783522899E-5;
-7,11949322860443E-6;
-5,99317118937707E-5;
-7,2138879732515E-5;
-5,43170958627179E-5;
-4,5954377444631E-5;
-7,78893698059417E-5;
-0,000138169038570856;
-0,000172843908853798;
-0,000124766035718982;
1,87864778844227E-5;
0,000208006053645448;
0,000358338806043122;
0,000404785682379323;
0,00034254602676528;
0,000224550581104157;
0,000119854992492737;
6,61562583369135E-5;
5,19131383222498E-5;
3,80141153321938E-5;
-2,81019772730273E-6;
-6,28502487986715E-5;
-0,000110330897346334;
-0,000122086571532307;
-0,000107368525950808;
-0,000100626258292309;
-0,000128737431586531;
-0,000181282019083175;
-0,000211291407725494;
-0,000169062144404363;
-4,35770227063E-5;
0,000121817711585058;
0,000253630830089993;
0,000295420625246105;
0,000243041100175912;
0,000142424266177627;
5,34376886482182E-5;
8,72427942152359E-6;
-1,73829070298462E-6;
-1,18203180114497E-5;
-4,51143689180096E-5;
-9,49516808364652E-5;
-0,000133879867153832;
-0,000141910989629521;
-0,000127054585547932;
-0,00011904479637533;
-0,000141055029595037;
-0,000184098580153432;
-0,000207727671671169;
-0,000169185695860977;
-5,90368864079055E-5;
8,54132673592099E-5;
0,000201001502279899;
0,000239269751090947;
0,000196684106086646;
0,000112658705216821;
3,85103773749735E-5;
2,18676836649716E-6;
-4,90989161573384E-6;
-1,1764500055075E-5;
-3,85425553805477E-5;
-7,95348699214966E-5;
-0,000111296141318524;
-0,000116778572815601;
-0,000102827365807044;
-9,47905577133577E-5;
-0,000112397002084513;
-0,000147981253128101;
-0,00016713025185801;
-0,000133511704139374;
-3,9140777286503E-5;
8,42822406443708E-5;
0,000183161290967047;
0,000216429601947576;
0,000181123685346864;
0,000110638481918017;
4,83980050650849E-5;
1,80226050898008E-5;
1,22384874031654E-5;
6,5762085314738E-6;
-1,59630860384861E-5;
-5,05502127011942E-5;
-7,74276810942891E-5;
-8,22500407629572E-5;
-7,07837498410058E-5;
-6,43339978770496E-5;
-7,94566839623498E-5;
-0,000109699414103467;
-0,000126194883145578;
-9,85106400997526E-5;
-1,99887647499866E-5;
8,28237762405226E-5;
0,000165117012804861;
0,000192607137690384;
0,000162852432796004;
0,000103727354097551;
5,14217876864782E-5;
2,55928625429956E-5;
2,01808090598755E-5;
1,48502338987184E-5;
-4,50106874687704E-6;
-3,38506642843406E-5;
-5,68143720708397E-5;
-6,15170871231769E-5;
-5,27397684860593E-5;
-4,80962627617297E-5;
-6,12481479519457E-5;
-8,68531726668917E-5;
-0,000101105512621975;
-7,89535073364671E-5;
-1,49483683990414E-5;
6,90586108628139E-5;
0,000136258374561564;
0,000158539121016485;
0,000133929397778608;
8,52773337892808E-5;
4,21914552268258E-5;
2,07244977131558E-5;
1,59180558460667E-5;
1,11890175930062E-5;
-4,93839514636826E-6;
-2,91775543457717E-5;
-4,82074471308281E-5;
-5,2395149582259E-5;
-4,56299886903303E-5;
-4,21833283636902E-5;
-5,30983967224082E-5;
-7,40415517867273E-5;
-8,57904933959377E-5;
-6,81627001218198E-5;
-1,68030283584428E-5;
5,06816217098201E-5;
0,000104710354904933;
0,000122743387735636;
0,000103230590415197;
6,44811121594042E-5;
3,01646011755015E-5;
1,30826724340327E-5;
9,2688899618541E-6;
5,51962694342485E-6;
-7,27738483802902E-6;
-2,64999137742348E-5;
-4,15848106010813E-5;
-4,49165528110029E-5;
-3,95828905567615E-5;
-3,68515003684672E-5;
-4,54144286849171E-5;
-6,18453135661709E-5;
-7,10373572271474E-5;
-5,71769921368151E-5;
-1,68888255003243E-5;
3,60269951222584E-5;
7,84680862204817E-5;
9,28858690795324E-5;
7,81065764333882E-5;
4,83759541917818E-5;
2,20502188439646E-5;
9,02413328198994E-6;
6,21876271259794E-6;
3,45051304118206E-6;
-6,28210528368264E-6;
-2,09503542442168E-5;
-3,24520957461904E-5;
-3,49705997981392E-5;
-3,08778030100043E-5;
-2,87635173883179E-5;
-3,52250123162112E-5;
-4,76440743442115E-5;
-5,45770979645273E-5;
-4,40967881663326E-5;
-1,36973435079177E-5;
2,62071164702293E-5;
5,82723160699651E-5;
6,93834392218004E-5;
5,87009700143339E-5;
3,686494461368E-5;
1,75191304982475E-5;
7,9820447188322E-6;
5,96224354510564E-6;
3,95187850224979E-6;
-3,18154344229855E-6;
-1,39345922380854E-5;
-2,23818993254824E-5;
-2,42964672739211E-5;
-2,14165840572589E-5;
-1,99656789891696E-5;
-2,46911556474162E-5;
-3,36883179370695E-5;
-3,87453097038025E-5;
-3,1361161540913E-5;
-9,79528407480533E-6;
1,85226921613142E-5;
4,13200181660488E-5;
4,93847643836758E-5;
4,21714908589234E-5;
2,71496194503681E-5;
1,38213733312032E-5;
7,2425746757231E-6;
5,81366867077044E-6;
4,37518388941973E-6;
-5,66232471052466E-7;
-7,96819820143602E-6;
-1,38131561120539E-5;
-1,52663717027288E-5;
-1,35109443669879E-5;
-1,26993586517887E-5;
-1,59613633806139E-5;
-2,20166642793722E-5;
-2,54777452123531E-5;
-2,08359640441648E-5;
-7,01809198489051E-6;
1,11508868414663E-5;
2,58212492089513E-5;
3,11828177033727E-5;
2,69460976741105E-5;
1,78197040094635E-5;
9,70176868796069E-6;
5,68020088950287E-6;
4,75688080692151E-6;
3,81234090075018E-6;
7,75944994438636E-7;
-3,71079319013586E-6;
-7,28569097192E-6;
-8,32113619224279E-6;
-7,51903661308506E-6;
-7,23844174161747E-6;
-9,20940423369882E-6;
-1,26925804993463E-5;
-1,47430956935966E-5;
-1,24382911623047E-5;
-5,28099065873815E-6;
4,15264577141418E-6;
1,18289864941119E-5;
1,48709018514626E-5;
1,32092695671549E-5;
9,17489782405984E-6;
5,56383112386622E-6;
3,77122844423528E-6;
3,3159329683403E-6;
2,83081954501696E-6;
1,46624122592234E-6;
-4,8094986874263E-7;
-2,06865439820855E-6;
-2,70391928765042E-6;
-2,67633335453786E-6;
-2,80969042379923E-6;
-3,63695361970251E-6;
-4,88194652816372E-6;
-5,68751505969272E-6;
-5,33938071815444E-6;
-3,8316082654895E-6;
-1,82185676463531E-6;
-9,0795197109326E-8;
9,82884614581374E-7;
1,51764949712086E-6;
1,82167963613267E-6;
2,05415931825845E-6;
2,17243509270671E-6;
2,13422964547404E-6;
2,05872779533496E-6;
2,13088234527452E-6;
2,35505290486514E-6;
2,47088568696772E-6;
2,19611998151637E-6;
1,5899791876593E-6;
1,12572598145739E-6;
1,28068933871469E-6;
1,93980898067807E-6;
2,19993716236473E-6;
9,15089859494263E-7;
-2,32186035937457E-6;
-6,55424316349065E-6;
-9,82811884506638E-6;
-1,04235720651904E-5;
-8,06458361526153E-6;
-4,13893321908626E-6;
-6,96627279047224E-7;
1,01613613073465E-6;
1,32431061312713E-6;
1,58926790256387E-6;
2,8596215351627E-6;
4,89520280712716E-6;
6,4328202463672E-6;
6,46116742268033E-6;
5,33012110263198E-6;
4,59186796133774E-6;
5,56308288600551E-6;
7,80337448494041E-6;
8,94884683457581E-6;
6,31158748589531E-6;
-8,57156994956452E-7;
-1,02643475248769E-5;
-1,76948927572064E-5;
-1,96953322468678E-5;
-1,58595340965453E-5;
-8,97325988671558E-6;
-2,90576737607184E-6;
1,06710868700481E-7;
6,9106232846369E-7;
1,22850074959393E-6;
3,47570554171582E-6;
6,99163106203863E-6;
9,69183059510079E-6;
9,96884596455606E-6;
8,41027974872047E-6;
7,4490172878028E-6;
9,08580757141912E-6;
1,26147529958123E-5;
1,44830696338639E-5;
1,07496893681327E-5;
3,88965849078806E-7;
-1,32217228927832E-5;
-2,40352071970899E-5;
-2,71952067502165E-5;
-2,21904048158687E-5;
-1,2934960727328E-5;
-4,76469045859009E-6;
-7,12831910972689E-7;
9,03949750071897E-8;
8,45146641743144E-7;
3,87563113841728E-6;
8,57934359583611E-6;
1,22144295802304E-5;
1,26971200792071E-5;
1,08050010991469E-5;
9,67295001642124E-6;
1,18458710505925E-5;
1,64062516207517E-5;
1,88571737813889E-5;
1,42642761684208E-5;
1,3832417054161E-6;
-1,55508497487972E-5;
-2,90444595860086E-5;
-3,31356955260317E-5;
-2,72305232406317E-5;
-1,61295702587148E-5;
-6,31878186375279E-6;
-1,45528571213089E-6;
-4,79332639235485E-7;
4,4816190635326E-7;
4,09307132707059E-6;
9,7267383987253E-6;
1,4096564358796E-5;
1,47496970636177E-5;
1,26110001731259E-5;
1,13575947413733E-5;
1,39535291381732E-5;
1,93178288623992E-5;
2,22279864308079E-5;
1,69883017083319E-5;
2,18775673792027E-6;
-1,72829493251705E-5;
-3,28277030516789E-5;
-3,76438497683498E-5;
-3,10747204838984E-5;
-1,85921201393209E-5;
-7,55061836376407E-6;
-2,07726083218924E-6;
-9,69338998510223E-7;
9,12532372686111E-8;
4,20030043994997E-6;
1,05343681912643E-5;
1,54602933299271E-5;
1,62512645290657E-5;
1,39415736233316E-5;
1,26090313500205E-5;
1,55261062111128E-5;
2,14910245756255E-5;
2,47491586060441E-5;
1,90487125411522E-5;
2,85796687178461E-6;
-1,84553406237213E-5;
-3,54962651190386E-5;
-4,08553137239119E-5;
-3,38309939755596E-5;
-2,03764296642842E-5;
-8,46660831057005E-6;
-2,56276878890201E-6;
-1,36061049292416E-6;
-2,03781483441315E-7;
4,23509357744632E-6;
1,10654404873709E-5;
1,63880065922835E-5;
1,72856468581701E-5;
1,48688493026661E-5;
1,34918310551451E-5;
1,66383170596201E-5;
2,30231715862483E-5;
2,65293158693761E-5;
2,05287829356297E-5;
3,40949388924647E-6;
-1,91401008146447E-5;
-3,71920518878784E-5;
-4,29347075742364E-5;
-3,56374145637516E-5;
-2,15688043939577E-5;
-9,10755097087219E-6;
-2,93060121404709E-6;
-1,66812818275283E-6;
-4,48240297219863E-7;
4,20236657514011E-6;
1,13500539530526E-5;
1,69291647050302E-5;
1,79050079321643E-5;
1,54353770549755E-5;
1,40428539240256E-5;
1,73379999139305E-5;
2,39848472799926E-5;
2,76511468398608E-5;
2,14888821033994E-5;
3,8406453976522E-6;
-1,9419839545228E-5;
-3,8061867324115E-5;
-4,40488746175691E-5;
-3,66346988690379E-5;
-2,22602013185552E-5;
-9,52050432859212E-6;
-3,2059288382613E-6;
-1,91221091840421E-6;
-6,57739884901011E-7;
4,10287553639186E-6;
1,14136931584094E-5;
1,71285158350731E-5;
1,81577570607145E-5;
1,56816649931114E-5;
1,42983209259208E-5;
1,7672591833952E-5;
2,44456062393871E-5;
2,81963635032475E-5;
2,19907442274708E-5;
4,15609025041203E-6;
-1,93645965613199E-5;
-3,82349917867665E-5;
-4,43453397219732E-5;
-3,69457498761568E-5;
-2,25269724098516E-5;
-9,74073056820319E-6;
-3,40338661606983E-6;
-2,10271870113057E-6;
-8,37550621207641E-7;
3,94673098817358E-6;
1,12895661635938E-5;
1,70372513349914E-5;
1,80985743689734E-5;
1,56551526234455E-5;
1,43017295533864E-5;
1,7695943575244E-5;
2,44797095313895E-5;
2,82504042371442E-5;
2,21012474929165E-5;
4,36982655484939E-6;
-1,90296082692486E-5;
-3,78216784001895E-5;
-4,39515919784163E-5;
-3,66757738593878E-5;
-2,24318254210462E-5;
-9,7934621252894E-6;
-3,52956729179768E-6;
-2,242194415091E-6;
-9,8633490235044E-7;
3,74907604184684E-6;
1,1013714107719E-5;
1,67076220187227E-5;
1,77826084148026E-5;
1,54040144041759E-5;
1,40973052954032E-5;
1,74614625980723E-5;
2,41589796252969E-5;
2,78950348847692E-5;
2,18848343508321E-5;
4,4975118899957E-6;
-1,84630144711657E-5;
-3,69208742798028E-5;
-4,29828204942801E-5;
-3,59200303514392E-5;
-2,20315614115396E-5;
-9,70159644701941E-6;
-3,59064180699437E-6;
-2,33338471633042E-6;
-1,1035497249108E-6;
3,52282823783262E-6;
1,06179213036741E-5;
1,6186019939192E-5;
1,72587451854496E-5;
1,49706532843419E-5;
1,37237349491482E-5;
1,70160888182038E-5;
2,35470288852626E-5;
2,72028520976826E-5;
2,13982921574589E-5;
4,55150410268288E-6;
-1,77105548329331E-5;
-3,56246383259502E-5;
-4,15460181487017E-5;
-3,47676023178964E-5;
-2,13805119974475E-5;
-9,48879434098773E-6;
-3,59514211400367E-6;
-2,38172623902861E-6;
-1,19163251128551E-6;
3,27678487303012E-6;
1,01281175333457E-5;
1,55116833379025E-5;
1,65685754804386E-5;
1,43909010418683E-5;
1,32136027673621E-5;
1,63999714028609E-5;
2,26991873084656E-5;
2,62374396341539E-5;
2,06910790448488E-5;
4,54130089606479E-6;
-1,68150419783139E-5;
-3,40175153656941E-5;
-3,973921483942E-5;
-3,33004157945995E-5;
-2,05293152170603E-5;
-9,178059358444E-6;
-3,5523852256361E-6;
-2,39364697510221E-6;
-1,25421269275088E-6;
3,01752148618597E-6;
9,56639510408863E-6;
1,47187870251897E-5;
1,57485370916114E-5;
1,36961878522782E-5;
1,25955710904042E-5;
1,56486996749463E-5;
2,16647881576933E-5;
2,50556623913656E-5;
1,98075629862728E-5;
4,47563725154877E-6;
-1,58144663059208E-5;
-3,21747997447972E-5;
-3,76497887383934E-5;
-3,15915233392935E-5;
-1,95231285260235E-5;
-8,78988097737541E-6;
-3,47061661331543E-6;
-2,37477063034687E-6;
-1,29436514217074E-6;
2,75111920681152E-6;
8,95271268952455E-6;
1,38381175592459E-5;
1,48315213372236E-5;
1,29150321230331E-5;
1,18957709877331E-5;
1,4794623376322E-5;
2,04884570664198E-5;
2,37089169227752E-5;
1,87881185951135E-5;
4,36332047023532E-6;
-1,47414495648737E-5;
-3,01622401566618E-5;
-3,53543069230255E-5;
-2,97049247676923E-5;
-1,84013620632801E-5;
-8,34191405634613E-6;
-3,35670163533889E-6;
-2,32966110451037E-6;
-1,31440509942109E-6;
2,48333940604241E-6;
8,30508807069302E-6;
1,28972733865328E-5;
1,38470057425731E-5;
1,20730852564501E-5;
1,11377747560097E-5;
1,38668106101908E-5;
1,92100976233404E-5;
2,22430923616334E-5;
1,76689726060574E-5;
4,212845103635E-6;
0,00931981010923234;
0,0226016928606435;
0,0163398177544757;
0,00940539968562681;
0,0121521933424501;
0,00701831772956057;
0,00563160045204543;
0,00458044768889075;
0,000839183650827846;
0,00103461149790138;
-0,00118280031269499;
-0,0019800323626827;
-0,00279431623408877;
-0,00454248856826538;
-0,00487698280172042;
-0,00584301001174926;
-0,00592335266223588;
-0,00616178998083681;
-0,00697709475660593;
-0,00791667167456496;
-0,0093613739793054;
-0,0102687371848759;
-0,010548902811011;
-0,0101341380192483;
-0,00922360918113773;
-0,00843762348114893;
-0,00783349032239801;
-0,00745964827813126;
-0,00704935596401321;
-0,00641671469835693;
-0,00566848545999089;
-0,00494755963201947;
-0,00444130686578242;
-0,00408047425335837;
-0,00365429919858408;
-0,00301467933089526;
-0,00221175050667298;
-0,00155371978033367;
-0,00134582205445414;
-0,00166141842490795;
-0,00223707356822619;
-0,00261070102736063;
-0,00243461817867283;
-0,00168068675861671;
-0,000639399751333763;
0,000309884413793757;
0,000960783204520275;
0,00137379224155457;
0,00176385633828406;
0,00228017797848954;
0,00288001483469415;
0,00338814556592915;
0,00367566935038572;
0,0037938160783971;
0,00393345377841075;
0,00424432568153466;
0,00466919115101072;
0,0049466350213472;
0,00479940613706947;
0,00416566056760663;
0,00328816649080291;
0,0025797597463788;
0,00235872767879743;
0,00264994085334183;
0,00319578620375045;
0,00365915965335428;
0,00385607446943671;
0,0038439793615606;
0,00381606826136304;
0,0039076713233172;
0,0040820420085462;
0,00418358123098176;
0,00409884196790073;
0,0038744368492983;
0,00368184400150029;
0,00365539429676054;
0,003744587946334;
0,0037171683890459;
0,0033267177628258;
0,00251892461170604;
0,00151042589420587;
0,000668792761983743;
0,000277093278933217;
0,000357177003189453;
0,000679915720007224;
0,000945744947874803;
0,00099125465283612;
0,000867337740648447;
0,000745115948427852;
0,000744199155591901;
0,000831560564465352;
0,000868928615001954;
0,000755463012140377;
0,000532004734414314;
0,00034974024181311;
0,000326811973289367;
0,000417901158938508;
0,000417210401505325;
0,000106667333046699;
-0,000562053680878483;
-0,0107317084113204;
-0,0247082196954001;
-0,0187267664913222;
-0,0116396628452397;
-0,0140081244778481;
-0,00854107020340028;
-0,00701422552653306;
-0,00597074351322292;
-0,00223147291603638;
-0,00231621190402783;
9,41908012760884E-5;
0,00104173947372768;
0,00187246159615079;
0,00353939116977672;
0,00383025693598124;
0,00489580626633446;
0,00517759872640593;
0,00553429245256988;
0,0061887132342023;
0,0066446539818176;
0,00745355207882763;
0,00786237192087664;
0,00800349291720607;
0,00782516429119559;
0,0073449282288236;
0,00694643427349141;
0,00655781019818245;
0,00626683941540069;
0,00594037938264637;
0,00548553104384401;
0,00498240795241501;
0,00446503416244468;
0,00404143209828745;
0,00367382091737741;
0,0032689498762615;
0,00277026785527033;
0,00219204836934234;
0,0016819345208012;
0,00137544262782732;
0,0013083961979103;
0,0013653120512966;
0,00133470825455456;
0,00106110071476969;
0,000530062352810613;
-0,000124895184226714;
-0,000728698634812156;
-0,00118626058259384;
-0,00152391219760093;
-0,00184125043629308;
-0,00220724184126814;
-0,00260199274269382;
-0,00294381973705972;
-0,00317184520278358;
-0,00331000442919271;
-0,00344802281970279;
-0,00365692278189789;
-0,00391013727285248;
-0,00408377291620938;
-0,00404574354370672;
-0,00376599028461715;
-0,00336030458978739;
-0,00302694547989533;
-0,00291984361133627;
-0,00305218828321897;
-0,00330039613877913;
-0,00350155944808588;
-0,00356638516704356;
-0,00352298316588549;
-0,00346615260154334;
-0,00346285066766347;
-0,00349569849067034;
-0,00348849087847008;
-0,00338539289881395;
-0,0032096759578737;
-0,00304691085551214;
-0,00296466372378398;
-0,00293840595347794;
-0,00285221772397354;
-0,00258229272982602;
-0,00210093527982902;
-0,00151731043993652;
-0,00101778709129932;
-0,000746874470215956;
-0,000716725883567395;
-0,00081121139734038;
-0,000877378962279473;
-0,000831370591683413;
-0,000699330004089776;
-0,000569724224515895;
-0,000504834305229591;
-0,000487930864385489;
-0,000447270708004358;
-0,000330198512357148;
-0,000157980179062405;
-1,00073401465716E-5;
5,12546662241645E-5;
4,93549789470185E-5;
9,30636230974592E-5;
0,000298390525314324;
0,000691657922458374;
0,00117168198863524;
0,00156551036707597;
0,00173934470041966;
0,00168267120377428;
0,00150428393154211;
0,0013470839281662;
0,00128960780969021;
0,00130812569372133;
0,00132105700659795;
0,00127119552048152;
0,00117467567816497;
0,00109860983037064;
0,00109232455788024;
0,00113657970370429;
0,0011582984199842;
0,00110013043963737;
0,000984365770488715;
0,000912082952251917;
0,000990922552866163;
0,00124548137155031;
0,00158248825778327;
0,00184245412776489;
0,00190217745103745;
0,0017523371443105;
0,00149366393930139;
0,00125821759157532;
0,00111857330389335;
0,00105298100898559;
0,000986405906880469;
0,00086630567496222;
0,000707663538507856;
0,000572321845292537;
0,0005056834695184;
0,000490056920559938;
0,000458280502506681;
0,000357686310636245;
0,000208762749840492;
0,000104271886554223;
0,000142887380507519;
0,000347012033756585;
0,000630959256125171;
0,000848431206469654;
0,000886497055455584;
0,000736596581175009;
0,000490897644047335;
0,000270138702443058;
0,000140538456134792;
8,20181803288262E-5;
2,58202907815997E-5;
-7,62078900101936E-5;
-0,000210522275507988;
-0,000320826842540973;
-0,000365881522844712;
-0,000362030427174831;
-0,000370702834712341;
-0,000440061652797374;
-0,000551582580958586;
-0,000620946696126925;
-0,00055853272444076;
-0,000344199628110249;
-5,61340208565542E-5;
0,000172445010962041;
0,000238766570417522;
0,0001349721984748;
-5,53136916106907E-5;
-0,000222599719981307;
-0,000306952648671455;
-0,000326755342933091;
-0,000344500298764854;
-0,000403944535162322;
-0,000492909931556619;
-0,000560511485467279;
-0,000569533309843259;
-0,000534889752836153;
-0,000512251654731663;
-0,000545237700932188;
-0,00061715249744121;
-0,000651872439208414;
-0,000568549179749096;
-0,000349118964119831;
-6,42502478923385E-5;
0,000165820146264572;
0,000248417583208329;
0,000176490132485077;
2,54104023633796E-5;
-0,000106213744340203;
-0,000164458198739301;
-0,0001659001669087;
-0,000166765530072498;
-0,000206383172891874;
-0,000273780359240527;
-0,000323223578977269;
-0,000321290202515196;
-0,000281370578235619;
-0,000253402669170535;
-0,000276467533810367;
-0,000335542450857578;
-0,000362366345081094;
-0,000284505759949044;
-8,58012657424126E-5;
0,000170484237682199;
0,000376802014913284;
0,00045034264912631;
0,000384898758490464;
0,000247910028260531;
0,000127511433778727;
7,18791177527764E-5;
6,62453775144697E-5;
6,04956743588572E-5;
1,96229960062867E-5;
-4,65261632328572E-5;
-9,71539612979578E-5;
-0,000102461618582759;
-7,4339494364241E-5;
-5,71792049453609E-5;
-8,56784968224664E-5;
-0,000146416437124332;
-0,000178687297073472;
-0,000118137027148246;
4,9575727371437E-5;
0,00026830705303646;
0,000442683026482267;
0,000499341778561137;
0,000432860192926643;
0,000303048022446655;
0,000187984914214387;
0,000130324604930875;
0,000117011855133389;
0,000103753708553614;
5,96451172754266E-5;
-6,57680231521744E-6;
-5,88608989117269E-5;
-7,08983905532316E-5;
-5,31787576157407E-5;
-4,4837539806053E-5;
-7,64321465647856E-5;
-0,000136108107225636;
-0,000170392974172892;
-0,000122656047409914;
1,96858506123945E-5;
0,000207229971217416;
0,000356140547924547;
0,000401990101417413;
0,000340054564268885;
0,00022285711572532;
0,000118898821062103;
6,55639087242498E-5;
5,13906211572903E-5;
3,75709440410977E-5;
-2,94848591676838E-6;
-6,25139432569973E-5;
-0,000109595979433009;
-0,000121212975727178;
-0,000106554159173628;
-9,98129498034633E-5;
-0,000127662324467285;
-0,000179752759827979;
-0,000209460155876726;
-0,000167455521841096;
-4,28250659958303E-5;
0,000121370803164538;
0,000252151613473586;
0,000293484325943564;
0,000241282608090304;
0,00014119664953655;
5,27075286407596E-5;
8,23906358935321E-6;
-2,17800330489041E-6;
-1,22055240178929E-5;
-4,52874140161708E-5;
-9,47926441399447E-5;
-0,000133436502561411;
-0,000141357026121832;
-0,000126523183951969;
-0,000118497435084182;
-0,000140315564368638;
-0,000183036875557049;
-0,000206442181859507;
-0,000168024350469706;
-5,84199200074651E-5;
8,52477561642835E-5;
0,000200145193972812;
0,000238080651823333;
0,000195564776140514;
0,000111839161405553;
3,79804357881083E-5;
1,7987599540728E-6;
-5,27340835134842E-6;
-1,2095099857758E-5;
-3,87417162110666E-5;
-7,95261259011761E-5;
-0,000111102964880851;
-0,000116500028678683;
-0,00010254048609003;
-9,44738223982775E-5;
-0,000111949415809278;
-0,000147326677089834;
-0,000166320774881848;
-0,00013274061087387;
-3,86464981173881E-5;
8,43540147836188E-5;
0,000182838365783104;
0,000215883043277753;
0,000180555734733222;
0,000110172744649954;
4,80438048674655E-5;
1,77221067908379E-5;
1,19445547868085E-5;
6,29664002135512E-6;
-1,61807256725683E-5;
-5,06669805043485E-5;
-7,74464178514445E-5;
-8,22058985937503E-5;
-7,07056607099923E-5;
-6,42149801227082E-5;
-7,92601229565116E-5;
-0,000109395501100226;
-0,000125796163880536;
-9,80781182052952E-5;
-1,9605129581E-5;
8,30924454206012E-5;
0,000165244791292931;
0,000192606200767161;
0,00016275439623988;
0,00010356488056513;
5,12203016729669E-5;
2,53704971391418E-5;
1,99499279035804E-5;
1,46179779811497E-5;
-4,73050748229634E-6;
-3,40703616271353E-5;
-5,70099035409799E-5;
-6,16696103654265E-5;
-5,2837525963045E-5;
-4,81445420412408E-5;
-6,12647714879765E-5;
-8,68475820663268E-5;
-0,000101056990516814;
-7,88114077158815E-5;
-1,46637113183708E-5;
6,94874960688192E-5;
0,000136761105119035;
0,000158994767340742;
0,000134226269815015;
8,53714171426802E-5;
4,21211946606435E-5;
2,05712851724699E-5;
1,57438501770355E-5;
1,10002837332116E-5;
-5,1738675497722E-6;
-2,94797855749541E-5;
-4,85478069346252E-5;
-5,27098918171448E-5;
-4,58734635076129E-5;
-4,23710108795327E-5;
-5,3293437201412E-5;
-7,42861448075551E-5;
-8,60363990664271E-5;
-6,8266514283762E-5;
-1,66061537196666E-5;
5,12377003765573E-5;
0,000105519198177992;
0,000123574466969384;
0,00010385386167925;
6,47889330836588E-5;
3,02056654631373E-5;
1,29900855572891E-5;
9,145193494811E-6;
5,37060459776334E-6;
-7,51397784894241E-6;
-2,68664098942362E-5;
-4,20411431298985E-5;
-4,53623269591758E-5;
-3,99447438669693E-5;
-3,71532091055333E-5;
-4,5756190343351E-5;
-6,22961645181635E-5;
-7,15267379130701E-5;
-5,7485891182749E-5;
-1,67690780754833E-5;
3,66807891673244E-5;
7,95209883435773E-5;
9,40190163032252E-5;
7,89941655131158E-5;
4,88585627015363E-5;
2,21843271254203E-5;
8,9841450413816E-6;
6,13967174317804E-6;
3,33742876654839E-6;
-6,51569934506316E-6;
-2,13648996632009E-5;
-3,29985709278681E-5;
-3,55194027165608E-5;
-3,13334327219589E-5;
-2,9156352920115E-5;
-3,56848291888043E-5;
-4,82614137078955E-5;
-5,52637595758293E-5;
-4,45736074935051E-5;
-1,36446685375458E-5;
2,69325552851549E-5;
5,9513810209594E-5;
7,07528682852612E-5;
5,97970752304066E-5;
3,74871918736572E-5;
1,7729612400703E-5;
7,98714872299425E-6;
5,92214832177766E-6;
3,87103453917702E-6;
-3,40874998735995E-6;
-1,43829279819782E-5;
-2,29955955236225E-5;
-2,49233685333576E-5;
-2,19440364959847E-5;
-2,04291449139039E-5;
-2,52433120805955E-5;
-3,44364283944416E-5;
-3,95877036416355E-5;
-3,19723353864495E-5;
-9,80026743029473E-6;
1,92969386980235E-5;
4,27009582869988E-5;
5,09319888973036E-5;
4,34263714423328E-5;
2,78800405202875E-5;
1,40931473297296E-5;
7,28581600242586E-6;
5,80728856288852E-6;
4,32299724445564E-6;
-7,84327131811207E-7;
-8,437916903835E-6;
-1,447392779659E-5;
-1,59493789396525E-5;
-1,40908014477205E-5;
-1,32152716393058E-5;
-1,65829833591408E-5;
-2,28637360575922E-5;
-2,64388150268463E-5;
-2,15514135027367E-5;
-7,07198293871005E-6;
1,19541445279507E-5;
2,72984961663566E-5;
3,28563104441582E-5;
2,83158102144846E-5;
1,86303769943181E-5;
1,00212972135969E-5;
5,75517700465044E-6;
4,77927803931569E-6;
3,78536942066819E-6;
5,6908878862958E-7;
-4,1912173090493E-6;
-7,97600163621663E-6;
-9,0410292812263E-6;
-8,13428461754028E-6;
-7,79081175242727E-6;
-9,88032003784556E-6;
-1,36105314644951E-5;
-1,57900701746281E-5;
-1,32312944671981E-5;
-5,3757182392392E-6;
4,96795795561857E-6;
1,3365055347726E-5;
1,66257079758425E-5;
1,46553560576913E-5;
1,00412656058803E-5;
5,91906469871866E-6;
3,87209254798187E-6;
3,36253205108637E-6;
2,8257906975251E-6;
1,27221224264887E-6;
-9,63010620790445E-7;
-2,77341652632262E-6;
-3,44408629601731E-6;
-3,31221959380353E-6;
-3,38460029573655E-6;
-4,33955515937077E-6;
-5,84622494394979E-6;
-6,79169072058817E-6;
-6,18640489011965E-6;
-3,95978127318087E-6;
-1,00881784067489E-6;
1,47189281786773E-6;
2,78020145116339E-6;
3,00680418942839E-6;
2,72236155059147E-6;
2,43446919702705E-6;
2,29388759592932E-6;
2,2008152567668E-6;
2,07255348716263E-6;
1,95079857863469E-6;
1,87895073013877E-6;
1,76449788444052E-6;
1,44986896885195E-6;
9,46103343872618E-7;
5,4025585303985E-7;
5,61609868447952E-7;
9,50453224519651E-7;
1,06345209067954E-6;
3,45661922501481E-8;
-2,47676167654898E-6;
-5,75540372490872E-6;
-8,26613275079674E-6;
-8,61683072195001E-6;
-6,56087261489574E-6;
-3,22235428434283E-6;
-3,0053264504197E-7;
1,15341055852058E-6;
1,40703752247515E-6;
1,61905926264699E-6;
2,69418811505715E-6;
4,43130430813056E-6;
5,73554420794967E-6;
5,72078901427096E-6;
4,68895301250571E-6;
4,00602379307408E-6;
4,84051248499312E-6;
6,80711132064054E-6;
7,80138747730351E-6;
5,4152694687467E-6;
-1,0327355945878E-6;
-9,48944452878415E-6;
-1,61564399898729E-5;
-1,79069924191783E-5;
-1,4365352130925E-5;
-8,05645010818154E-6;
-2,50191881417069E-6;
2,55559226385485E-7;
7,86441371248634E-7;
1,27157642899E-6;
3,32526936913923E-6;
6,5449618465819E-6;
9,01250930983789E-6;
9,24425176633753E-6;
7,78073402384013E-6;
6,87133823716752E-6;
8,37067703242331E-6;
1,16269157026806E-5;
1,33426909929543E-5;
9,85267186520676E-6;
1,98123618778802E-7;
-1,24785177572758E-5;
-2,25390296536934E-5;
-2,54482841568842E-5;
-2,07257857478077E-5;
-1,20310607948002E-5;
-4,35995104099384E-6;
-5,56161453742722E-7;
1,95293543612561E-7;
8,99037361794308E-7;
3,74023746507794E-6;
8,15383394860516E-6;
1,15601809462146E-5;
1,19963686213671E-5;
1,01943667984618E-5;
9,11046698074353E-6;
1,11472374050802E-5;
1,5439576549525E-5;
1,77389175426723E-5;
1,33792464082194E-5;
1,1819340117005E-6;
-1,48453442090133E-5;
-2,76056088882812E-5;
-3,14488469257847E-5;
-2,58118143808956E-5;
-1,52494075833466E-5;
-5,91893530149204E-6;
-1,29407946032491E-6;
-3,67704227473636E-7;
5,10615073853164E-7;
3,97250891515931E-6;
9,3253484141645E-6;
1,34729682223126E-5;
1,40791774510067E-5;
1,20251028605987E-5;
1,08159769762029E-5;
1,32787435147774E-5;
1,83826897617918E-5;
2,11441570267592E-5;
1,61257481615686E-5;
1,98019668056855E-6;
-1,66195764504388E-5;
-3,1457923016195E-5;
-3,60318160404968E-5;
-2,97149466523784E-5;
-1,7744435279876E-5;
-7,16046234418286E-6;
-1,91436390672294E-6;
-8,53444818833243E-7;
1,60227118916402E-7;
4,09414813954694E-6;
1,01592018907159E-5;
1,48715590403533E-5;
1,56158753115644E-5;
1,33849242962048E-5;
1,20927223449188E-5;
1,48809864133248E-5;
2,0595671169726E-5;
2,37095889924825E-5;
1,82171286209879E-5;
2,64781429128078E-6;
-1,78371670476655E-5;
-3,42043586815517E-5;
-3,93293381833908E-5;
-3,25402132025397E-5;
-1,95680868882339E-5;
-8,09004037297527E-6;
-2,40061264322377E-6;
-1,24260553017148E-6;
-1,30119581061674E-7;
4,14276746282158E-6;
1,07178572488383E-5;
1,58371322925538E-5;
1,66889676081293E-5;
1,43447998350273E-5;
1,30041914090564E-5;
1,60273161562539E-5;
2,21739521758315E-5;
2,55416259841705E-5;
1,97348694886352E-5;
3,19989127193879E-6;
-1,8569000210707E-5;
-3,59842357054141E-5;
-4,15029502807857E-5;
-3,44230547778285E-5;
-2,08049967956583E-5;
-8,74766021767313E-6;
-2,77123815077336E-6;
-1,54987110411523E-6;
-3,71516638340294E-7;
4,12314700828198E-6;
1,10307640881797E-5;
1,64180958854752E-5;
1,73494688115751E-5;
1,49462538628188E-5;
1,35862783110078E-5;
1,67643605014124E-5;
2,31864257252999E-5;
2,67209913436104E-5;
2,07377391756181E-5;
3,6342559116859E-6;
-1,88966664019292E-5;
-3,69421071542826E-5;
-4,27167896355296E-5;
-3,55018733236627E-5;
-2,15446472918266E-5;
-9,17965674272526E-6;
-3,05105752602228E-6;
-1,79528699087662E-6;
-5,79390912355429E-7;
4,03594600825069E-6;
1,11228679042782E-5;
1,66582910112192E-5;
1,76447811971813E-5;
1,52289076392915E-5;
1,38743686396204E-5;
1,71384928214771E-5;
2,37011682921654E-5;
2,73276702400223E-5;
2,12860567788644E-5;
3,95513435411348E-6;
-1,88893363294939E-5;
-3,72053078071055E-5;
-4,31160442806346E-5;
-3,5897562222725E-5;
-2,18620960841997E-5;
-9,42065088789314E-6;
-3,25439043300416E-6;
-1,98846167723704E-6;
-7,58824372627801E-7;
3,89120692863844E-6;
1,10269098238063E-5;
1,66081276023511E-5;
1,7628728080707E-5;
1,52394334311646E-5;
1,39112321075183E-5;
1,72026450323842E-5;
2,37911552880341E-5;
2,74455951615951E-5;
2,14454587068491E-5;
4,17611739808284E-6;
-1,86015262419904E-5;
-3,68824361868153E-5;
-4,28261970913819E-5;
-3,57136027757674E-5;
-2,18189374841973E-5;
-9,49530933943489E-6;
-3,38753623237442E-6;
-2,13170365614199E-6;
-9,08304508768937E-7;
3,70403156131072E-6;
1,07785558798907E-5;
1,63192090309728E-5;
1,73557330495362E-5;
1,502535676557E-5;
1,37404778899034E-5;
1,70094379064008E-5;
2,35271060748483E-5;
2,71552354272006E-5;
2,12793120451441E-5;
4,31249602277472E-6;
-1,80807829435879E-5;
-3,60710531855693E-5;
-4,1960745866319E-5;
-3,50437877999426E-5;
-2,14710206497847E-5;
-9,42604257070015E-6;
-3,45640856848053E-6;
-2,22754663738635E-6;
-1,0271220665508E-6;
3,48731614313449E-6;
1,04092819703631E-5;
1,58373891516796E-5;
1,68740774812427E-5;
1,46285340563043E-5;
1,34002690565366E-5;
1,66051390091035E-5;
2,29716922606105E-5;
2,65280825300507E-5;
2,08434794032586E-5;
4,37629392717012E-6;
-1,7372373571883E-5;
-3,48620689511331E-5;
-4,06252759882564E-5;
-3,39759743823931E-5;
-2,08718656890168E-5;
-9,23608714522881E-6;
-3,46930582869202E-6;
-2,28122933239609E-6;
-1,11756426515074E-6;
3,24985320656837E-6;
9,94477777241788E-6;
1,52014653809739E-5;
1,6224855056466E-5;
1,40843525725289E-5;
1,29227597879443E-5;
1,60293440138823E-5;
2,21794642573124E-5;
2,5626795453164E-5;
2,01866369830828E-5;
4,37671413303484E-6;
-1,65187419617953E-5;
-3,33391052913613E-5;
-3,89166646393455E-5;
-3,25910779677127E-5;
-2,00714464924426E-5;
-8,94809021200272E-6;
-3,43534288219141E-6;
-2,29901063366982E-6;
-1,18312070093131E-6;
2,9982363879866E-6;
9,40695428266364E-6;
1,44452671269401E-5;
1,54441105638284E-5;
1,34238800430908E-5;
1,23362555289734E-5;
1,53171810354565E-5;
2,11991088584093E-5;
2,45074761212357E-5;
1,93525022785773E-5;
4,32222776878828E-6;
-1,55576029980453E-5;
-3,15767229568778E-5;
-3,69213733951999E-5;
-3,09613402402149E-5;
-1,91143725805831E-5;
-8,58223812248799E-6;
-3,36258670898651E-6;
-2,28636294704951E-6;
-1,22673840453644E-6;
2,73857140467543E-6;
8,8156401429741E-6;
1,35993253811977E-5;
1,45644288245775E-5;
1,26753514120319E-5;
1,16666127426405E-5;
1,45006372344984E-5;
2,00747341462824E-5;
2,32209011447555E-5;
1,83809139327578E-5;
4,22141281570784E-6;
-1,45213875056458E-5;
-2,96401207600877E-5;
-3,47152646290331E-5;
-2,91501310573638E-5;
-1,80396240604313E-5;
-8,15594491583321E-6;
-3,25774871061376E-6;
-2,24770583792648E-6;
-1,2506154227451E-6;
2,47665563518671E-6;
8,18876510299389E-6;
1,269104164591E-5;
1,36150580224152E-5;
1,18642055255518E-5;
1,09371896940603E-5;
1,36085000078101E-5;
1,8845840086441E-5;
2,18124744787721E-5;
1,73076748165348E-5;
4,08256297448061E-6;
-1,34379196619084E-5;
-2,75860257777965E-5;
-3,23645676173693E-5;
-2,72128429468595E-5;
-1,68812932175116E-5;
-7,68445204532731E-6;
-3,12673302523424E-6;
-2,18697117660812E-6;
-1,25675389548477E-6;
2,21748092835903E-6;
7,54194287849313E-6;
1,17443329163014E-5;
1,26215530264685E-5;
1,10126957545662E-5;
1,01684466720111E-5;
1,2665989471197E-5;
1,75470244890149E-5;
2,03219843290456E-5;
1,61642370142935E-5;
3,9131692096631E-6;
-1,23311969150467E-5;
-2,54636760486551E-5;
-2,99269011388567E-5;
-2,51977903107061E-5;
-1,56692772408396E-5;
-7,18134146609828E-6;
-2,97504178325776E-6;
-2,10795498377531E-6;
-1,24727994809391E-6;
1,96498796644948E-6;
6,88833704276807E-6;
1,07795829500759E-5;
1,16057563123666E-5;
1,01398503458932E-5;
9,37790454961862E-6;
1,16947871492512E-5;
1,62081119701155E-5;
1,87837895632824E-5;
1,49778253615929E-5;
3,71982907066718E-6;
-1,122176609755E-5;
-2,33154157941829E-5;
-2,74519139821063E-5;
-2,31467189383366E-5;
-1,44295739043074E-5;
-6,65863314772751E-6;
-2,80776811786921E-6;
-2,01428914173629E-6;
-1,22437827702537E-6;
1,72220907410041E-6;
6,23890002534337E-6;
9,81397019479731E-6;
1,05861491416058E-5;
9,26180130558525E-6;
8,58045708490086E-6;
1,07133786385712E-5;
1,48545938879915E-5;
1,72273100432751E-5;
1,37718342984497E-5;
3,5084105013745E-6;
-1,01268666773382E-5;
-2,11770780559418E-5;
-2,49817442783038E-5;
-2,10951485861854E-5;
-1,3184396704841E-5;
-6,12673648333015E-6;
-2,62946906155751E-6;
-1,90928068755684E-6;
-1,19012748231691E-6;
1,49149482286392E-6;
5,6027110028642E-6;
8,86186989630715E-6;
9,57825496923934E-6;
8,39213510296364E-6;
7,78868956250025E-6;
9,73742743089701E-6;
1,3508075424992E-5;
1,56775111445796E-5;
1,25662251171793E-5;
3,28418212183329E-6;
-9,06062966855377E-6;
-1,90784422063067E-5;
-2,25515391736157E-5;
-1,90727833147912E-5;
-1,1952410573969E-5;
-5,59448765660934E-6;
-2,44410940899116E-6;
-1,79586075439333E-6;
-1,14642654030006E-6;
1,27464382652271E-6;
4,98719209199322E-6;
7,93514212146824E-6;
8,59492461764703E-6;
7,54214800085488E-6;
7,01311395797428E-6;
8,78002780580449E-6;
1,21866185130213E-5;
1,41552850538697E-5;
1,13777991123693E-5;
3,05184724285451E-6;
-8,03437311144249E-6;
-1,70437840253925E-5;
-2,0190089415505E-5;
-1,71040421554063E-5;
-1,07490406909793E-5;
-5,06929697290986E-6;
-2,25512319229455E-6;
-1,67661831287599E-6;
-1,09501504685672E-6;
1,0729534236414E-6;
4,3982408693406E-6;
7,04334261254479E-6;
7,64657760635181E-6;
6,7210259388439E-6;
6,26231321726944E-6;
7,85190495958934E-6;
1,09050216707911E-5;
1,2677780438647E-5;
1,02204436474004E-5;
2,81552866977264E-6;
-7,05692989608295E-6;
-1,50924583045998E-5;
-1,79204896756451E-5;
-1,52085980871547E-5;
-9,58681213572839E-6;
-4,55730183284262E-6;
-2,0654778188794E-6;
-1,55384767580353E-6;
-1,03750988370609E-6;
8,87237949644136E-7;
3,84037683308827E-6;
6,19393413554552E-6;
6,74139423865073E-6;
5,93602565452845E-6;
5,54310958330069E-6;
6,96161897461271E-6;
9,67511635716684E-6;
1,12587327836771E-5;
9,10537464371552E-6;
2,57878328201111E-6;
-6,13495045326099E-6;
-1,32394389553784E-5;
-1,57607413558562E-5;
-1,34018818256998E-5;
-8,47564745424856E-6;
-4,06349004417683E-6;
-1,87772127170837E-6;
-1,42957828636763E-6;
-9,75405045926743E-7;
7,1789993933146E-7;
3,31688325684932E-6;
5,39251438108436E-6;
5,88557716437457E-6;
5,19268142844668E-6;
4,86074971340769E-6;
6,1157859007062E-6;
8,50607029726407E-6;
9,90882915435426E-6;
8,04141352296387E-6;
2,34464424261619E-6;
-5,27315337780178E-6;
-1,14958120649153E-5;
-1,37243210596531E-5;
-1,16955427175286E-5;
-7,42315439173936E-6;
-3,59182455445998E-6;
-1,69399944940466E-6;
-1,3055704882926E-6;
-9,10062547233697E-7;
5,64998728824074E-7;
2,82997786498827E-6;
4,64304628982676E-6;
5,08358797123966E-6;
4,49501662974393E-6;
4,21909303566737E-6;
5,31932084956088E-6;
7,40470642119353E-6;
8,6360533879112E-6;
7,03525718403224E-6;
2,11566453261065E-6;
-4,47457125089539E-6;
-9,86923915398092E-6;
-1,18207085033521E-5;
-1,00978839358714E-5;
-6,43486422879258E-6;
-3,14531972513805E-6;
-1,51608439523426E-6;
-1,18332991206028E-6;
-8,42699146545156E-7;
4,28314289611028E-7;
2,38095982518471E-6;
3,94807705539448E-6;
4,33836982334674E-6;
3,84573702958899E-6;
3,62078905435679E-6;
4,57563504803633E-6;
6,37578300591238E-6;
7,4460107119075E-6;
6,09172611773745E-6;
1,89396872798408E-6;
-3,74077633996535E-6;
-8,36440699555739E-6;
-1,00559081193492E-5;
-8,61429175622726E-6;
-5,51450003157136E-6;
-2,72616761576471E-6;
-1,34540357517383E-6;
-1,06412160095222E-6;
-7,74399117499255E-7;
3,07396955120333E-7;
1,97034458775068E-6;
3,30893307925342E-6;
3,65155459663038E-6;
3,24640309825061E-6;
3,06743429405235E-6;
3,88683455330116E-6;
5,42225881834736E-6;
6,34223917807982E-6;
5,21399623190499E-6;
1,68127392992819E-6;
-3,07210300523637E-6;
-6,98344768323142E-6;
-8,43292111184356E-6;
-7,24762550131115E-6;
-4,66421277466488E-6;
-2,33582900834838E-6;
-1,1830770296764E-6;
-9,48990329668703E-7;
-7,06111358249528E-7;
2,01612424596698E-7;
1,59797994289435E-6;
2,72589454122275E-6;
3,02365444230082E-6;
2,69759763549179E-6;
2,5597151584692E-6;
3,25389934435909E-6;
4,54554195105408E-6;
5,32647774795824E-6;
4,40381419793362E-6;
1,4789358002019E-6;
-2,46785224540829E-6;
-5,72632748842584E-6;
-6,95219928895587E-6;
-5,99859436558899E-6;
-3,88480600830996E-6;
-1,9751355125637E-6;
-1,02995044239301E-6;
-8,38786464483718E-7;
-6,38662467726704E-7;
1,10183880843431E-7;
1,26316290361584E-6;
2,19836810679032E-6;
2,454228952236E-6;
2,19906726975368E-6;
2,09754662718366E-6;
2,67684899604704E-6;
3,74571692241951E-6;
4,39893987896E-6;
3,66170237969895E-6;
1,28797699347799E-6;
-1,92646644172478E-6;
-4,59119823700563E-6;
-5,61205473804803E-6;
-4,86609770681629E-6;
-3,17594585342659E-6;
-1,64437855399357E-6;
-8,86622408973079E-7;
-7,34171243940423E-7;
-5,7275916887864E-7;
3,22229553543882E-8;
9,64736424756551E-7;
1,72503446484057E-6;
1,94205323599996E-6;
1,74986836551242E-6;
1,6802014005825E-6;
2,15490222437026E-6;
3,02175762671957E-6;
3,55855189393999E-6;
2,9871493024429E-6;
1,10912850351307E-6;
-1,44570243450847E-6;
-3,57472766911656E-6;
-4,40903095872383E-6;
-3,84753111620508E-6;
-2,53634523805215E-6;
-1,34339061790275E-6;
-7,53479253142294E-7;
-6,35646996821883E-7;
-5,08993622775284E-7;
-3,32280685169388E-8;
7,01182573912298E-7;
1,30399010091531E-6;
1,48526791399658E-6;
1,348495056004E-6;
1,30642280077976E-6;
1,68661045378542E-6;
2,37172239231901E-6;
2,80318276351075E-6;
2,37877789454956E-6;
9,4285916881282E-7;
0,00933241127460652;
0,022627057435778;
0,0163693990349008;
0,0094301571096102;
0,0121674278493036;
0,00702509571916955;
0,00563418641980406;
0,00458216648890516;
0,000840052233903189;
0,00103230519675118;
-0,00118996878071403;
-0,00199101978774436;
-0,00280605543680853;
-0,00455268833165179;
-0,00488635047174085;
-0,00585463071245099;
-0,00593942433948765;
-0,0061803584878637;
-0,00699174215945248;
-0,00791991413385534;
-0,0093495424729115;
-0,0102447674332494;
-0,0105208930692966;
-0,0101106590621687;
-0,00920912069521296;
-0,00843112497608237;
-0,00783095251859403;
-0,00745792964156871;
-0,00704844301440129;
-0,00641880771500386;
-0,00567518229794172;
-0,00495787831308505;
-0,00445235342477498;
-0,00409008636738394;
-0,00366314336327386;
-0,00302566477776695;
-0,0022269504159888;
-0,00157129423662935;
-0,00135972476125723;
-0,00166459673829364;
-0,00222606275010421;
-0,00258824933699704;
-0,00240833078901698;
-0,00165861726494383;
-0,000625743458464496;
0,000316057747042315;
0,000963247236558164;
0,00137548937789704;
0,00176479681589572;
0,0022782972626078;
0,00287381274798708;
0,00337853834810914;
0,00366536396990174;
0,00378483568760346;
0,00392517572953241;
0,00423402994600602;
0,00465493874846417;
0,0049301434788705;
0,00478632338022768;
0,00416257690976118;
0,00329832647760206;
0,0026006126748339;
0,00238319162086236;
0,00267051158467273;
0,00320854998651638;
0,00366497394196525;
0,00385844397275887;
0,00384563703707818;
0,00381702135757155;
0,00390599861795822;
0,0040763465311447;
0,00417471069940816;
0,0040893075406765;
0,00386611591410605;
0,003674159628185;
0,00364582408104207;
0,00373133309210893;
0,00370181899612799;
0,00331450674407265;
0,00251596048387706;
0,00151972275565488;
0,000688002939838077;
0,000299675706523376;
0,000376195841470319;
0,000691749170974758;
0,000951176683232271;
0,000993513220109897;
0,000868941067202207;
0,000746068568351581;
0,000742727446850164;
0,000826373935807531;
0,000860804954816863;
0,00074671313881318;
0,000524356858512907;
0,000342664053389025;
0,000317986896051602;
0,000405671589055162;
0,000403036654660138;
9,5359356890216E-5;
-0,000564878571725702;
-0,0107232719339388;
-0,0246906649569198;
-0,018706086831724;
-0,0116222180146509;
-0,0139972398161118;
-0,00853603551887912;
-0,00701209042561709;
-0,00596920663512655;
-0,00223053215508315;
-0,00231749180480641;
8,95071755704917E-5;
0,00103436012906593;
0,00186449613101789;
0,00353241791754985;
0,00382379228581483;
0,00488773208136738;
0,00516640306768997;
0,00552130577160367;
0,00617832195254136;
0,00664198336999341;
0,00746114341274029;
0,00787828488455303;
0,00802227966787466;
0,00784103929124417;
0,00735486214324615;
0,00695106519287897;
0,0065598127647857;
0,00626830029407526;
0,00594129853863521;
0,00548443211208938;
0,00497821483467602;
0,004458385975863;
0,00403423941048123;
0,00366751376497596;
0,00326309073556043;
0,00276293862466939;
0,00218187911518078;
0,00167012765679938;
0,00136596668487205;
0,0013058907476541;
0,00137208369565897;
0,00134901495601008;
0,00107803032169118;
0,000544393670467704;
-0,000115900100425547;
-0,000724471538761136;
-0,00118439654249026;
-0,00152253455246261;
-0,00184036107353357;
-0,0022081718236823;
-0,00260571319409681;
-0,00294975857400431;
-0,00317828616801261;
-0,00331566231296231;
-0,00345329023771908;
-0,00366352269882382;
-0,00391930103871979;
-0,0040944227608746;
-0,00405431808120351;
-0,00376832336730642;
-0,00335431903500984;
-0,00301419177271562;
-0,00290471421677565;
-0,00303935647316869;
-0,00329231649789999;
-0,003497730628173;
-0,00356466294860919;
-0,00352169390342217;
-0,00346529976107078;
-0,00346362449988643;
-0,00349896830425313;
-0,00349374907955012;
-0,0033911107625585;
-0,00321470810673167;
-0,00305160663713417;
-0,00297055787651105;
-0,00294659609289287;
-0,00286174606522695;
-0,00258999016734684;
-0,0021030920218936;
-0,00151207108234348;
-0,00100651904796218;
-0,000733471473900098;
-0,000705334945155765;
-0,000804014528760217;
-0,000873938230541928;
-0,000829791153312963;
-0,000698132429703491;
-0,00056891328974751;
-0,000505465227154196;
-0,000490775232185621;
-0,000451882335664955;
-0,000335227812826442;
-0,000162415399144659;
-1,41565606001882E-5;
4,60364340343697E-5;
4,20978787851425E-5;
8,46110983052656E-5;
0,000291537505375284;
0,000689678684208742;
0,00117621968831053;
0,00157537084532653;
0,00175110816680043;
0,00169269116292598;
0,00151063800666279;
0,00135015051729717;
0,00129104550288364;
0,00130922989673834;
0,00132182189070935;
0,00127069411977911;
0,00117222930084233;
0,00109460674656641;
0,00108794484156129;
0,00113270860996314;
0,00115466686942993;
0,0010955534384746;
0,00097799438204803;
0,000904652671063112;
0,000984874688437944;
0,00124367838422299;
0,00158637203908748;
0,00185099299400504;
0,00191239791191848;
0,00176106443556555;
0,0014992207642092;
0,00126092694976475;
0,00111987196917645;
0,00105399157181965;
0,000987121715859855;
0,000865920499984685;
0,000705586223354613;
0,000568886518716215;
0,000501911212922029;
0,000486714287280365;
0,000455134946277733;
0,000353712277004191;
0,000203224768320093;
9,7804419340501E-5;
0,000137600427244166;
0,000345382000442722;
0,000634238816424129;
0,000855739725208497;
0,000895277719163024;
0,000744115436519796;
0,000495706774567843;
0,000272510008717797;
0,000141702206729398;
8,2936042895535E-5;
2,6485008841186E-5;
-7,64898352347015E-5;
-0,000212260246556961;
-0,000323736894674337;
-0,000369090452328139;
-0,000364882142545899;
-0,000373395942724091;
-0,00044347342119422;
-0,000556342885009847;
-0,000626514845806529;
-0,000563106572312707;
-0,000345661708328963;
-5,34081022004668E-5;
0,00017861754366295;
0,000246214732445161;
0,000141370594226767;
-5,12000403943454E-5;
-0,000220545646754444;
-0,000305918564851749;
-0,000325928209285011;
-0,000343887780869403;
-0,00040413578245804;
-0,000494338485543423;
-0,000562939535405633;
-0,00057222408254923;
-0,000537289118556518;
-0,000514526942204929;
-0,000548129369814992;
-0,000621192935169682;
-0,00065660728284321;
-0,000572460052435105;
-0,000350419481479058;
-6,20274138625584E-5;
0,000170952265185998;
0,000254642405237682;
0,000181857912573342;
2,88822733282585E-5;
-0,000104454994554399;
-0,000163547639575256;
-0,00016516093673941;
-0,000166205526325205;
-0,000206495662650788;
-0,000274929147392279;
-0,000325212919192564;
-0,000323508191370395;
-0,000283356457465114;
-0,00025529517092568;
-0,000278881891673582;
-0,000338921751546123;
-0,000366335068917862;
-0,000287805041817361;
-8,69477166197487E-5;
0,000172253757755733;
0,000380988900914394;
0,000455453265475694;
0,000389326028096754;
0,000250794298083961;
0,000128997387431325;
7,26729786307732E-5;
6,69002299113996E-5;
6,10035413672198E-5;
1,95780124279872E-5;
-4,74241568366697E-5;
-9,87472596938063E-5;
-0,000104251701357444;
-7,59504331527227E-5;
-5,87237915410983E-5;
-8,76582416699272E-5;
-0,000149193263389209;
-0,000181957120002639;
-0,000120876436340733;
4,85750026515139E-5;
0,00026967163054121;
0,000446018132771887;
0,000503445711722543;
0,000436435984304377;
0,000305398499144157;
0,00018922080161443;
0,000131009082933965;
0,000117586405766756;
0,000104210411780941;
5,96571509653544E-5;
-7,25196920355189E-6;
-6,00996749927901E-5;
-7,23043726264209E-5;
-5,44524736218673E-5;
-4,60684412793777E-5;
-7,80192906990535E-5;
-0,000138340232378105;
-0,000173030184841969;
-0,000124886857089052;
1,88218895924541E-5;
0,000208236074331126;
0,000358714515258726;
0,000405191966808063;
0,000342865721981541;
0,000224726528338191;
0,000119907232079845;
6,61466441960343E-5;
5,1889369812433E-5;
3,79779561128567E-5;
-2,88912089047782E-6;
-6,29929884229328E-5;
-0,000110520173266893;
-0,000122277126109269;
-0,00010752712935352;
-0,000100763364021637;
-0,00012889770129356;
-0,000181496385110114;
-0,000211529332868322;
-0,000169227918762423;
-4,35616354464818E-5;
0,000122062615964219;
0,000254051402456346;
0,0002958847812256;
0,000243412889971335;
0,000142636070732221;
5,3510620206602E-5;
8,72786896860146E-6;
-1,75025348765875E-6;
-1,18463104879358E-5;
-4,51895709421033E-5;
-9,51008191440975E-5;
-0,000134084146993898;
-0,000142119702824365;
-0,000127230311128033;
-0,000119199217955804;
-0,000141238436795004;
-0,000184346084916042;
-0,000208005545007006;
-0,000169386903018726;
-5,90387035835624E-5;
8,56668893221514E-5;
0,000201453406567621;
0,000239775583363329;
0,000197094151697409;
0,000112897546069458;
3,85996954368605E-5;
2,20149485554956E-6;
-4,91165377824925E-6;
-1,17814608226481E-5;
-3,86134161014765E-5;
-7,96870832799452E-5;
-0,000111509932817682;
-0,000116999408593785;
-0,000103014855385788;
-9,49572450048115E-5;
-0,000112597168104912;
-0,000148253010818252;
-0,000167437688598468;
-0,000133739850588819;
-3,91571813946398E-5;
8,45393034558678E-5;
0,000183632755781137;
0,000216962946698801;
0,000181559840520797;
0,000110896574175856;
4,84998566677455E-5;
1,8046568124191E-5;
1,22454245581997E-5;
6,56719480576967E-6;
-1,60291529324176E-5;
-5,07026837304031E-5;
-7,76462507789983E-5;
-8,24777709764129E-5;
-7,0978348049778E-5;
-6,45085466874114E-5;
-7,96680247299644E-5;
-0,000109987625743369;
-0,000126522757865713;
-9,87582182561E-5;
-2,00173363611838E-5;
8,30798236902076E-5;
0,000165597907215181;
0,000193155748190567;
0,000163304155773799;
0,000103997901497064;
5,15327607515941E-5;
2,56243272077333E-5;
2,0195053292209E-5;
1,48481300752314E-5;
-4,56204360781929E-6;
