-4,74938622715424E-14;
3,28314689245372E-13;
4,29167263014985E-13;
7,87035702990199E-14;
-2,25765741340702E-14;
5,35394483956193E-13;
4,11754530395623E-13;
-1,92396371875551E-13;
6,5513856011886E-14;
-1,43404769674005E-13;
5,12319009995138E-13;
1,13047288745066E-12;
3,14300699108738E-13;
2,66560633706304E-13;
6,75744041876165E-13;
4,50413011930297E-13;
-5,05851385260757E-13;
-3,30943531419431E-13;
6,22025991468557E-13;
2,60005373319466E-13;
-1,32144248739236E-13;
2,30965142856871E-13;
2,52402414892117E-13;
-1,9067872389774E-13;
2,39312284721437E-13;
1,51557690966494E-14;
-5,04970946071893E-13;
3,75360918261308E-13;
6,14499761587428E-13;
5,95403815143653E-13;
3,62232321138011E-13;
4,31900450386973E-13;
5,23143763428125E-13;
-2,11779210624836E-13;
7,65899243189218E-13;
1,01089074561751E-12;
7,75605968123274E-14;
7,74489959021651E-13;
6,98429101731742E-13;
2,23779108296271E-13;
7,87264126038814E-13;
4,74353613548779E-13;
-1,23331913716437E-13;
3,77191894116346E-13;
8,28876355922983E-13;
4,60002079058894E-13;
4,24568491497637E-13;
5,26362234534938E-13;
-4,2417854941313E-14;
2,7258162100176E-13;
7,35444296747354E-13;
4,58356070376079E-14;
2,81582530301349E-13;
8,88674111669032E-13;
5,11222920694318E-13;
4,54120941535452E-13;
3,20494794010046E-13;
-2,12439240321222E-13;
2,53949903089385E-13;
8,39347501063096E-13;
6,76047950858909E-13;
3,03132758456686E-13;
-2,11152710275191E-13;
2,19277415824272E-13;
3,96625556526172E-13;
-1,15959221729652E-13;
1,67039665319667E-13;
-1,1559028856306E-13;
-3,14555285501998E-13;
3,45337672192758E-13;
3,4485347655107E-13;
-6,12720416675908E-14;
1,12161710153749E-13;
4,76330950236883E-13;
4,04895825022119E-13;
6,43958689720908E-13;
1,03404198521485E-12;
5,40910381799868E-13;
3,8251471199891E-13;
2,40878359914232E-13;
-2,49594860477951E-13;
3,88790003449321E-13;
5,18280447434397E-13;
1,26545514521643E-13;
3,55421309269479E-13;
5,31392148411731E-13;
1,42483638231516E-13;
-1,24230829659897E-13;
1,91089914754173E-13;
-1,27900917316937E-13;
3,45486931117622E-13;
6,64518480271743E-13;
-2,31198583182738E-14;
3,38675182695294E-13;
2,41207287409976E-13;
2,20548785354081E-13;
6,81914893278749E-13;
5,66452740870051E-13;
4,71408491453816E-13;
3,96108529660982E-13;
7,62918355238925E-13;
6,03580167133123E-13;
3,27253063333052E-13;
2,12787870684591E-13;
-5,66241447567556E-13;
2,60803878613341E-13;
1,25542619763251E-12;
5,27430106535034E-13;
4,77705454861083E-13;
6,2043925083629E-13;
7,41859925129779E-13;
1,15858098721567E-12;
1,88394243277533E-13;
2,1035993111679E-13;
8,3712025408602E-13;
2,27135072689362E-13;
8,39146557254029E-13;
7,80391883162652E-13;
-8,07277156422416E-14;
6,98303460895444E-13;
1,09325293824639E-12;
8,14593209241815E-13;
7,58676205406275E-13;
3,5325858121739E-13;
9,12062020541469E-14;
4,51311012245962E-14;
1,53461511351687E-13;
5,08064968993679E-13;
9,03450533863467E-13;
8,83984445664705E-13;
3,26254965653224E-13;
4,56820375249076E-13;
2,0433031054585E-14;
-3,55693688980052E-13;
7,81734692883568E-13;
6,71166293091165E-13;
-1,17239101775737E-13;
1,69056302934047E-13;
6,06548275163076E-13;
1,59440726113186E-13;
-8,44317367500074E-14;
4,20586703462724E-13;
5,59186758910535E-14;
-1,76322859552879E-13;
-4,80327669265548E-14;
4,6003635477126E-13;
1,07511605490708E-12;
3,05233449832416E-13;
6,57881369812264E-13;
1,3025086737335E-12;
7,21989052182947E-13;
7,28012030128617E-13;
-9,5055454153635E-16;
1,32349080541234E-13;
1,46387520568457E-12;
4,5712780982183E-13;
-7,3610692046981E-13;
-4,02748575677244E-13;
-1,1980016948749E-13;
6,38522891821443E-13;
1,39033780233456E-12;
1,02717809165036E-12;
7,31186438873055E-13;
8,78633086296448E-13;
1,08531092173975E-12;
1,17974841359816E-12;
5,99361650378634E-13;
5,6466069331413E-13;
8,62763217042449E-13;
1,57742340820766E-13;
-2,08671654676872E-13;
3,91843491981434E-13;
6,88741127336421E-13;
2,03579778637559E-13;
7,66851993936795E-13;
1,27595940063205E-12;
3,71246540827327E-13;
9,42847868449618E-13;
1,22205000437423E-12;
-8,46491384563969E-15;
4,4626137918792E-13;
6,43694949872868E-13;
6,54826912253943E-14;
1,74433438478217E-13;
1,68314961645407E-14;
4,34055637331838E-13;
4,0740996902026E-13;
1,62872136383225E-13;
1,61513174411156E-13;
2,63331129531955E-13;
6,99949088071179E-13;
-1,50906101617613E-13;
4,49748026418659E-13;
1,02269271109741E-12;
-7,04331151593122E-14;
-2,13111994725937E-14;
-6,72151660658822E-14;
1,34911036524779E-13;
-2,65762575417353E-13;
-3,3059417496944E-13;
7,64438961802661E-13;
3,51375139934298E-13;
5,96720575457873E-14;
2,32288761703245E-13;
3,87646192495617E-13;
5,8043116875794E-13;
3,06859442964747E-13;
3,17157913006333E-13;
2,76663118771343E-13;
2,22114998614079E-13;
4,61335780394391E-13;
7,70189142683909E-13;
6,22098636267601E-13;
1,2892842072055E-13;
6,50461596297273E-13;
6,33407452860355E-13;
-6,85679749323902E-14;
1,07355826602256E-13;
1,87531584100062E-13;
6,38488920019853E-13;
9,26739415143396E-13;
7,80460297899338E-13;
3,63531449231418E-13;
3,82664988455472E-13;
7,98569556562446E-13;
8,39049055898955E-14;
2,98307467954542E-13;
1,1393768859316E-13;
-1,96647745045886E-13;
6,2162503428892E-13;
7,27802994561943E-13;
1,01427109843193E-12;
-6,15450957211144E-14;
-1,77840216830833E-13;
8,96610369109222E-13;
-1,94558045318763E-13;
-3,10276552918284E-13;
7,35163454589124E-14;
9,08571550165521E-13;
9,81882840229307E-13;
-9,6318941437265E-13;
-1,12989598709249E-13;
9,44992261634831E-13;
1,65760669532291E-14;
3,47754938215545E-13;
9,95028117013902E-13;
2,40140030717311E-13;
4,30627754747044E-14;
7,58335380437281E-13;
-2,57612172200516E-13;
-2,51167002707156E-13;
1,26819243390742E-12;
4,78361830429316E-13;
-2,02376989918073E-13;
1,17344106570866E-13;
4,42121966349256E-13;
1,30881651368066E-12;
4,60214111765172E-13;
-4,0537368109745E-13;
5,32454788100386E-13;
-1,14846060742393E-13;
-7,06449640041306E-13;
1,2570477828582E-13;
-3,13208119987585E-13;
1,75767662582391E-13;
1,18711693418275E-12;
1,26889607358093E-12;
9,14931976478581E-13;
-4,76290118514011E-13;
6,53640595995E-13;
1,30844285866213E-12;
-5,61186219000452E-13;
-1,48290784412191E-13;
1,87449865505305E-13;
3,42678090643319E-13;
9,02927056110894E-13;
1,07671677236448E-13;
2,58507316944135E-13;
8,63988609152087E-13;
1,03594348537898E-12;
1,07811045616894E-12;
5,02493477415894E-13;
7,33467688427686E-13;
1,10081785114706E-12;
1,8061821338714E-13;
-4,59330806954111E-13;
3,38915959365045E-14;
6,22123905793537E-13;
1,61625475116294E-13;
-2,92350447800309E-13;
2,46967241483882E-13;
1,0859392830569E-12;
1,08793545991784E-12;
1,17422783855583E-13;
7,00921071130337E-13;
1,06432030596262E-12;
2,18814042118645E-13;
8,05441805823487E-13;
5,99929469205454E-13;
-2,10003668125382E-13;
-3,598191568863E-13;
-6,67342040604922E-13;
-1,9797935385684E-14;
5,36558520709654E-13;
1,1377622643422E-13;
2,84646082055036E-13;
4,68689344015376E-13;
-1,43435691810748E-14;
1,9602804327476E-13;
4,53035140583773E-13;
2,46190444927186E-13;
4,58729823384084E-13;
6,04473887067632E-13;
1,02182921508792E-12;
7,41587753844971E-13;
-1,09810012246743E-13;
1,15236618296499E-12;
1,11179117738146E-12;
1,4677957635201E-13;
8,50277482861361E-13;
-1,65990331879049E-13;
4,28312811253484E-13;
1,53736080456313E-12;
-2,14924866662448E-13;
-5,6392428205638E-14;
2,89782744002815E-13;
4,1105241701119E-13;
1,04018292290366E-12;
-2,95331273656724E-14;
2,50317997734779E-13;
7,97681802462557E-13;
3,15281830050803E-13;
5,99295008897259E-13;
6,47621546425595E-13;
5,48803594451179E-13;
4,56379586947881E-14;
-2,40623392355462E-13;
1,79796383243994E-13;
2,5516871032772E-13;
7,36484493853279E-13;
9,34746172728972E-13;
7,17780138074611E-13;
9,393994121907E-13;
6,0093404111166E-13;
2,34716033975624E-13;
2,20730834496617E-13;
4,23554620699044E-13;
5,86896514090423E-13;
1,55852816936253E-14;
-8,89649230490713E-14;
2,6023465729995E-13;
-1,12498603973145E-13;
-4,61635648911891E-13;
2,77999469521161E-13;
5,90214714711385E-13;
-1,01834483148924E-13;
-1,67407362645716E-13;
6,65658350674826E-14;
5,52204029254706E-13;
5,73355904606888E-13;
7,34980563332269E-14;
3,83298585749965E-13;
3,64074084186484E-13;
5,70013671084426E-13;
1,20225652725129E-12;
5,3701268552448E-13;
1,62155245670813E-13;
6,54339054925873E-13;
5,52607728594649E-13;
5,72328725889005E-13;
4,35927550780866E-13;
1,09742154119856E-13;
3,48248185773724E-13;
6,2533414817455E-13;
1,39339049174876E-13;
-5,94816332258088E-13;
4,21990507079732E-13;
7,22831977034897E-13;
-3,24205591358914E-13;
-1,36801683393491E-13;
3,87901262643995E-13;
6,69412118581242E-13;
-1,70438078546938E-13;
-1,66244317918888E-13;
1,10250695682083E-12;
5,52743529409012E-13;
2,69897959903376E-13;
6,0683714742449E-13;
4,60280513485761E-13;
8,09883241201453E-13;
2,78827098267673E-13;
1,86540295672744E-13;
1,20653026164863E-12;
7,56607738676732E-13;
4,57160734671758E-13;
4,57326589687746E-13;
1,23552963697493E-13;
8,93357128449955E-13;
1,04429350040012E-12;
4,2620044139493E-13;
3,76464117524758E-13;
6,55316423921996E-13;
1,89589876126411E-13;
-1,09493899987521E-13;
1,03566443241054E-12;
4,95294655686847E-13;
-4,09125488342375E-13;
6,44066402144864E-13;
4,01249883246636E-13;
-9,10686508203574E-14;
2,28612748567445E-14;
-2,77263827772402E-13;
2,71926289873766E-13;
2,75326900950409E-13;
4,81562637279991E-14;
4,28067817938334E-13;
4,44677065776176E-13;
5,27612907351974E-13;
6,99968509782281E-13;
5,15003723456314E-13;
-3,19869746477688E-13;
-3,08583225079817E-14;
7,81047434812178E-13;
5,90540413713415E-13;
5,97374661624457E-13;
5,58265241614064E-13;
3,14535850495458E-13;
2,0133176031585E-13;
6,76406737505474E-13;
7,43150863615684E-13;
1,08661527286535E-13;
3,90611783805816E-13;
8,51037052548402E-13;
4,10472439287536E-13;
4,78954215424923E-13;
6,8025533009497E-13;
-3,68972771741888E-13;
-1,00549695804713E-14;
2,39860334631603E-13;
-4,63360150266787E-13;
3,34613255574856E-13;
5,26602378432655E-14;
4,56906713327049E-14;
4,55955615616322E-13;
-4,57716606271448E-13;
5,42326719092813E-13;
9,32715419724756E-13;
-5,85142817108517E-13;
2,85577222457212E-13;
6,59255614427384E-13;
-3,89061188198054E-13;
4,70642725104743E-13;
7,96747248382645E-13;
4,08341991471923E-13;
6,05274983769728E-13;
1,08153466671282E-12;
1,24338514864935E-12;
6,63212957972132E-13;
6,79618702599594E-13;
6,25898704570444E-13;
7,38050049797488E-13;
8,1294647978067E-13;
5,75557869584262E-13;
4,35978223953928E-13;
-5,094553211275E-13;
1,00120630146413E-13;
1,24810510114154E-12;
2,94487916816267E-13;
1,05073815162072E-13;
1,07959305477351E-12;
9,31593144446871E-13;
4,22688960156923E-13;
1,61764941501646E-13;
1,77701568825896E-13;
1,0687573353137E-12;
1,08182222609675E-12;
2,7349732010586E-13;
-3,31344320080679E-14;
1,33644274190595E-13;
2,02999612482408E-13;
-3,38369905061947E-13;
8,87817746528677E-13;
1,35986999369508E-12;
-1,51643765503068E-14;
5,24934553503797E-13;
1,92171063467818E-13;
-5,30443165413089E-13;
-2,4480521381348E-13;
-4,95548934467892E-14;
5,78639814253193E-13;
4,63952020372839E-13;
4,72096082556361E-13;
-4,85153224907123E-13;
-6,69763390649379E-13;
8,57288620280077E-13;
-1,4878913136038E-13;
-5,59605647408484E-13;
-1,09019972601392E-14;
-1,24388747178971E-13;
1,26534496943096E-13;
-1,73700208515276E-13;
8,76319651583765E-13;
8,61756751082565E-13;
-7,85388464638565E-13;
2,17965328206044E-13;
7,02382909736168E-13;
-9,20987224511368E-14;
7,93919432016521E-13;
6,11068528373668E-13;
-3,19975225965924E-13;
3,7757884407346E-13;
4,14469133617835E-13;
2,36369861275124E-13;
1,13593107913741E-12;
4,30737735468402E-13;
-9,62478065555202E-13;
1,8793830326307E-14;
2,70345438640548E-13;
-4,54624024997543E-13;
2,36947243133117E-13;
2,89953209676063E-13;
7,50443408882422E-13;
8,553664479777E-13;
-1,22026403823388E-13;
5,1075154649807E-13;
7,35512262586557E-13;
1,17693133634692E-13;
-2,57653351092622E-13;
-6,69279199936587E-13;
4,38604422664496E-14;
8,27465277745133E-13;
1,04446757156911E-12;
7,90080038806949E-13;
-1,9631249160954E-13;
4,55904577164749E-13;
1,0087980058831E-12;
-2,63722142178031E-13;
-1,5520427233961E-13;
5,60169674925578E-13;
5,43050468287239E-13;
3,13946003592416E-13;
2,3449286612328E-13;
6,74615156819552E-13;
9,04541852092138E-13;
7,98856773156582E-13;
1,85027294797241E-13;
9,98109204219278E-15;
5,62174495485052E-13;
5,18369674669147E-13;
1,617052805754E-13;
-9,59093573870103E-14;
-1,84383878824877E-13;
-4,48825855045077E-14;
8,57323256276733E-14;
-2,47611408036225E-13;
-4,91212095504429E-14;
4,89438845368847E-13;
-1,68881118063135E-13;
2,01650744870666E-13;
8,88887016780419E-13;
2,81929916599969E-13;
4,98847509183242E-13;
6,53447605710444E-13;
1,55726302716237E-13;
-4,01690954780881E-14;
2,82200028347956E-13;
5,58335720389125E-13;
4,61686075194311E-13;
1,01931425248709E-12;
5,0455593441867E-13;
-5,80641807346537E-13;
2,03196332305244E-13;
4,32020575331495E-13;
-2,89439777210654E-13;
-9,28569084006343E-14;
8,16173333975109E-13;
1,10999928491806E-12;
6,41117742217723E-13;
1,06669200396396E-12;
1,05012847818305E-12;
1,93838262670042E-13;
3,77857431932929E-13;
1,25792600728972E-13;
-2,07386733061997E-13;
4,17025904031172E-13;
1,33275225890677E-13;
2,68323365390791E-14;
2,65243601465346E-13;
1,41602533829955E-13;
5,06585817589003E-13;
1,54383347120762E-13;
2,4451897396899E-13;
6,92798500787725E-13;
-1,46789506230985E-13;
2,6419142360065E-13;
8,447750073503E-13;
5,95224859551757E-14;
7,09083415782234E-13;
7,54005423536796E-13;
-3,08053802741415E-13;
1,95662108674561E-13;
4,59530970981484E-13;
3,24428149737554E-13;
1,37213487065054E-13;
-2,28381440636127E-13;
3,25247977973011E-13;
6,55435514462001E-13;
8,08182018550455E-13;
1,0689146100969E-12;
1,88241455054821E-13;
1,02424377692166E-13;
4,61823061424294E-13;
-1,45757800337054E-13;
-2,0803026829606E-13;
-6,63516690304413E-13;
-5,68674287168185E-13;
5,06280747093954E-13;
4,20797196682696E-13;
-1,65332774258892E-13;
9,75983358033845E-14;
4,3548531075446E-13;
3,52911173603768E-13;
7,72042100900041E-13;
-1,37236059374549E-15;
-7,30304135600762E-13;
6,34170779297804E-13;
8,86595228825312E-13;
2,65708875933547E-13;
3,66372917680959E-13;
5,7306280856205E-13;
6,67645830601466E-13;
2,88447873447685E-13;
1,02563722450972E-13;
2,55514228953855E-13;
2,80833032181986E-13;
6,19330569374344E-13;
1,46623150310857E-12;
1,33158242962963E-12;
4,08611194702444E-13;
5,13797799933975E-13;
3,62501581556056E-13;
2,53527280260178E-13;
9,43186978705267E-13;
2,86177509575431E-13;
-2,79647334036402E-13;
5,80448126701411E-13;
6,07790957284412E-13;
1,45741010437939E-13;
6,97875405344815E-14;
4,12646889891954E-13;
4,2823457771185E-13;
-3,93329746934358E-14;
4,58793801319893E-13;
-4,63935968645706E-15;
-4,23609985707464E-13;
3,10598752937336E-13;
1,37501816095028E-13;
6,70739579703518E-13;
7,17757735174339E-13;
3,30048038494412E-14;
5,79591132505122E-13;
1,24883026350379E-13;
-3,61512207532475E-13;
3,01912498242644E-13;
5,35362317475304E-13;
8,22826892435709E-13;
9,80285214751594E-13;
3,53957850732074E-13;
-3,5752466463208E-13;
3,60436633319526E-13;
1,00223484553637E-12;
2,73288156887301E-14;
-1,75001534589471E-13;
1,52264664330301E-13;
-1,39870631292007E-13;
2,91466976321021E-13;
1,241550046142E-12;
7,06601964677555E-13;
-2,61618641789497E-13;
2,69141493821671E-13;
4,41730098526646E-13;
2,95107681882221E-13;
1,00720897559491E-12;
8,46368959142288E-13;
1,03137316764111E-13;
-3,47573360557741E-13;
-3,63333855487716E-13;
4,63868324722163E-13;
8,53532949864638E-13;
2,13467967586953E-13;
-2,65159679231909E-13;
3,31635295434111E-13;
5,63645449069572E-13;
-1,11099106202909E-15;
4,94321213418681E-15;
7,63891694076427E-14;
-3,23673645237193E-14;
2,95752724527848E-13;
3,70175620661591E-13;
-1,36792597091507E-13;
0,00933343404623763;
0,0226297298257927;
0,0163727372764115;
0,00943309617753598;
0,0121693917861673;
0,00702616733134201;
0,00563481713030748;
0,00458271005352223;
0,000840500090234388;
0,00103239237250943;
-0,00119043949486432;
-0,00199195265687511;
-0,00280713693513657;
-0,00455368131926824;
-0,00488732499822318;
-0,0058559007083022;
-0,0059412172724582;
-0,00618248832231569;
-0,00699357666832635;
-0,00792070354646824;
-0,00934888799331273;
-0,0102428887112694;
-0,0105184993939442;
-0,0101085231422177;
-0,00920766466581073;
-0,00843029680125048;
-0,00783043416855176;
-0,00745747149724226;
-0,00704805327848492;
-0,00641867706901951;
-0,00567545363310333;
-0,0049584872724498;
-0,00445308141426353;
-0,00409076741089201;
-0,00366382586757473;
-0,00302656743747267;
-0,0022282325443477;
-0,0015728290737666;
-0,00136107645921474;
-0,00166524557378647;
-0,00222572542191183;
-0,00258706177229824;
-0,00240676232131627;
-0,00165718471583601;
-0,000624734014365849;
0,000316669697822019;
0,000963663523199102;
0,00137586886860569;
0,0017651317483539;
0,00227846193214505;
0,00287371183684261;
0,00337820905248625;
0,00366494227482362;
0,00378442559172079;
0,00392474763676638;
0,00423344806254363;
0,00465410314805251;
0,00492912948533251;
0,004785396115602;
0,00416205590826301;
0,00329839411581436;
0,00260120493657935;
0,00238404675888459;
0,00267133447141212;
0,00320917063053578;
0,00366539555842869;
0,00385876826764908;
0,00384594464797976;
0,00381730502353608;
0,00390618887409174;
0,00407638930720623;
0,00417461995731522;
0,00408914816330468;
0,00386593851139276;
0,00367395077458523;
0,00364551935646078;
0,00373088376142071;
0,00370125625866457;
0,00331394893891786;
0,00251555483949782;
0,00151956437340554;
0,000688088782564398;
0,00029992150707064;
0,000376496335289084;
0,000692035009909098;
0,000951432382490044;
0,000993755270981095;
0,000869183490245505;
0,000746304649775262;
0,000742935836263423;
0,000826535917828903;
0,00086091488159445;
0,000746775454734152;
0,000524376747252876;
0,000342641814953694;
0,000317918804699743;
0,000405552501715631;
0,000402860404388431;
9,51196661659863E-5;
-0,000565180948970337;
-0,0107236164878322;
-0,0246910037827225;
-0,0187063544874848;
-0,0116223592942377;
-0,0139972387359222;
-0,00853592289745759;
-0,00701192127224068;
-0,00596902286069182;
-0,00223033989624151;
-0,00231727179423433;
8,97661344933111E-5;
0,00103463609709307;
0,00186474291542607;
0,00353260259847393;
0,00382392664450764;
0,00488786326943142;
0,00516656254275044;
0,00552145619942804;
0,00617835279673321;
0,00664177265165572;
0,00746064874637162;
0,00787759597665899;
0,008021586255703;
0,00784053012514072;
0,00735462448664076;
0,00695105593296612;
0,00655991790470166;
0,00626843174523127;
0,00594145075919055;
0,00548465812337772;
0,00497855075660072;
0,0044587965919423;
0,00403463682766367;
0,00366783364137334;
0,00326335428947699;
0,00276323493145477;
0,00218226985160097;
0,00167054996143579;
0,00136622431340086;
0,001305760638827;
0,00137147127014272;
0,00134804346786069;
0,00107699073175119;
0,000543583800469825;
-0,000116334502777897;
-0,000724583160640801;
-0,00118434704030689;
-0,00152244936083182;
-0,00184024513597424;
-0,00220794459629621;
-0,0026053181707265;
-0,00294924153656148;
-0,00317776862344876;
-0,00331523397734861;
-0,00345292230445859;
-0,00366309226918501;
-0,00391872199570778;
-0,00409377840203278;
-0,00405387359021034;
-0,00376838329988517;
-0,0033550204465942;
-0,00301538525369271;
-0,00290602835839171;
-0,00304040644784203;
-0,0032929096328729;
-0,003497926771666;
-0,00356466125013764;
-0,00352164921046818;
-0,00346521642115215;
-0,00346340006602454;
-0,00349852997876016;
-0,003493150782932;
-0,00339050036374095;
-0,0032141952674835;
-0,00305115661502756;
-0,00297002121964252;
-0,00294586743964914;
-0,00286092459339979;
-0,0025893949626173;
-0,0021030915541984;
-0,0015128361284413;
-0,00100788060456651;
-0,000734996238564417;
-0,00070657081370226;
-0,000804732263015992;
-0,00087420272021053;
-0,000829829987088559;
-0,000698122803615025;
-0,000568858968878695;
-0,000505246883801903;
-0,000490307440802916;
-0,000451225007696174;
-0,000334548728284664;
-0,000161839330287426;
-1,36443024716341E-5;
4,6654413608201E-5;
4,29415647164704E-5;
8,55694750687122E-5;
0,000292250952318742;
0,000689730464466541;
0,0105088471677521;
0,024203618583933;
0,0181221666130505;
0,0111244136574176;
0,0136792178563024;
0,00837599956897776;
0,00692578996831664;
0,00589191959100605;
0,00216235072112494;
0,00230329609668808;
-1,77249253501181E-5;
-0,000896649004022792;
-0,00171846554489992;
-0,00342035213696089;
-0,00373210116478754;
-0,00475967000567956;
-0,00496229480414686;
-0,00527677603882736;
-0,00600789921975243;
-0,00667693046118394;
-0,00776334496201474;
-0,00839345680647162;
-0,00860788480720629;
-0,00834892795309834;
-0,00770932321253979;
-0,00716972893174211;
-0,00671066256667943;
-0,00640352555503327;
-0,0060609251249664;
-0,0055525577674832;
-0,0049693749306021;
-0,00438888110199196;
-0,00395041462915196;
-0,00360340436628225;
-0,00320810457226998;
-0,00267213792644447;
-0,00202402217035614;
-0,00147389516131792;
-0,00122260951013796;
-0,00131973363836633;
-0,0015923217959639;
-0,00173292626129241;
-0,0015133294230512;
-0,000914597329302371;
-0,00012995047307414;
0,000588791317517408;
0,00110524321952842;
0,00145873835738489;
0,0017916039918267;
0,00220215855064704;
0,00266194260520797;
0,00305520014682501;
0,0032966205683951;
0,0034202063267447;
0,00355195417065496;
0,00379071508469243;
0,00409878002690398;
0,00430378672010195;
0,00422319747678359;
0,00381655237778484;
0,00324415829977077;
0,00277820577516228;
0,00262839204894291;
0,00281114984400219;
0,00315702372738596;
0,00344444228532352;
0,00355271005466145;
0,00351993293056427;
0,00347338817598625;
0,00350222611591847;
0,00358253315674776;
0,00361240458417325;
0,00351769255482483;
0,00332931441498395;
0,00316003109767466;
0,00309813925794995;
0,00311072467816441;
0,00304584014778781;
0,00274241887642078;
0,00216531547180354;
0,0014567280061353;
0,000857437645529454;
0,000552701065346653;
0,000556798734187555;
0,000719964136674459;
0,000846559262921639;
0,000830055318063385;
0,000703925695113752;
0,000580056453878364;
0,000536599086283554;
0,000552074537278136;
0,000536412192610403;
0,000424024224584884;
0,000241677403205925;
8,79491356493474E-5;
3,9782835190502E-5;
6,76616616618381E-5;
3,77156181635478E-5;
-0,000191749894182313;
-0,000651932260670338;
-0,0105521437907606;
-0,0243115836088084;
-0,0182527314497568;
-0,0112345665586266;
-0,013747389233498;
-0,00840734664097174;
-0,00693940931665247;
-0,00590222959698085;
-0,00216939013866847;
-0,00229754931540865;
4,27904858101448E-5;
0,000936576896790565;
0,0017612274314085;
0,00345729307439035;
0,00376579263070949;
0,00480093744171687;
0,00501838301493937;
0,00534067172733021;
0,00605840334323995;
0,00669055533931736;
0,00772957440794676;
0,00832209741959116;
0,00852325566452754;
0,00827547357022345;
0,0076590986889598;
0,00713985894456022;
0,00669076072669665;
0,00638590396965046;
0,00604559854973974;
0,00554444525317261;
0,00497172441471633;
0,00439935625108716;
0,00396304051349765;
0,00361399916589602;
0,00321785644709602;
0,00268592622951688;
0,00204491449150819;
0,0014986609910374;
0,0012422443080609;
0,00132479709183089;
0,00157900194365745;
0,00170530708062398;
0,00148047736158217;
0,000885012664700273;
0,000107498120222119;
-0,000605085089338993;
-0,00111836888805849;
-0,00147067883135069;
-0,00180233657194531;
-0,00221071802027746;
-0,00266791108850832;
-0,00305913615395485;
-0,00329937163776803;
-0,00342217129748523;
-0,00355313938661502;
-0,00379130786686108;
-0,00409927176146141;
-0,00430420908050312;
-0,00422222427562122;
-0,00381172732596998;
-0,00323361870687165;
-0,00276270843625;
-0,00261176471945489;
-0,00279836303377745;
-0,00315112921674243;
-0,00344481235502132;
-0,00355610152027658;
-0,00352352072337645;
-0,00347713703941279;
-0,00350848781577687;
-0,00359325812679509;
-0,00362664687344893;
-0,0035319842444867;
-0,0033408679628015;
-0,0031698378170349;
-0,00311061120999851;
-0,00312931248416568;
-0,00306788277365618;
-0,00275794180519905;
-0,00216191289924554;
-0,00142778296218319;
-0,000807717778748566;
-0,000496747757876297;
-0,00051076993633536;
-0,000692646078711342;
-0,000835982810931455;
-0,00082779409704604;
-0,000703156198973469;
-0,00058071799463875;
-0,000543771778881036;
-0,000569650374312726;
-0,000562186939612356;
-0,000450953674458445;
-0,000264331647042657;
-0,000108114699606533;
-6,53318167646618E-5;
-0,000104461475727322;
-8,08787356460441E-5;
0,000159308166386218;
0,000650787597943448;
0,0105928213825151;
0,0243860499545019;
0,0183377033680283;
0,0113047627141813;
0,0137893517973155;
0,00842413873832659;
0,006943675282554;
0,00590404445035442;
0,0021688385517987;
0,00228734285511031;
-6,81124868679723E-5;
-0,000973788847289869;
-0,00180039216769562;
-0,00349084492223224;
-0,00379615600961512;
-0,00483876729183177;
-0,00507148740480185;
-0,00540237191227754;
-0,00610590765790669;
-0,00669673886763035;
-0,00768078109390799;
-0,00822896805906548;
-0,00841605005852092;
-0,00818674801716296;
-0,00760603619915415;
-0,00711853577261497;
-0,00668519366275256;
-0,00638344849811229;
-0,00604615688245191;
-0,00555705571493506;
-0,00500308984760204;
-0,0044454506589963;
-0,00401165504158682;
-0,00365589430559645;
-0,00325596006282514;
-0,00273307488453752;
-0,00211043562386016;
-0,00157447981474419;
-0,00130112388796317;
-0,00133451890080282;
-0,0015234790059065;
-0,00159720192680843;
-0,00135545065469536;
-0,000781245191263386;
-4,50533639477972E-5;
0,000630782731594865;
0,00112585670081928;
0,00147456241133934;
0,00180271752668563;
0,00219721757633589;
0,00263287628382733;
0,00300719793643853;
0,0032444589427249;
0,00337478809898873;
0,00350997598745654;
0,00373788301180318;
0,00402511567074868;
0,004218444144394;
0,00415541477472462;
0,00379989567938921;
0,00329466415829824;
0,00288246871834043;
0,00275057844271188;
0,00291389126151251;
0,00322118044434135;
0,00347443367184609;
0,00356569414807261;
0,0035291173335511;
0,00347883885049352;
0,00349494140420698;
0,00355612233183881;
0,00357098889374108;
0,00347297000866027;
0,00328990834051028;
0,00312335193913748;
0,00305294973243566;
0,00304919875754366;
0,00297518316741847;
0,0026855668924122;
0,00214855682739083;
0,00149261532615808;
0,000935537325080515;
0,000645124535361338;
0,000634496965412652;
0,000768067135787212;
0,000868461239285734;
0,000838992717929513;
0,00071006916223937;
0,000583444478258502;
0,000530305783377566;
0,000531193439964183;
0,000504096527927967;
0,000389211734575292;
0,000210944593998006;
5,93279936533936E-5;
4,74478724832685E-6;
2,02839629026987E-5;
-1,65431544637692E-5;
-0,000235572416691669;
-0,00066551482873721;
-0,0105260441187618;
-0,0242536082314067;
-0,0181837245263463;
-0,0111762003510561;
-0,0137107502180377;
-0,0083899526879411;
-0,00693150282195693;
-0,00589633385492779;
-0,00216549442448241;
-0,0023007451295112;
2,89075496495663E-5;
0,000914302091755621;
0,00173705673329901;
0,0034359927397267;
0,00374594217286105;
0,00477639877321467;
0,0049849128217413;
0,00530218817775483;
0,00602726998406465;
0,00668086025657582;
0,00774801817738065;
0,00836318461644438;
0,00857234125916098;
0,00831737675051225;
0,00768606503037829;
0,00715357627915192;
0,00669793822728974;
0,0063916594809148;
0,00604992369253736;
0,00554386239742972;
0,00496379240158101;
0,00438562408465585;
0,00394787101670366;
0,00360057872131562;
0,0032052479005492;
0,00267008627229928;
0,00202307238610497;
0,0014733938440083;
0,00122159393084413;
0,00131786552518983;
0,00159009890478734;
0,00173095253942704;
0,00151143008442281;
0,000911749972270776;
0,000125172922224515;
-0,000595468134136829;
-0,00111274402609198;
-0,00146597225891424;
-0,00179856840087065;
-0,00220996040720391;
-0,00267159915593413;
-0,00306636386921599;
-0,00330762148326566;
-0,00342962270179437;
-0,00356030877117295;
-0,00380042365305249;
-0,00411182879731651;
-0,00431878748009195;
-0,00423451503812196;
-0,00381693452660156;
-0,00322949831303639;
-0,00275100497432933;
-0,00259706276294737;
-0,00278530969856816;
-0,00314206497950228;
-0,00343931599137393;
-0,00355237665267889;
-0,0035202477716185;
-0,00347434480727024;
-0,00350704104690589;
-0,00359372792777073;
-0,00362867764325627;
-0,00353463931716152;
-0,00334349678654792;
-0,00317259766691658;
-0,00311417917663859;
-0,00313409353067174;
-0,0030734464324988;
-0,00276316768927469;
-0,0021656824860663;
-0,00142961849293979;
-0,000807890225675964;
-0,000495880191088597;
-0,000509361706668816;
-0,000690904770949544;
-0,000833980591966789;
-0,000825659805298931;
-0,000701058164657008;
-0,000578692593926177;
-0,000541661016340411;
-0,000567294001361281;
-0,00055969551798642;
-0,000448728191135233;
-0,000262711687368145;
-0,000106955949098641;
-6,40037723351565E-5;
-0,000102451249920853;
-7,8590955126088E-5;
0,000160306579379368;
0,000648516963156526;
0,00125283512557759;
0,00174644823744877;
0,00195447375408724;
0,00186353306298603;
0,00161576724417289;
0,00139723661611813;
0,00130984360869757;
0,00132262874976813;
0,00132989932146461;
0,00125778976867159;
0,00112721531177275;
0,0010246023629687;
0,00101321857133541;
0,00106818139092883;
0,00109577932257548;
0,00102272505021442;
0,000877577099512269;
0,000789121645497044;
0,000894037411799615;
0,00122314892399129;
0,00165785766261988;
0,00199621429998811;
0,00208272519091458;
0,00190588163516328;
0,00159262439148615;
0,00130882921264724;
0,00114532326086116;
0,00107468979346642;
0,00100310105219012;
0,000865076866284287;
0,000679341763633599;
0,000522721726091552;
0,000451393683544066;
0,000443285401085478;
0,000415320828576426;
0,000302590739533244;
0,000130432636020155;
1,28615356211002E-5;
7,07360154678642E-5;
0,000331148164038972;
0,0006890504865147;
0,000965840366179261;
0,00102412149989872;
0,000853744904024747;
0,000566734608635944;
0,000309332844487664;
0,00016146240054694;
9,8764818878325E-5;
3,84112790449504E-5;
-7,73884726438115E-5;
-0,000232275290641569;
-0,000358813713531271;
-0,000407799577106385;
-0,000398841264050545;
-0,000405103213233976;
-0,000483720526861826;
-0,000612579753020975;
-0,000691822174087189;
-0,000615703149869759;
-0,000360752414387321;
-1,92464924381774E-5;
0,000252257548861441;
0,000333429282581102;
0,000215347015318231;
-4,1141350609031E-6;
-0,000197287082059782;
-0,000294542026068443;
-0,000317321142033971;
-0,000338033819370874;
-0,000407173454125004;
-0,000510563557257975;
-0,00058955988392655;
-0,000601451515774957;
-0,000563436841104961;
-0,000539254499243983;
-0,000578628926615444;
-0,000662382064770676;
-0,00070385866755536;
-0,000611396685685512;
-0,000364792746227944;
-4,41910883368668E-5;
0,000214677314421219;
0,000307615628762278;
0,000226967264161114;
5,74595477780279E-5;
-9,0520449748113E-5;
-0,000156847762289779;
-0,000160094048284633;
-0,000162781252708628;
-0,000208447919359959;
-0,000284834610955934;
-0,000341390053644956;
-0,000341343282087193;
-0,000299515436870431;
-0,000270725179081876;
-0,000297670182225929;
-0,000363805906634016;
-0,00039468417202443;
-0,000311660425247663;
-9,74646215803855E-5;
0,000179162816061375;
0,000401970188618985;
0,000481849652762546;
0,000412385959706297;
0,000266143020933956;
0,000137511389001423;
7,78517919386889E-5;
7,13216421397772E-5;
6,46324771088933E-5;
2,07446334058523E-5;
-4,9821894545311E-5;
-0,000103983038093684;
-0,000110437404588458;
-8,17715178842853E-5;
-6,45187049979952E-5;
-9,48560404513223E-5;
-0,000158665857067065;
-0,000192781651386582;
-0,000130582699774813;
4,25029728876037E-5;
0,000268278496656363;
0,000448478510873152;
0,000507909735800527;
0,000441280328025713;
0,0003099117771349;
0,000193425919209108;
0,00013508931462325;
0,000121556020284313;
0,000108018261349279;
6,3390666957331E-5;
-3,43849240333927E-6;
-5,62840476254767E-5;
-6,89021812603201E-5;
-5,18543335582168E-5;
-4,40939745855007E-5;
-7,58464515206273E-5;
-0,000135260514261616;
-0,000169558355293791;
-0,000123179522624814;
1,59467356772139E-5;
0,00019925903398792;
0,000344937136250659;
0,000390490694194948;
0,00033161253871947;
0,000219294320765096;
0,000119611947109074;
6,83996318318002E-5;
5,45640403708386E-5;
4,10150142962859E-5;
2,07231411936202E-6;
-5,48982233031562E-5;
-0,000100036981402933;
-0,000111739646758284;
-9,87449251202869E-5;
-9,31218068651797E-5;
-0,00011969904071506;
-0,000168715608276417;
-0,000196874095481303;
-0,000158696043081725;
-4,4397902353925E-5;
0,000106209728315469;
0,000226240593194388;
0,000264728031617753;
0,000218239224949854;
0,000128370024017927;
4,88908461984039E-5;
8,88621511770462E-6;
-6,99801313942502E-7;
-9,96777812411933E-6;
-3,97077315515594E-5;
-8,39394612929939E-5;
-0,000118534188426614;
-0,000126086910600888;
-0,000113686251664595;
-0,000107175195780867;
-0,000126505417484799;
-0,000163805480064909;
-0,00018433865195572;
-0,000151722329141497;
-5,8227199986194E-5;
6,42402207559324E-5;
0,00016226709695638;
0,00019527698510009;
0,000160626277499414;
9,14516568337615E-5;
3,04520043380363E-5;
6,47631656277951E-7;
-5,17412072507966E-6;
-1,08199555472126E-5;
-3,26772541228944E-5;
-6,60035735245577E-5;
-9,18079860031465E-5;
-9,64443665752875E-5;
-8,55093344716377E-5;
-7,92515451201773E-5;
-9,32421491164721E-5;
-0,000121296016015517;
-0,000136336550746096;
-0,000110114300843455;
-3,6724820342269E-5;
5,90103932543711E-5;
0,000135738138963591;
0,00016217646878612;
0,000136391104785946;
8,39678581928803E-5;
3,77279319956397E-5;
1,5288751962168E-5;
1,10908740743583E-5;
6,94671611663002E-6;
-9,60204878904143E-6;
-3,49113034698376E-5;
-5,45601326808714E-5;
-5,82417062112026E-5;
-5,02184574687066E-5;
-4,57585555035951E-5;
-5,65360302354589E-5;
-7,7862220076631E-5;
-8,94612364268826E-5;
-7,02990224426152E-5;
-1,60836906136341E-5;
5,4654039563785E-5;
0,000111256780883948;
0,000130679742136738;
0,000111615194968118;
7,29617302904463E-5;
3,87988698229401E-5;
2,19663833051889E-5;
1,83684738855423E-5;
1,47841596677708E-5;
2,22467918979064E-6;
-1,6637696740169E-5;
-3,14167600993574E-5;
-3,47515593576586E-5;
-2,97277314948797E-5;
-2,72245771836896E-5;
-3,54854694100871E-5;
-5,11429373045528E-5;
-5,99092675544969E-5;
-4,70984426728913E-5;
-9,83522013331303E-6;
3,8879822689513E-5;
7,7784476557332E-5;
9,10631060313062E-5;
7,79527331857679E-5;
5,14810918620356E-5;
2,80601003910003E-5;
1,63411015161485E-5;
1,35090505537763E-5;
1,06888005695093E-5;
1,92397027287154E-6;
-1,09671865499722E-5;
-2,11286443901507E-5;
-2,37751715442949E-5;
-2,09659243792266E-5;
-1,975128966442E-5;
-2,53850214134496E-5;
-3,56557399203604E-5;
-4,14977582361181E-5;
-3,37558112437925E-5;
-1,07872831240046E-5;
1,92204977419292E-5;
4,3176043933496E-5;
5,15450632891269E-5;
4,40337661656208E-5;
2,85681634984926E-5;
1,49033845160062E-5;
8,05698095390027E-6;
6,32393461628879E-6;
4,59350783834154E-6;
-4,66882028149783E-7;
-7,78066928119767E-6;
-1,35472344336709E-5;
-1,52085516246766E-5;
-1,39365063980134E-5;
-1,34751214959702E-5;
-1,6499294986554E-5;
-2,17970941781152E-5;
-2,48063331346731E-5;
-2,1136774108203E-5;
-1,020499427337E-5;
3,94680408717613E-6;
1,52564473489115E-5;
1,95886173789721E-5;
1,70505699600492E-5;
1,11860617057033E-5;
6,03756848442576E-6;
3,50727315804049E-6;
2,8427567893917E-6;
2,15805936312065E-6;
3,65952774209979E-7;
-2,0924289462072E-6;
-4,02883472392575E-6;
-4,7871628527714E-6;
-4,78013015733073E-6;
-4,92939983540644E-6;
-5,71093712992772E-6;
-6,76553318515038E-6;
-7,36684971239221E-6;
-7,17884386439551E-6;
-6,51596571009177E-6;
-5,89372059705922E-6;
-5,40129701170585E-6;
-4,59096143374416E-6;
-3,01647620303032E-6;
-8,5001641654558E-7;
1,11174680484529E-6;
2,13510185935261E-6;
2,27502690125324E-6;
2,37230317079069E-6;
3,23608204504434E-6;
4,77042928975264E-6;
5,96004113705042E-6;
5,8589953940497E-6;
4,69557533847809E-6;
3,9245045605048E-6;
4,91887727474392E-6;
7,32026493125741E-6;
8,63340661120301E-6;
5,79362189965032E-6;
-2,26361534941654E-6;
-1,30960631084738E-5;
-2,17908444581235E-5;
-2,40667343348513E-5;
-1,91956686626428E-5;
-1,04545722813888E-5;
-2,67842533352934E-6;
1,20225411518664E-6;
1,91619731958442E-6;
2,57415480663961E-6;
5,56165119374824E-6;
1,03353422748248E-5;
1,40500024016659E-5;
1,44314331878195E-5;
1,22402566017269E-5;
1,08994131636416E-5;
1,33109646404037E-5;
1,85218301929783E-5;
2,13754601972575E-5;
1,60022209328913E-5;
7,21640583112293E-7;
-1,95857746905252E-5;
-3,5890613202036E-5;
-4,07615197087073E-5;
-3,32409749285246E-5;
-1,91545492032807E-5;
-6,6471455837386E-6;
-4,47109629891419E-7;
7,26086413928794E-7;
1,83762319801326E-6;
6,55839325904324E-6;
1,39788536450005E-5;
1,97628005814874E-5;
2,05558641266985E-5;
1,7552111286689E-5;
1,57723166157212E-5;
1,93572047768703E-5;
2,6870380442661E-5;
3,10013609144899E-5;
2,36147294762767E-5;
2,53518577491405E-6;
-2,53887086146476E-5;
-4,78119535901172E-5;
-5,47708199208788E-5;
-4,51256616681803E-5;
-2,67484520017078E-5;
-1,04364656355392E-5;
-2,35589846442057E-6;
-7,84479336301375E-7;
7,22751253663916E-7;
6,85985774652238E-6;
1,64243732649867E-5;
2,38944501841024E-5;
2,50589360643202E-5;
2,14563614821879E-5;
1,93722488275503E-5;
2,39251021299375E-5;
3,32954529966317E-5;
3,84748600495111E-5;
2,95463999446274E-5;
3,94869287428388E-6;
-2,99235409139277E-5;
-5,71280389490231E-5;
-6,57224338515239E-5;
-5,4427224351197E-5;
-3,27107321806542E-5;
-1,34337031238546E-5;
-3,87788223126995E-6;
-1,97758952102839E-6;
-1,42965723655652E-7;
7,10905577979578E-6;
1,83487750164573E-5;
2,71415713379178E-5;
2,86190580277371E-5;
2,45849317629892E-5;
2,22924577357423E-5;
2,76054790357293E-5;
3,84109938048145E-5;
4,44089850864174E-5;
3,43323932570081E-5;
5,33061042353213E-6;
-3,30308228944779E-5;
-6,38511764016863E-5;
-7,37016332522844E-5;
-6,1200313337837E-5;
-3,70121047412407E-5;
-1,55383685609805E-5;
-4,89033008173669E-6;
-2,74604891857327E-6;
-6,67564627689756E-7;
7,40980022996872E-6;
1,98874119747575E-5;
2,96595575848219E-5;
3,13772564550335E-5;
2,70392384822681E-5;
2,46039324244345E-5;
3,04751493558511E-5;
4,23255413598421E-5;
4,89224305163995E-5;
3,80293758638321E-5;
6,59197628583427E-6;
-3,49844257036451E-5;
-6,84037120330311E-5;
-7,91842654129975E-5;
-6,58748886492831E-5;
-3,99852135285475E-5;
-1,69972839955284E-5;
-5,60031208822523E-6;
-3,29269318291907E-6;
-1,04906020229412E-6;
7,59481227177799E-6;
2,09225457650273E-5;
3,13693387446682E-5;
3,32604591132516E-5;
2,87281559714367E-5;
2,62059991024959E-5;
3,2457966791413E-5;
4,50116699342347E-5;
5,20157055723176E-5;
4,05970992619418E-5;
7,57225861439489E-6;
-3,61028317695013E-5;
-7,12282574317213E-5;
-8,26480359935027E-5;
-6,88705809346342E-5;
-4,19437327363349E-5;
-1,80296522980058E-5;
-6,17662327814152E-6;
-3,77004336781237E-6;
-1,42386391055585E-6;
7,56743993800142E-6;
2,14142442786777E-5;
3,22767413559567E-5;
3,42887946777871E-5;
2,96627886541E-5;
2,71079744788527E-5;
3,35926979007662E-5;
4,65595772461852E-5;
5,38102317618362E-5;
4,21231018043682E-5;
8,2498840070285E-6;
-3,65527103682827E-5;
-7,26055981888245E-5;
-8,44051652451968E-5;
-7,04444773850998E-5;
-4,30453842195346E-5;
-1,87050688520603E-5;
-6,64237839687326E-6;
-4,18708633339251E-6;
-1,78745067643381E-6;
7,36737413702931E-6;
2,14527763649087E-5;
3,25120209729407E-5;
3,46028533161137E-5;
2,99719864791845E-5;
2,74334123716672E-5;
3,4026412350923E-5;
4,71600513201274E-5;
5,45215098174338E-5;
4,27868681248278E-5;
8,69821557527237E-6;
-3,64004286039903E-5;
-7,27132200917952E-5;
-8,46676262043408E-5;
-7,07627787588951E-5;
-4,33695795105175E-5;
-1,90265439638874E-5;
-6,9627452946967E-6;
-4,50106467370837E-6;
-2,08963985477015E-6;
7,07232053736753E-6;
2,1157726123315E-5;
3,22269436736311E-5;
3,43592771635605E-5;
2,97970054728383E-5;
2,73142520862184E-5;
3,39084714701632E-5;
4,69986871693876E-5;
5,43539875933444E-5;
4,27558429085165E-5;
8,98321848114946E-6;
-3,57123419866938E-5;
-7,17233118932397E-5;
-8,3642711720774E-5;
-6,99938181772854E-5;
-4,30077262550032E-5;
-1,9017868745197E-5;
-7,12910609611604E-6;
-4,69822134463465E-6;
-2,31179430199421E-6;
6,72446100743451E-6;
2,06081936418612E-5;
3,15288456084091E-5;
3,36687944450717E-5;
2,92335520763932E-5;
2,68369205130898E-5;
3,33406913438784E-5;
4,62100742852078E-5;
5,34592869374714E-5;
4,21477233889989E-5;
9,12979268219355E-6;
-3,45844581124575E-5;
-6,98284969786946E-5;
-8,1554962598643E-5;
-6,83262899758391E-5;
-4,20778734747299E-5;
-1,87347961691327E-5;
-7,16689268875853E-6;
-4,7984226272427E-6;
-2,46835206355677E-6;
6,33187639495373E-6;
1,98470410953071E-5;
3,04875280503284E-5;
3,26055917550024E-5;
2,83435119055906E-5;
2,60562525272922E-5;
3,23932967794657E-5;
4,48956529299458E-5;
5,19557870882085E-5;
4,10515633532238E-5;
9,14422280073144E-6;
-3,31188085758982E-5;
-6,72171632869653E-5;
-7,86205240053217E-5;
-6,59427255225715E-5;
-4,06974141123927E-5;
-1,8237115885485E-5;
-7,10721303145085E-6;
-4,82648409312368E-6;
-2,5779890214287E-6;
5,89744398920993E-6;
1,89097502306608E-5;
2,91639730364086E-5;
3,123576047614E-5;
2,71829706420598E-5;
2,50230113550079E-5;
3,1131916399896E-5;
4,31501312955709E-5;
4,99543606262906E-5;
3,95526773417218E-5;
9,03807093774266E-6;
-3,14006839431934E-5;
-6,40518063732539E-5;
-7,50265013408484E-5;
-6,29997423959961E-5;
-3,89641758294578E-5;
-1,75706378786919E-5;
-6,96983748378092E-6;
-4,79625263352113E-6;
-2,64879360769668E-6;
5,432615191691E-6;
1,78371819433622E-5;
2,76220543009364E-5;
2,96278992940125E-5;
2,58116925082642E-5;
2,37922682479943E-5;
2,9624939655645E-5;
4,10678908010222E-5;
4,75638171956353E-5;
3,77370019785611E-5;
8,83130895893171E-6;
-2,94967622334503E-5;
-6,04683148940608E-5;
-7,09311670783933E-5;
-5,96289077451964E-5;
-3,69578037781993E-5;
-1,67690918283401E-5;
-6,76566513009573E-6;
-4,71368703176978E-6;
-2,68193593133419E-6;
4,95326357836648E-6;
1,66710249144544E-5;
2,59236111214999E-5;
2,78477649082599E-5;
2,42873091892051E-5;
2,24172084760898E-5;
2,79370674629368E-5;
3,87363846276796E-5;
4,48841278409318E-5;
3,56839935949538E-5;
8,54472601408835E-6;
-2,74632733841355E-5;
-5,65845645280411E-5;
-6,64726788900009E-5;
-5,59453065939523E-5;
-3,47480035755179E-5;
-1,58620437335803E-5;
-6,50444546603023E-6;
-4,58445577327771E-6;
-2,6791099346138E-6;
4,47248393886346E-6;
1,54469143155037E-5;
2,4121854758689E-5;
2,59518920129784E-5;
2,26591148795866E-5;
2,09431184179013E-5;
2,61236143832473E-5;
3,62308423946636E-5;
4,2001467970014E-5;
3,34618048604175E-5;
8,19498367888532E-6;
-2,53511631576226E-5;
-5,25056906311764E-5;
-6,17741781248326E-5;
-5,20521278599842E-5;
-3,23984651024157E-5;
-1,48782219809234E-5;
-6,1976518488494E-6;
-4,4164796647873E-6;
-2,64475635392638E-6;
3,99876426419773E-6;
1,41930501005622E-5;
2,22603966553916E-5;
2,3986905511992E-5;
2,09675579335491E-5;
1,94070880719957E-5;
2,42305210122812E-5;
3,36146540988963E-5;
3,89889017209127E-5;
3,11280203474505E-5;
7,79510983864353E-6;
-2,32059849848617E-5;
-4,83242413850338E-5;
-5,69438950222522E-5;
-4,80404228013944E-5;
-2,99661120005692E-5;
-1,38442979788572E-5;
-5,85696895794907E-6;
-4,21828087181023E-6;
-2,58428882224657E-6;
3,53797092824007E-6;
1,29324367258163E-5;
2,03756844510658E-5;
2,19920265014886E-5;
1,92467111394431E-5;
1,78404598624138E-5;
2,22969075858401E-5;
3,09421116263594E-5;
3,59092073499667E-5;
2,87322986924953E-5;
7,35666347935412E-6;
-2,1066363422477E-5;
-4,41191571027431E-5;
-5,20742956475118E-5;
-4,39880590731571E-5;
-2,74996982292355E-5;
-1,27831872760577E-5;
-5,49249085315927E-6;
-3,99720694202869E-6;
-2,50234268517278E-6;
3,0951458057867E-6;
1,16847985643253E-5;
1,84989929195547E-5;
2,00009969170829E-5;
1,75260526379755E-5;
1,62705018288492E-5;
2,03567331203642E-5;
2,82601446206732E-5;
3,28166240288232E-5;
2,63178565807694E-5;
6,89064826785649E-6;
-1,89637852250249E-5;
-3,99561212795757E-5;
-4,72426642234962E-5;
-3,99601737694681E-5;
-2,5039928436808E-5;
-1,17138927649714E-5;
-5,11245344605697E-6;
-3,75919271061496E-6;
-2,40257571571881E-6;
2,67477912983059E-6;
1,04669851223433E-5;
1,66569081377129E-5;
1,80425336438012E-5;
1,5830780085661E-5;
1,47206010759273E-5;
1,84390374958933E-5;
2,56087025979699E-5;
2,9757276220898E-5;
2,39216796465492E-5;
6,4071975045476E-6;
-1,69235919247311E-5;
-3,58890966941534E-5;
-4,251280258621E-5;
-3,6010659937929E-5;
-2,26205651571655E-5;
-1,06522710905155E-5;
-4,72384112058098E-6;
-3,50934356381928E-6;
-2,28822365883353E-6;
2,28036353762055E-6;
9,29271802559653E-6;
1,48712287794129E-5;
1,61402454438871E-5;
1,4181664865751E-5;
1,3210094858643E-5;
1,65678569537807E-5;
2,30208390284599E-5;
2,6769357209684E-5;
2,15745392187331E-5;
5,91511378281668E-6;
-1,49660561256048E-5;
-3,19618758297205E-5;
-3,79367173630191E-5;
-3,21836298961847E-5;
-2,02694593327684E-5;
-9,61168279741979E-6;
-4,33284277706347E-6;
-3,25233819723596E-6;
-2,16244524719918E-6;
1,91421125251203E-6;
8,17261948954206E-6;
1,31591698123901E-5;
1,43128832526353E-5;
1,25952381281831E-5;
1,17544311295185E-5;
1,47624875326594E-5;
2,05231818249391E-5;
2,38837180946355E-5;
1,93014150771554E-5;
5,42183002206756E-6;
-1,31070170020218E-5;
-2,82091893118629E-5;
-3,35558598022261E-5;
-2,85144181448846E-5;
-1,80091487428845E-5;
-8,60323687239201E-6;
-3,94490097084235E-6;
-2,99241877130862E-6;
-2,02827288843355E-6;
1,5776352874144E-6;
7,11460660021498E-6;
1,15339013344012E-5;
1,25749124041848E-5;
1,10843146626612E-5;
1,03656468706808E-5;
1,30380614947418E-5;
1,81366840065768E-5;
2,11247032705787E-5;
1,71221856191454E-5;
4,93364407348192E-6;
-1,13582677685949E-5;
-2,46575730607511E-5;
-2,94021272241949E-5;
-2,50303803382673E-5;
-1,58572653465102E-5;
-7,63585912690541E-6;
-3,56462782948325E-6;
-2,73327484450754E-6;
-1,88845165498679E-6;
1,27122750366773E-6;
6,12434008060223E-6;
1,0005154840806E-5;
1,09371300588673E-5;
9,65852740926647E-6;
9,05288361388366E-6;
1,14061286888911E-5;
1,58773516868391E-5;
1,85109707805741E-5;
1,50522635212478E-5;
4,45589395667626E-6;
-9,72794444719582E-6;
-2,1326224405317E-5;
-2,54988659669361E-5;
-2,17517021053152E-5;
-1,38270052934323E-5;
-6,71644380580686E-6;
-3,19579142745748E-6;
-2,47801144982559E-6;
-1,74538941259626E-6;
9,95027901415975E-7;
5,20557166774771E-6;
8,57967717185201E-6;
9,40714190852543E-6;
8,32475384011516E-6;
7,82274561273401E-6;
9,87508751076341E-6;
1,37568395383922E-5;
1,60561561852727E-5;
1,31031172184879E-5;
3,99305153385497E-6;
-8,22101069523572E-6;
-1,82279188387509E-5;
-2,18619347039419E-5;
-1,86922951897929E-5;
-1,19276593093409E-5;
-5,85009304283659E-6;
-2,84141862491864E-6;
-2,22920950775427E-6;
-1,60119273603611E-6;
7,48588800082189E-7;
4,3603698797418E-6;
7,26160548725359E-6;
7,98975480916393E-6;
7,08742119459549E-6;
6,67958645724718E-6;
8,45054853572464E-6;
1,17829565381249E-5;
1,3769458792274E-5;
1,12826914816343E-5;
3,54874711970935E-6;
-6,83974029832703E-6;
-1,53699168300864E-5;
-1,85007282680854E-5;
-1,58606392735584E-5;
-1,01651491557178E-5;
-5,04036609397121E-6;
-2,50389869611356E-6;
-1,98900376192723E-6;
-1,45770625677809E-6;
5,31037152624055E-7;
3,58934078406967E-6;
6,05279711181428E-6;
6,68732284912673E-6;
5,94882147371936E-6;
5,62578554180914E-6;
7,13567935270577E-6;
9,9601474686876E-6;
1,16561977629921E-5;
9,5958570343512E-6;
3,12583467116098E-6;
-5,58415048707811E-6;
-1,27547743782248E-5;
-1,54191124836312E-5;
-1,32605603341587E-5;
-8,54250276621169E-6;
-4,28948677954961E-6;
-2,18505508116238E-6;
-1,75913328332526E-6;
-1,31654516608169E-6;
3,41153710654613E-7;
2,8918574156233E-6;
4,95317577297337E-6;
5,50012136278083E-6;
4,90942512159664E-6;
4,66203733259159E-6;
5,93155061452719E-6;
8,28997480292307E-6;
9,71837116506768E-6;
8,04482198647699E-6;
2,72647043558402E-6;
-4,4523662526563E-6;
-1,03810749860468E-5;
-1,26162692388331E-5;
-1,08919344425097E-5;
-7,06027001142845E-6;
-3,59851572429474E-6;
-1,88620419195092E-6;
-1,54096257630701E-6;
-1,17908441178766E-6;
1,77458727693415E-7;
2,26628032919748E-6;
3,96106077331145E-6;
4,4266855814428E-6;
3,96817780594029E-6;
3,78761980438124E-6;
4,83747319623711E-6;
6,77157215169936E-6;
7,95516403284258E-6;
6,62954491904308E-6;
2,35219567534286E-6;
-3,4409598879722E-6;
-8,24409008892498E-6;
-1,00874554472132E-5;
-8,75130669035577E-6;
-5,71690793971044E-6;
-2,96751805456646E-6;
-1,6082025883744E-6;
-1,33551261392296E-6;
-1,04646986335451E-6;
3,82889173301172E-8;
1,71015214271857E-6;
3,07345839253586E-6;
3,46412991962873E-6;
3,1227709696367E-6;
3,0006415677817E-6;
3,85129612819729E-6;
5,40205681976346E-6;
6,36342693393833E-6;
5,34809508490103E-6;
2,00401670502595E-6;
-2,54524802505533E-6;
-6,33638470058054E-6;
-7,824715652636E-6;
-6,83250268976755E-6;
-4,50913664350841E-6;
-2,39570587736968E-6;
-1,3515078456443E-6;
-1,14349820192E-6;
-9,19636307904315E-7;
-7,81430106970701E-8;
1,22038461805135E-6;
2,28632515032603E-6;
2,60841444245462E-6;
2,36987888874844E-6;
2,29825853261079E-6;
2,96967728225276E-6;
4,17688925445792E-6;
4,9380830262578E-6;
4,19698040156561E-6;
1,6824615024179E-6;
-1,7595786058973E-6;
-4,64838328254028E-6;
-5,8175272697209E-6;
-5,12713844966587E-6;
-3,43227456113987E-6;
-1,88160608132344E-6;
-1,11623005538418E-6;
-9,65362347466937E-7;
-7,99320962753453E-7;
-1,73704708774023E-7;
7,9338803970388E-7;
1,59479510171301E-6;
1,85459616939784E-6;
1,70537278843024E-6;
1,67686856292658E-6;
2,18831490869949E-6;
3,09020946010233E-6;
3,67252162801498E-6;
3,17144458780673E-6;
1,38764274796608E-6;
-1,07757960499883E-6;
-3,16884975346871E-6;
-4,05336420367139E-6;
-3,62512117216828E-6;
-2,48052792920163E-6;
-1,42317422098162E-6;
-9,0218607718741E-7;
-8,01309618411709E-7;
-6,86086212584878E-7;
-2,5029558152951E-7;
4,2522419149296E-7;
9,93385407124389E-7;
1,1970455914726E-6;
1,12450843989165E-6;
1,13228103170404E-6;
1,50216695079495E-6;
2,13512546898596E-6;
2,55892673437575E-6;
2,2657382142621E-6;
1,11932427370221E-6;
-4,92367767821352E-7;
-1,88533500209628E-6;
-2,51821708873955E-6;
-2,31506189213624E-6;
-1,64725334852496E-6;
-1,01792022429629E-6;
-7,0894624427542E-7;
-6,5134410123885E-7;
-5,80335310843158E-7;
-3,09815032386258E-7;
1,11712957179798E-7;
4,76183584510439E-7;
6,29642726720029E-7;
6,22096478461654E-7;
6,59882135776801E-7;
9,05645180998552E-7;
1,30398446223322E-6;
1,58858853465089E-6;
1,47335087631008E-6;
8,76965243621558E-7;
3,25851344485259E-9;
-7,84552010352868E-7;
-1,19703251525839E-6;
-1,18465508473877E-6;
-9,25195163776762E-7;
-6,63016424579251E-7;
-5,35876598254075E-7;
-5,15291686516113E-7;
-4,82321967969944E-7;
-3,54124642105589E-7;
-1,51461602026013E-7;
3,70001225816152E-8;
1,45948590273757E-7;
1,92651280600645E-7;
2,54762158961436E-7;
3,92781363822923E-7;
5,88605732723317E-7;
7,52176530934512E-7;
7,87232855492763E-7;
6,59775987827455E-7;
4,16658321719814E-7;
1,47291791862317E-7;
-7,40991225275006E-8;
-2,2100225246791E-7;
-3,06680601996924E-7;
-3,55382596125701E-7;
-3,82177481272042E-7;
-3,92829043808251E-7;
-3,92175113910163E-7;
-3,85029759340257E-7;
-3,68656385195448E-7;
-3,30490389160582E-7;
-2,60648394912797E-7;
-1,69475003184106E-7;
-8,81631148433705E-8;
-4,2625931243004E-8;
-1,95198694503881E-8;
3,99593088406529E-8;
1,99974357024713E-7;
4,66770219558323E-7;
7,55214530365324E-7;
9,2420473366279E-7;
8,66608119266301E-7;
5,89103206844528E-7;
2,16199264349861E-7;
-9,17743977909312E-8;
-2,46917314997437E-7;
-2,83509208317721E-7;
-3,09906438699925E-7;
-4,0425224482418E-7;
-5,44206118494963E-7;
-6,32635257128997E-7;
-5,96810624022356E-7;
-4,69998504126585E-7;
-3,74048921393029E-7;
-4,06879653884774E-7;
-5,2905766397568E-7;
-5,57987447255549E-7;
-2,96030505823483E-7;
2,96798239114623E-7;
1,02621329772445E-6;
1,56017701302977E-6;
1,64115098341948E-6;
1,25893667516948E-6;
6,51441023397885E-7;
1,31148078923063E-7;
-1,29063086801095E-7;
-1,86784016365884E-7;
-2,3543412097307E-7;
-4,1342445338313E-7;
-6,82355370565983E-7;
-8,75703555465415E-7;
-8,69139478833091E-7;
-7,14590943871098E-7;
-6,08032582220231E-7;
-7,06282542599003E-7;
-9,48674807164028E-7;
-1,0516018318245E-6;
-7,08446725776561E-7;
1,48588572688195E-7;
1,23675761378112E-6;
2,06897276331675E-6;
2,2653865007024E-6;
1,80164154570751E-6;
1,00699800843238E-6;
3,16761295254871E-7;
-2,75124879358844E-8;
-1,02030334999339E-7;
-1,6858845544032E-7;
-4,14068595564519E-7;
-7,87211135929677E-7;
-1,0658094921699E-6;
-1,08409366456421E-6;
-9,08818349071386E-7;
-7,95173675300124E-7;
-9,4704996058217E-7;
-1,28692048556725E-6;
-1,45070375030587E-6;
-1,04488416469347E-6;
2,07811686070365E-8;
1,39368139800737E-6;
2,46396714844945E-6;
2,75476781485454E-6;
2,23005770675991E-6;
1,29067790578312E-6;
4,68416520888467E-7;
5,8879848325221E-8;
-2,85606609440987E-8;
-1,09128877987395E-7;
-4,07595897373329E-7;
-8,62707790077499E-7;
-1,20884714491473E-6;
-1,24791409390583E-6;
-1,05807180814887E-6;
-9,40380341735895E-7;
-1,13522635271295E-6;
-1,552126052184E-6;
-1,76487159821577E-6;
-1,31279762661052E-6;
-8,80396821415621E-8;
1,50350072287227E-6;
2,75801396185153E-6;
3,12418954589741E-6;
2,55658509990257E-6;
1,51004603529504E-6;
5,89409437294457E-7;
1,31287237559648E-7;
3,43527129274583E-8;
-5,67580938373513E-8;
-3,9530263632163E-7;
-9,12567148517649E-7;
-1,31043522424683E-6;
-1,36657176538959E-6;
-1,16751735845186E-6;
-1,04837217396376E-6;
-1,27663228703603E-6;
-1,75231046838485E-6;
-2,00333929174452E-6;
-1,51940626669564E-6;
-1,79320465924303E-7;
1,57236159513741E-6;
2,96334049596451E-6;
3,38785432782635E-6;
2,79307949234067E-6;
1,67237088546702E-6;
6,82935252911385E-7;
1,90886092987857E-7;
8,74658350294745E-8;
-1,11315273095455E-8;
-3,78362923329338E-7;
-9,40283980093157E-7;
-1,37588609353004E-6;
-1,4457236649163E-6;
-1,24205600658992E-6;
-1,12363559942072E-6;
-1,37681667280127E-6;
-1,89513165045465E-6;
-2,17492990862514E-6;
-1,67163036423293E-6;
-2,5452008975447E-7;
1,60600643933589E-6;
3,09147669761784E-6;
3,55919217977014E-6;
2,95076909488346E-6;
1,78455428393257E-6;
7,52060500937632E-7;
2,38845180739997E-7;
1,315483991939E-7;
2,81301490027446E-8;
-3,57830705722706E-7;
-9,49111455544949E-7;
-1,41017288621954E-6;
-1,49067409778169E-6;
-1,28630067895827E-6;
-1,17040637124195E-6;
-1,44101982774896E-6;
-1,98782311979187E-6;
-2,28799141847991E-6;
-1,77604681399797E-6;
-3,15080756042705E-7;
1,60976461150724E-6;
3,15319269333871E-6;
3,65077900022647E-6;
3,04019168060941E-6;
1,85310134711005E-6;
7,99708078784977E-7;
2,76303347993954E-7;
1,67369253391415E-7;
6,14351488812243E-8;
-3,34648292273089E-7;
-9,42047441809437E-7;
-1,41791050162867E-6;
-1,50636756265915E-6;
-1,30455135425679E-6;
-1,19263740041987E-6;
-1,4741491734553E-6;
-2,03716436367001E-6;
-2,35035351579898E-6;
-1,83884836268296E-6;
-3,62420954801285E-7;
1,58853010183655E-6;
3,15846747935731E-6;
3,67429970883049E-6;
3,07116052440858E-6;
1,88408644133093E-6;
8,28630644209641E-7;
3,04369779322821E-7;
1,95692868598658E-7;
8,9208220507509E-8;
-3,09641763617349E-7;
-9,21834138510098E-7;
-1,4033493836924E-6;
-1,49736337210203E-6;
-1,30078586590312E-6;
-1,19399915123798E-6;
-1,48076194334846E-6;
-2,04945943550087E-6;
-2,36930878918858E-6;
-1,86581772347959E-6;
-3,97914693028807E-7;
1,54676465947951E-6;
3,11647726748155E-6;
3,64052032394939E-6;
3,05273150867444E-6;
1,883141916864E-6;
8,41407101145307E-7;
3,24106244389723E-7;
2,17266776609151E-7;
1,11882244829729E-7;
-2,83532211940577E-7;
-8,90958084269032E-7;
-1,37037457614144E-6;
-1,4678412937992E-6;
-1,2786521648002E-6;
-1,17786246669298E-6;
-1,46506015370787E-6;
-2,03052127190876E-6;
-2,35158262686665E-6;
-1,86231436777489E-6;
-4,22883976592262E-7;
1,48850188976154E-6;
3,03558510017776E-6;
3,55928683018881E-6;
2,99320662162207E-6;
1,85543976210105E-6;
8,4042430823355E-7;
3,36520065908378E-7;
2,32812852993057E-7;
1,29898086294738E-7;
-2,56937054607395E-7;
-8,51657093926711E-7;
-1,32250041916316E-6;
-1,42159186986012E-6;
-1,24147190264182E-6;
-1,14730718044866E-6;
-1,4308817594731E-6;
-1,98566638038416E-6;
-2,30334101487641E-6;
-1,83326701460668E-6;
-4,38588267106788E-7;
1,41735510722122E-6;
2,92335518052083E-6;
3,4395250921259E-6;
2,90012892876355E-6;
1,80570534725371E-6;
8,27888270677059E-7;
3,42567716387049E-7;
2,43026673687034E-7;
1,43686585416339E-7;
-2,30382553405072E-7;
-8,05923555608568E-7;
-1,26288676395733E-6;
-1,36203589706594E-6;
-1,19224464803671E-6;
-1,10511793166091E-6;
-1,3817102245547E-6;
-1,91972538499708E-6;
-2,23019010336942E-6;
-1,7831729822863E-6;
-4,46216553353028E-7;
1,33653486403294E-6;
2,78657327399162E-6;
3,28926532761746E-6;
2,78029746935102E-6;
1,73820839091029E-6;
8,05810243221347E-7;
3,43139565793046E-7;
2,48567217989667E-7;
1,53678476319961E-7;
-2,04304141675343E-7;
-7,55518696770105E-7;
-1,19434684289684E-6;
-1,29222613740755E-6;
-1,13365309963868E-6;
-1,05379660313774E-6;
-1,32068081890303E-6;
-1,83704745844189E-6;
-2,13718132194915E-6;
-1,71610304164697E-6;
-4,46886230052984E-7;
1,24886551015695E-6;
2,63127189092095E-6;
3,11567276089581E-6;
2,63979618797119E-6;
1,65678492969718E-6;
7,76015259384273E-7;
3,39064261713125E-7;
2,50056063475246E-7;
1,60285759158356E-7;
-1,79059088555154E-7;
-7,01983506221337E-7;
-1,11936516856634E-6;
-1,21486668080827E-6;
-1,06808287124838E-6;
-9,95571013941338E-7;
-1,25058751395394E-6;
-1,74151587509911E-6;
-2,02883627419951E-6;
-1,63571695005763E-6;
-4,41635481191442E-7;
1,15681036326317E-6;
2,46276788650513E-6;
2,92507850655909E-6;
2,48401376052611E-6;
1,56485041319931E-6;
7,4014737614273E-7;
3,31105219091434E-7;
2,48077754140636E-7;
1,63909800887708E-7;
-1,54930722824818E-7;
-6,46648673573673E-7;
-1,04011248522941E-6;
-1,13233078570827E-6;
-9,97628507275379E-7;
-9,32404413092038E-7;
-1,17390408730193E-6;
-1,63657168145036E-6;
-1,90916437150165E-6;
-1,54527207728718E-6;
-4,31423295723818E-7;
1,06248623162461E-6;
2,28570039690417E-6;
2,7230337427949E-6;
2,31768603947741E-6;
1,46541543769699E-6;
6,99671106106447E-7;
3,19962235511373E-7;
2,43172788287211E-7;
1,64930315783873E-7;
-1,32136239774733E-7;
-5,90652003685225E-7;
-9,58464244972283E-7;
-1,0466776622247E-6;
-9,24114708948134E-7;
-8,66013690394609E-7;
-1,09279939359408E-6;
-1,52523522354627E-6;
-1,78169043087695E-6;
-1,44764573136523E-6;
-4,17130860443387E-7;
9,67695323071074E-7;
2,10407397389912E-6;
2,51434293592863E-6;
2,14492951884293E-6;
1,36111739413457E-6;
6,55884269768821E-7;
3,06269182052807E-7;
2,3584201383586E-7;
1,63704323582577E-7;
-1,10839765333535E-7;
-5,34954080066979E-7;
-8,76025906064331E-7;
-9,5967540737391E-7;
-8,49115153559075E-7;
-7,97885667981447E-7;
-1,00915011700741E-6;
-1,41012656581927E-6;
-1,64948189543232E-6;
-1,34535673789207E-6;
-3,99559207090192E-7;
8,73948617698027E-7;
1,92130390516516E-6;
2,30312957635039E-6;
1,96928479210664E-6;
1,25422923694345E-6;
6,09923031713622E-7;
2,90596599441029E-7;
2,26540147846922E-7;
1,60574571257226E-7;
-9,11463815182461E-8;
-4,80353583092007E-7;
-7,94149975100842E-7;
-8,72822983515986E-7;
-7,73963807114476E-7;
-7,29285250952404E-7;
-9,2457178430153E-7;
-1,29349837851621E-6;
-1,5151757856559E-6;
-1,24058633474414E-6;
-3,79430044274553E-7;
7,82494604809293E-7;
1,74026156220345E-6;
2,09287735244824E-6;
1,79375957995825E-6;
1,14669706521159E-6;
5,62774360186125E-7;
2,73457472950458E-7;
2,15681154917863E-7;
1,55849310101055E-7;
-7,31231836946943E-8;
-4,27495364710878E-7;
-7,13955679623E-7;
-7,87371114486155E-7;
-6,99784764051558E-7;
-6,61283351979763E-7;
-8,4042520743276E-7;
-1,17726039192072E-6;
-1,38101766083226E-6;
-1,13519831002134E-6;
-3,57392040242316E-7;
6,94335526158543E-7;
1,56332572195543E-6;
1,88648827560325E-6;
1,62086782991273E-6;
1,04016166629212E-6;
5,15284066000953E-7;
2,55304540810659E-7;
2,03638826120028E-7;
1,49820553354585E-7;
-5,67949432890469E-8;
-3,76897132212539E-7;
-6,36358075266942E-7;
-7,04345796898302E-7;
-6,275006217034E-7;
-5,94766475273918E-7;
-7,57849814671298E-7;
-1,06300816873016E-6;
-1,24888772484516E-6;
-1,03077106728287E-6;
-3,34019108353141E-7;
6,10259946590968E-7;
1,39241858288275E-6;
1,68633439342365E-6;
1,45268003121196E-6;
9,35985633513451E-7;
4,68167524341589E-7;
2,36530890980897E-7;
1,90747678143831E-7;
1,42753050305861E-7;
-4,2156590612221E-8;
-3,28948412267032E-7;
-5,62078090278015E-7;
-6,24569638330455E-7;
-5,57857551340012E-7;
-5,30454978021517E-7;
-6,77774264449359E-7;
-9,52051420931003E-7;
-1,12033367398735E-6;
-9,28613587006283E-7;
-3,09819164123657E-7;
5,30864141378516E-7;
1,22906688162701E-6;
1,49431238994528E-6;
1,29085988102007E-6;
8,35274367277814E-7;
4,22021814509784E-7;
2,17483939575967E-7;
1,77301373386064E-7;
1,34885360492519E-7;
-2,91756991036976E-8;
-2,8394359457522E-7;
-4,9167524324846E-7;
-5,48680123564357E-7;
-4,91439553175275E-7;
-4,68921591291663E-7;
-6,00943141851136E-7;
-8,45442547123434E-7;
-9,96602921598244E-7;
-8,29793781895542E-7;
-2,85233806997548E-7;
4,56574731530464E-7;
1,07442957165951E-6;
1,31188660094662E-6;
1,13670913596578E-6;
7,38907056362922E-7;
3,77337446380771E-7;
1,9845937127177E-7;
1,63556824533581E-7;
1,26434232323452E-7;
-1,779732502799E-8;
-2,42076174939636E-7;
-4,25553354531143E-7;
-4,77158258223974E-7;
-4,28689661395878E-7;
-4,10604964315432E-7;
-5,27934365710219E-7;
-7,43996456397452E-7;
-8,78673693817753E-7;
-7,35163085624139E-7;
-2,60639677836264E-7;
3,87670763904772E-7;
9,29351431816429E-7;
1,14014547577496E-6;
9,91207411625042E-7;
6,47561567441472E-7;
3,34502827236323E-7;
1,79704577697399E-7;
1,49740827804243E-7;
1,17592940789352E-7;
-7,9502507889704E-9;
-2,03462179955565E-7;
-3,63988737006294E-7;
-4,10337310587899E-7;
-3,69925262923834E-7;
-3,55825301805071E-7;
-4,5917455393624E-7;
-6,48329503285416E-7;
-7,67285671024196E-7;
-6,45378860766361E-7;
-2,36362207686507E-7;
3,24303552631247E-7;
7,94396378318952E-7;
9,79844010680533E-7;
8,55048237831457E-7;
5,61726824660166E-7;
2,93822684702308E-7;
1,61431971302121E-7;
1,36041569387519E-7;
1,08530788856071E-7;
4,53144471460236E-10;
-1,68149866412034E-7;
-3,07146173589782E-7;
-3,48431062280276E-7;
-3,15354162095423E-7;
-3,04801239083949E-7;
-3,9496298000924E-7;
-5,58872688846891E-7;
-6,62966087577307E-7;
-5,60922053262746E-7;
-2,12669082664422E-7;
2,66515385283516E-7;
6,69888318954161E-7;
8,31448058190892E-7;
7,28682073984096E-7;
4,81741629411425E-7;
2,55520051328379E-7;
1,43810645469527E-7;
1,22622066741146E-7;
9,93962558754389E-8;
7,50686698696105E-9;
-1,36131352710118E-7;
-2,5509321366839E-7;
-2,91541744329408E-7;
-2,65087388611071E-7;
-2,57660818139441E-7;
-3,35483606912856E-7;
-4,75896980157489E-7;
-5,66053708680547E-7;
-4,82123696430269E-7;
-1,89782299600166E-7;
2,14257959763935E-7;
5,55945127641848E-7;
6,95173851444357E-7;
6,12339391439442E-7;
4,07802151919656E-7;
2,19750143434297E-7;
1,26972957133043E-7;
1,09614664966447E-7;
9,03173407094471E-8;
1,33127840372024E-8;
-1,07344650470684E-7;
-2,07813520090017E-7;
-2,39685942115858E-7;
-2,19155666623518E-7;
-2,14453854398973E-7;
-2,80826205049929E-7;
-3,99541716216926E-7;
-4,76730020211946E-7;
-4,09184458696295E-7;
-1,67880378504191E-7;
1,67407545855746E-7;
4,52508123546303E-7;
5,71025457673411E-7;
5,06072300295229E-7;
3,39989264784651E-7;
1,86610389609064E-7;
1,11026944281828E-7;
9,71299519690221E-8;
8,1403721823155E-8;
1,79775207318748E-8;
-8,16932361106341E-8;
-1,65223992826266E-7;
-1,92799258757383E-7;
-1,77521672057541E-7;
-1,75166678196336E-7;
-2,30989920983443E-7;
-3,29824746077353E-7;
-3,95041284701198E-7;
-3,42187033383036E-7;
-1,47100972952257E-7;
1,25776253120203E-7;
3,59375131274355E-7;
4,58831123910555E-7;
4,09776004842131E-7;
2,78279492925521E-7;
1,56144611334286E-7;
9,60468330269961E-8;
8,5250054466507E-8;
7,27462027131131E-8;
2,16067232745738E-8;
-5,90489507703272E-8;
-1,27184958094913E-7;
-1,50759600084715E-7;
-1,40093310595384E-7;
-1,39731257256928E-7;
-1,85912617177808E-7;
-2,66668663223699E-7;
-3,20915215653036E-7;
-2,81120577025259E-7;
-1,27546206731312E-7;
8,91311568609533E-8;
2,76226396364867E-7;
3,58272124625055E-7;
3,23221029457502E-7;
2,22569972973694E-7;
1,28350630314295E-7;
8,20870692041242E-8;
7,40437160871271E-8;
6,44182563357543E-8;
2,43094726323522E-8;
-3,92569764152963E-8;
-9,35131204214641E-8;
-1,13387087800928E-7;
-1,06730483496168E-7;
-1,08034614058509E-7;
-1,45468555783486E-7;
-2,0991666175117E-7;
-2,54184455653986E-7;
-2,25891974764899E-7;
-1,0928928156577E-7;
5,72034581639358E-8;
2,02647142210906E-7;
2,68912262658546E-7;
2,4607382863042E-7;
1,7268623281471E-7;
1,03192577168395E-7;
6,91752273464589E-8;
6,35532404738041E-8;
5,64802251883331E-8;
2,61875300342626E-8;
-2,21463299039641E-8;
-6,39899888682268E-8;
-8,04702317820946E-8;
-7,7254444553062E-8;
-7,99274130041412E-8;
-1,09487690401809E-7;
-1,59339181479849E-7;
-1,94605447096821E-7;
-1,76340090182933E-7;
-9,23705432545374E-8;
2,969351300786E-8;
1,38151317417834E-7;
1,90224844259207E-7;
1,7791879358725E-7;
1,28400275266403E-7;
8,05996049455202E-8;
5,73247147972303E-8;
5,3811642378837E-8;
4,89784209349146E-8;
2,73458267211434E-8;
-7,53192822095587E-9;
-3,8371036416578E-8;
-5,17620681376609E-8;
-5,14640807181791E-8;
-5,52326397627513E-8;
-7,77651169050708E-8;
-1,1466612216165E-7;
-1,4187012164715E-7;
-1,32251999589027E-7;
-7,68108124336201E-8;
6,290262785001E-9;
8,21967992694151E-8;
1,21611957569096E-7;
1,18277814919799E-7;
8,94399430365446E-8;
6,04815287054232E-8;
4,65314574994821E-8;
4,48324463795479E-8;
4,19442540163946E-8;
2,78783212370116E-8;
4,77651874097149E-9;
-1,63938330489754E-8;
-2,69926410384267E-8;
-2,91308132247768E-8;
-3,37530457196787E-8;
-5,00653000043475E-8;
-7,55758214150767E-8;
-9,56225667577676E-8;
-9,33696807774426E-8;
-6,2607514864613E-8;
-1,33353654603517E-8;
3,42053293820576E-8;
6,24294802082936E-8;
6,66274361500482E-8;
5,55005573214812E-8;
4,27245623146407E-8;
3,67760030369644E-8;
3,66200178002399E-8;
3,54028707183331E-8;
2,78753652068206E-8;
1,49723332667683E-8;
2,21155228499317E-9;
-5,88470856792347E-9;
-1,0019166556022E-8;
-1,52770292639509E-8;
-2,61324267799141E-8;
-4,17260577492965E-8;
-5,54754391943699E-8;
-5,94062334690124E-8;
-4,97433022771234E-8;
-2,95085459310862E-8;
-6,42202346928077E-9;
1,19978905491867E-8;
2,24164506340054E-8;
2,62569822998231E-8;
2,72005206417122E-8;
2,80315929634503E-8;
2,9166889807354E-8;
2,93660902684206E-8;
2,74237779847094E-8;
2,3252121869492E-8;
1,77261406778369E-8;
1,18530238281902E-8;
6,11934470687431E-9;
4,14756398063645E-10;
-5,70478208956712E-9;
-1,27532295198932E-8;
-2,10138318612012E-8;
-3,00498940739559E-8;
-3,81838858267244E-8;
-4,25571599358104E-8;
-4,02935799935814E-8;
-3,03756151791171E-8;
-1,49294516024051E-8;
1,36535716964483E-9;
1,37690881318038E-8;
2,02592132429491E-8;
2,24565704587803E-8;
2,38378717502908E-8;
2,66025460805168E-8;
2,98058038444245E-8;
3,04259694922533E-8;
2,65108538854852E-8;
1,95324902751014E-8;
1,35499463152926E-8;
1,14966472880725E-8;
1,1717364187588E-8;
8,18851894781329E-9;
-4,97561012733318E-9;
-2,78828336296956E-8;
-5,2799918551838E-8;
-6,8022649965585E-8;
-6,53910471434867E-8;
-4,59834538827745E-8;
-1,95184158442035E-8;
2,2868869538586E-9;
1,34138697415365E-8;
1,64661654754374E-8;
1,88179082341741E-8;
2,54847537179815E-8;
3,48203024467199E-8;
4,05865468403832E-8;
3,83789132822993E-8;
3,04711804894742E-8;
2,43527323343352E-8;
2,57458723686012E-8;
3,20653367211513E-8;
3,25652491945154E-8;
1,61514456389343E-8;
-1,87847332809112E-8;
-6,05462562345971E-8;
-9,0205169506913E-8;
-9,37380309039528E-8;
-7,13215131002137E-8;
-3,6745224299836E-8;
-7,39844702368465E-9;
7,44370429324843E-9;
1,11663702255083E-8;
1,42938370107285E-8;
2,41318619428797E-8;
3,84736004894E-8;
4,84740633436005E-8;
4,77370378030293E-8;
3,91770009943762E-8;
3,30463306464962E-8;
3,73162112562043E-8;
4,86647072838065E-8;
5,25490156447441E-8;
3,36679169015153E-8;
-1,08266514351385E-8;
-6,60919941001905E-8;
-1,07425956123668E-7;
-1,16093954014773E-7;
-9,15085437930131E-8;
-5,06617331523263E-8;
-1,54352257898229E-8;
2,29678333051654E-9;
6,52140640835315E-9;
1,02530431538344E-8;
2,26062580700796E-8;
4,09351298323505E-8;
5,43436832979379E-8;
5,48618516628239E-8;
4,58903824711763E-8;
3,98468307140486E-8;
4,6476411340418E-8;
6,18856080967334E-8;
6,85638357006514E-8;
4,79057918483833E-8;
-3,94067123599912E-9;
-6,97168798802188E-8;
-1,20243557783691E-7;
-1,33109739857873E-7;
-1,07089511922407E-7;
-6,1601589136584E-8;
-2,19746032286286E-8;
-2,08694943316017E-9;
2,49543660723129E-9;
6,67711777797981E-9;
2,09582257569588E-8;
4,23651365005698E-8;
5,84406656738267E-8;
6,00121570555389E-8;
5,08364189397163E-8;
4,49638345848879E-8;
5,3484313802163E-8;
7,20852285014278E-8;
8,10223554004555E-8;
5,91881084948801E-8;
1,94487947249702E-9;
-7,16825624499875E-8;
-1,29192500526624E-7;
-1,45410331362035E-7;
-1,18587426399126E-7;
-6,98910683787159E-8;
-2,7164350917675E-8;
-5,76524276069851E-9;
-9,52057094669447E-10;
3,54626197803143E-9;
1,92347713527024E-8;
4,29130873795144E-8;
6,09983063276276E-8;
6,34371270175421E-8;
5,423149046996E-8;
4,85975579311185E-8;
5,85889818112046E-8;
7,96055250845172E-8;
9,03206017631799E-8;
6,78323394045317E-8;
6,90462302480851E-9;
-7,22355682038377E-8;
-1,34775337596209E-7;
-1,53586665427989E-7;
-1,26501522387939E-7;
-7,58412683271142E-8;
-3,11461536203589E-8;
-8,79466622645315E-9;
-3,86309637923766E-9;
8,32138820900526E-10;
1,74738645512463E-8;
4,27158622568395E-8;
6,2227776447974E-8;
6,53677574611846E-8;
5,62818641277432E-8;
5,09360784430552E-8;
6,20236546196549E-8;
8,4772963252865E-8;
9,6835933233248E-8;
7,41394068610541E-8;
1,10157352610279E-8;
-7,16011481277088E-8;
-1,37461660590157E-7;
-1,5819156660342E-7;
-1,31298315196837E-7;
-7,97410712848585E-8;
-3,40580305196355E-8;
-1,12394151322876E-8;
-6,27974440429549E-9;
-1,48914281415117E-9;
1,57104207205183E-8;
4,19006469825419E-8;
6,23310477274177E-8;
6,60200758012935E-8;
5,71728362464059E-8;
5,21544936187599E-8;
6,40110504041536E-8;
8,78937648874172E-8;
1,00923311997861E-7;
7,83934503448678E-8;
1,43500243031169E-8;
-6,99842774145647E-8;
-1,3768391247245E-7;
-1,59741522753581E-7;
-1,33418232897756E-7;
-8,18712217110895E-8;
-3,60286825250089E-8;
-1,31521168493617E-8;
-8,24559523713539E-9;
-3,4451925700696E-9;
1,39728121308081E-8;
4,05804322733116E-8;
6,14920005640209E-8;
6,55935820715727E-8;
5,70822903218151E-8;
5,24209400661804E-8;
6,47559923576409E-8;
8,92543534153759E-8;
1,02921261262723E-7;
8,08659158293433E-8;
1,69837623921425E-8;
-6,75733358835681E-8;
-1,35847352015844E-7;
-1,5871158299131E-7;
-1,33263676190533E-7;
-8,2484179505696E-8;
-3,71787613914799E-8;
-1,45916906579165E-8;
-9,80312230175439E-9;
-5,06553350281844E-9;
1,22835064419128E-8;
3,88594392098305E-8;
5,98763266726133E-8;
6,42735209885466E-8;
5,61735708547672E-8;
5,18832267424321E-8;
6,44511277650283E-8;
8,91192894012779E-8;
1,03131616733966E-7;
8,18063317198084E-8;
1,89884063651994E-8;
-6,4534715521013E-8;
-1,32311864140875E-7;
-1,55539890186254E-7;
-1,31208934623968E-7;
-8,18176890809773E-8;
-3,76257562849233E-8;
-1,56102459915137E-8;
-1,09919762368394E-8;
-6,37745737908735E-9;
1,06640756911885E-8;
3,68315920955469E-8;
5,76367751736003E-8;
6,22223320614919E-8;
5,45906493219903E-8;
5,06815003640271E-8;
6,32688963735129E-8;
8,77315635285877E-8;
1,01842929263092E-7;
8,14466391353498E-8;
2,04343460631031E-8;
-6,10180423626193E-8;
-1,27411579319435E-7;
-1,50621328324205E-7;
-1,27590998524391E-7;
-8,00879130114768E-8;
-3,74747586839811E-8;
-1,62607328952536E-8;
-1,18529731481623E-8;
-7,40931264025426E-9;
9,12793050323426E-9;
3,45770210190965E-8;
5,4909010080725E-8;
5,95933258627608E-8;
5,24695417174894E-8;
4,8939349863387E-8;
6,13683703358439E-8;
8,53167488224775E-8;
9,93153405347361E-8;
7,99990651367935E-8;
2,13849315636556E-8;
-5,71583113417224E-8;
-1,21440361395348E-7;
-1,44311770967149E-7;
-1,22716159784579E-7;
-7,74916444755964E-8;
-3,68225894109247E-8;
-1,65895556027806E-8;
-1,24262882646127E-8;
-8,18979026588175E-9;
7,68726780570646E-9;
3,21686631648528E-8;
5,18146010062224E-8;
5,6516605478261E-8;
4,99258598336757E-8;
4,67716541493372E-8;
5,88946293829059E-8;
8,20722496705389E-8;
9,57850558394436E-8;
7,76612515813066E-8;
2,19053584844858E-8;
-5,30682856379263E-8;
-1,14661792309506E-7;
-1,36930930237602E-7;
-1,16861062537946E-7;
-7,42058771272115E-8;
-3,57573530615072E-8;
-1,66431495858346E-8;
-1,27455672526246E-8;
-8,746256511278E-9;
6,34710308106504E-9;
2,96676017378154E-8;
4,84587369569414E-8;
5,31131890427983E-8;
4,70692698982905E-8;
4,42781848148742E-8;
5,59742642513078E-8;
7,81795015282022E-8;
9,14622880681005E-8;
7,46060504251045E-8;
2,2053978573536E-8;
-4,8848463866417E-8;
-1,07307613620947E-7;
-1,28761521699736E-7;
-1,10267854206311E-7;
-7,03892415835902E-8;
-3,43622859676843E-8;
-1,64614171392289E-8;
-1,28450392775577E-8;
-9,10356271891974E-9;
5,11615265537796E-9;
2,71267154510044E-8;
4,49335532631493E-8;
4,94853598333332E-8;
4,3989592655036E-8;
4,15479093716238E-8;
5,27235095974859E-8;
7,37992155778874E-8;
8,65369541707729E-8;
7,09928179322523E-8;
2,18858251280061E-8;
-4,45859011094406E-8;
-9,9580743572204E-8;
-1,2004956551757E-7;
-1,03153942160421E-7;
-6,61826492614833E-8;
-3,27070844342075E-8;
-1,60855855283394E-8;
-1,27575280423779E-8;
-9,28595467592888E-9;
3,99501510310472E-9;
2,45931722553228E-8;
4,13217933579203E-8;
4,57232197760915E-8;
4,0769292385609E-8;
3,86594818685562E-8;
4,92413190470904E-8;
6,90717826168232E-8;
8,11754188739147E-8;
6,69601026948212E-8;
2,14511040212082E-8;
-4,03499596332671E-8;
-9,16552019212771E-8;
-1,11011845775911E-7;
-9,57055608259673E-8;
-6,1708616352618E-8;
-3,08580484864211E-8;
-1,55502785713738E-8;
-1,25129623448464E-8;
-9,32000284269268E-9;
2,98445283874246E-9;
2,21032237759305E-8;
3,76870598066471E-8;
4,19040910073504E-8;
3,74786844216897E-8;
3,56789041385716E-8;
4,56152582368011E-8;
6,41222687041273E-8;
7,5525665921718E-8;
6,26328017611233E-8;
2,07969879402888E-8;
-3,62026366924258E-8;
-8,36823138554245E-8;
-1,01832027108397E-7;
-8,80837192651321E-8;
-5,70747947124644E-8;
-2,88698782835488E-8;
-1,48846634434871E-8;
-1,21376742024817E-8;
-9,2246369645124E-9;
2,08378097998131E-9;
1,96886010767207E-8;
3,40914615943595E-8;
3,80940942153446E-8;
3,4178322336397E-8;
3,26669624975752E-8;
4,19214147354953E-8;
5,90562854292866E-8;
6,9713052817644E-8;
5,81186199815924E-8;
1,99644760116594E-8;
-3,21904286523197E-8;
-7,57848207233447E-8;
-9,26697158690584E-8;
-8,04284956899588E-8;
-5,23734548190639E-8;
-2,6795099322621E-8;
-1,41208792789217E-8;
-1,16582721768845E-8;
-9,02218290471926E-9;
1,28916703122519E-9;
1,73724367900012E-8;
3,05798831878723E-8;
3,4345784353199E-8;
3,0914663659085E-8;
2,96708668118998E-8;
3,82229892180631E-8;
5,39643256145727E-8;
6,38479620044727E-8;
5,3511855499196E-8;
1,89924524312596E-8;
-2,83531819968831E-8;
-6,80655331491119E-8;
-8,3650615932265E-8;
-7,28547085358774E-8;
-4,76822906559787E-8;
-2,46749773758514E-8;
-1,32842517854533E-8;
-1,10957909630083E-8;
-8,72977730866629E-9;
5,96641709069081E-10;
1,5173351110816E-8;
2,71911333497692E-8;
3,07081175760521E-8;
2,77332644303039E-8;
2,6730860409676E-8;
3,45750044746745E-8;
4,89260738248308E-8;
5,80201031571832E-8;
4,8889022317114E-8;
1,79158603638746E-8;
-2,47183532305713E-8;
-6,06108350646814E-8;
-7,48877790727173E-8;
-6,54601711434756E-8;
-4,30667981719857E-8;
-2,25482206694823E-8;
-1,23961328043866E-8;
-1,04680071402883E-8;
-8,36619800395566E-9;
6,01346017460146E-13;
1,31074957858809E-8;
2,395480860528E-8;
2,7212691290517E-8;
2,46651098292358E-8;
2,38816912581621E-8;
3,10207302744594E-8;
4,40018023529894E-8;
5,23077777513554E-8;
4,43216537126395E-8;
1,67653619332889E-8;
-2,13096168195874E-8;
-5,34863531109679E-8;
-6,64631528705761E-8;
-5,83217119691989E-8;
-3,85824386195444E-8;
-2,04426750031739E-8;
-1,14765555141615E-8;
-9,7975009175413E-9;
-7,94464082825567E-9;
-5,03900691921042E-10;
1,11812555686301E-8;
2,08947121291967E-8;
2,38893552556608E-8;
2,1737483939974E-8;
2,11488179253778E-8;
2,75952205543749E-8;
3,9245557216272E-8;
4,67733333354606E-8;
3,98627379274943E-8;
1,55669614157703E-8;
-1,81415763229186E-8;
-4,67434196604789E-8;
-5,84459100208702E-8;
-5,15004830664784E-8;
-3,42697529598673E-8;
-1,83876220157987E-8;
-1,05444387952357E-8;
-9,0976283013693E-9;
-7,48242907488019E-9;
-9,22450360563408E-10;
9,4042958036545E-9;
1,80269541817111E-8;
2,07590939731405E-8;
1,89690957818639E-8;
1,85542868217339E-8;
2,43295057877918E-8;
3,46964989427962E-8;
4,14659750339136E-8;
3,55579016682886E-8;
1,43447488956143E-8;
-1,52202366346572E-8;
-4,04177491841908E-8;
-5,08866244818133E-8;
-4,50448417827038E-8;
-3,01640505444486E-8;
-1,64013941550664E-8;
-9,61333661296363E-9;
-8,38230664654842E-9;
-6,98897308807529E-9;
-1,26377835079809E-9;
7,77611074581194E-9;
1,53614936230494E-8;
1,78343506469645E-8;
1,63763532809359E-8;
1,61132349104928E-8;
2,12424296942585E-8;
3,0387770351826E-8;
3,64258379693892E-8;
3,14426757593743E-8;
1,31160723757273E-8;
-1,25519979810081E-8;
-3,45337003938997E-8;
-4,38194400675362E-8;
-3,89872917392564E-8;
-2,62901605634661E-8;
-1,45014565233633E-8;
-8,69538539162202E-9;
-7,66486079004413E-9;
-6,47795101156486E-9;
-1,53191317243402E-9;
6,30044955783462E-9;
1,29067203426074E-8;
1,51273488030793E-8;
1,39664774852626E-8;
1,38336880133765E-8;
1,83504056420857E-8;
2,63406052749717E-8;
3,16797237346991E-8;
2,75458927866631E-8;
1,19026129453248E-8;
-1,01332204051804E-8;
-2,91063760394432E-8;
-3,72671264496536E-8;
-3,3351271588662E-8;
-2,26667806461851E-8;
-1,27012977302384E-8;
-7,80236506258306E-9;
-6,95373381279438E-9;
-5,95546151467489E-9;
-1,73598843976198E-9;
4,97001225781029E-9;
1,0662652036096E-8;
1,26408600203932E-8;
1,1746042339591E-8;
1,17247976796649E-8;
1,56630631647718E-8;
2,25717304046066E-8;
2,72499179757634E-8;
2,38853342846691E-8;
1,07143634015847E-8;
-7,9590036282151E-9;
-2,41402738786356E-8;
-3,12426647239175E-8;
-2,81485628058073E-8;
-1,93045206647209E-8;
-1,10102816888416E-8;
-6,940341935435E-9;
-6,25808327240595E-9;
-5,43481616628094E-9;
-1,88330287152676E-9;
3,7847227318109E-9;
8,62922058639936E-9;
1,03746308691994E-8;
9,71558591987579E-9;
9,78815341151361E-9;
1,31850831478856E-8;
1,90888509378008E-8;
2,31458008594459E-8;
2,04752698756389E-8;
9,56574259914941E-9;
-6,02445907370504E-9;
-1,96323060186965E-8;
-2,5745492269301E-8;
-2,33862997795232E-8;
-1,62089540551414E-8;
-9,43441455928047E-9;
-6,11823610578071E-9;
-5,58314581061026E-9;
-4,91780441718556E-9;
-1,97854786553445E-9;
2,73742471422245E-9;
6,80257357100704E-9;
8,32692553243156E-9;
7,87470806683919E-9;
8,0253634588037E-9;
1,09191210401716E-8;
1,589688216997E-8;
1,93759406032422E-8;
1,73245706580612E-8;
8,46545579552811E-9;
-4,31811555446021E-9;
-1,55750339982036E-8;
-2,0770408809119E-8;
-1,90602743074983E-8;
-1,33833047320306E-8;
-7,97784751502362E-9;
-5,34033819417704E-9;
-4,93740172058445E-9;
-4,41523268450584E-9;
-2,02971135583599E-9;
1,8211496934077E-9;
5,17281382762892E-9;
6,49231483809594E-9;
6,21941480540527E-9;
6,43212620982168E-9;
8,86433516192728E-9;
1,29932704034564E-8;
1,59374894695137E-8;
1,44343100584011E-8;
7,42027459303138E-9;
-2,82737024416879E-9;
-1,19538277775483E-8;
-1,63059170712552E-8;
-1,51617218597723E-8;
-1,0822470534275E-8;
-6,64209004166399E-9;
-4,61046506003152E-9;
-4,32454591419552E-9;
-3,92925432992913E-9;
-2,04203235147954E-9;
1,02887582922732E-9;
3,73628690585053E-9;
4,86348407419263E-9;
4,74374088923072E-9;
5,00500529571614E-9;
7,0147106331453E-9;
1,03737658396466E-8;
1,28272021927635E-8;
1,18047338633761E-8;
6,43722548100972E-9;
-1,53896080625522E-9;
-8,74942322936583E-9;
-1,23329552285931E-8;
-1,16792311152207E-8;
-8,52066400635578E-9;
-5,42534507243363E-9;
-3,93192006594459E-9;
-3,74685440688317E-9;
-3,46332327139563E-9;
-2,02317689435814E-9;
3,50973524043322E-10;
2,479930561389E-9;
3,4282490729413E-9;
3,43830822862902E-9;
3,73676430777448E-9;
5,36369261716062E-9;
8,02956876512536E-9;
1,00363915613024E-8;
9,43031004156282E-9;
5,51751183258101E-9;
-4,4222955732992E-10;
-5,94221045115355E-9;
-8,82787557020413E-9;
-8,59230708512419E-9;
-6,46800755277263E-9;
-4,32727545414222E-9;
-3,30437408607193E-9;
-3,20660622784131E-9;
-3,02122906521484E-9;
-1,97440513986423E-9;
-2,20932768192014E-10;
1,39108076518587E-9;
2,17781671097724E-9;
2,29579994937682E-9;
2,62073933598194E-9;
3,90351310976257E-9;
5,94853897047722E-9;
7,55177467122093E-9;
7,30371295344058E-9;
4,6665888093939E-9;
4,81891992641364E-10;
-3,50719174304257E-9;
-5,7661651865041E-9;
-5,88458832252654E-9;
-4,65661706548473E-9;
-3,34302923385964E-9;
-2,73004713531164E-9;
-2,7073664063957E-9;
-2,60584526155139E-9;
-1,90448536618312E-9;
-6,93360695386925E-10;
4,62421524648207E-10;
1,0993591669214E-9;
1,30723618025959E-9;
1,64767674529106E-9;
2,62170479736312E-9;
4,12002823686809E-9;
5,36263484025153E-9;
5,41707024890649E-9;
3,88439658976545E-9;
1,24473607668555E-9;
-1,41980936481797E-9;
-3,12000193457061E-9;
-3,53175148489573E-9;
-3,07025513578138E-9;
-2,46838650818688E-9;
-2,2065723116683E-9;
-2,24759780359407E-9;
-2,21867098975377E-9;
-1,81508948823402E-9;
-1,07763210966964E-9;
-3,20457042707665E-10;
1,83393067436964E-10;
4,59801052484879E-10;
8,09908416222374E-10;
1,51288735577245E-9;
2,52742193085878E-9;
3,44864513065392E-9;
3,75437399696021E-9;
3,16897047555325E-9;
1,86369199780959E-9;
3,4597064422151E-10;
-8,61250237311568E-10;
-1,51022401455264E-9;
-1,69740999735038E-9;
-1,69966751685925E-9;
-1,73407469376946E-9;
-1,82786194038553E-9;
-1,86120788563017E-9;
-1,71363493007506E-9;
-1,38179514246781E-9;
-9,70743100190235E-10;
-5,87609236983118E-10;
-2,55161868335266E-10;
9,59897433187585E-11;
5,59986462330702E-10;
1,1565566827548E-9;
1,79387404311173E-9;
2,30581862099764E-9;
2,52260378862278E-9;
2,35194413879095E-9;
1,81824331817762E-9;
1,04281532702065E-9;
2,04321664995736E-10;
-5,216129809719E-10;
-1,02952255215496E-9;
-1,31249630034E-9;
-1,44769800731409E-9;
-1,53119687498499E-9;
-1,6007978945645E-9;
-1,61539737150394E-9;
-1,49916926152583E-9;
-1,22226208627053E-9;
-8,49965624431719E-10;
-5,03006111533725E-10;
-2,46304690596996E-10;
-8,44398669023056E-12;
3,8228999454111E-10;
1,05709352257859E-9;
1,94113388803032E-9;
2,72352099405417E-9;
3,02145577058767E-9;
2,61956107348159E-9;
1,63593040805259E-9;
4,7077215997971E-10;
-4,5137601909921E-10;
-9,38583771914726E-10;
-1,10728802149729E-9;
-1,23133562927865E-9;
-1,4817640509961E-9;
-1,78544746677627E-9;
-1,91872820938291E-9;
-1,73641145077355E-9;
-1,33611978686955E-9;
-9,97590116605638E-10;
-9,18144809204982E-10;
-9,85872600949592E-10;
-8,0791218611781E-10;
-6,11506434050318E-12;
1,4227142665516E-9;
2,99293829383725E-9;
3,98355672901236E-9;
3,90010384914079E-9;
2,81214528818318E-9;
1,29747468029279E-9;
4,12282347777547E-11;
-6,09290759725473E-10;
-8,0410884770965E-10;
-9,60207797662098E-10;
-1,35722752001293E-9;
-1,90034978411362E-9;
-2,24120878134097E-9;
-2,13888180435562E-9;
-1,72231144669656E-9;
-1,39744449226656E-9;
-1,46748428072411E-9;
-1,79100603585053E-9;
-1,7950731735373E-9;
-8,99036863977268E-10;
9,65633908217908E-10;
3,17194690771419E-9;
4,72880183265537E-9;
4,91599376407549E-9;
3,75586441172102E-9;
1,96981162442697E-9;
4,53538935103962E-10;
-3,23662993362986E-10;
-5,36222103462611E-10;
-7,16851299107437E-10;
-1,23335876982883E-9;
-1,96881798639863E-9;
-2,47688096805758E-9;
-2,44467739461333E-9;
-2,02056832620128E-9;
-1,71081936243078E-9;
-1,90708817854739E-9;
-2,44075559239782E-9;
-2,59752472934701E-9;
-1,63665124962033E-9;
5,65716586129642E-10;
3,27367332802634E-9;
5,2837032530909E-9;
5,69422169785499E-9;
4,49155625240392E-9;
2,50632565919308E-9;
7,94213835691176E-10;
-7,7499996324673E-11;
-3,02192349823702E-10;
-5,01895418996618E-10;
-1,10870440724226E-9;
-1,99291266654159E-9;
-2,63761716043969E-9;
-2,6654506981894E-9;
-2,24019744285757E-9;
-1,94950759804475E-9;
-2,24790677111099E-9;
-2,94978536636705E-9;
-3,2325488222873E-9;
-2,23190642250519E-9;
2,2003462149841E-10;
3,30836219307474E-9;
5,66791731033074E-9;
6,26227501298903E-9;
5,04418997593515E-9;
2,92033876063121E-9;
1,06899939863438E-9;
1,31158989275776E-10;
-1,00554141828784E-10;
-3,11831921077698E-10;
-9,8634107394989E-10;
-1,98488806297371E-9;
-2,73194732831347E-9;
-2,81014621074785E-9;
-2,39255288142275E-9;
-2,12083105337362E-9;
-2,5012431559773E-9;
-3,33490557777633E-9;
-3,72093954562946E-9;
-2,70150574222354E-9;
-7,47929111337816E-11;
3,28736316941649E-9;
5,90809916990622E-9;
6,64753717246328E-9;
5,43194858670526E-9;
3,22454849237196E-9;
1,28502093666504E-9;
3,05917295155823E-10;
7,25173805025209E-11;
-1,4774911310588E-10;
-8,69348446022903E-10;
-1,94680305038452E-9;
-2,7706741531718E-9;
-2,88908775866806E-9;
-2,48333611620003E-9;
-2,23442754615012E-9;
-2,67765461861013E-9;
-3,60883920342739E-9;
-4,07581945484069E-9;
-3,05736866249497E-9;
-3,24492425206054E-10;
3,21903377138562E-9;
6,02014674370709E-9;
6,8721139531481E-9;
5,67916955544907E-9;
3,43381062329725E-9;
1,44885088337161E-9;
4,48407813567928E-10;
2,16656501030479E-10;
-5,21492734645347E-12;
-7,55149687412646E-10;
-1,88435150764303E-9;
-2,76141588459814E-9;
-2,9131686599E-9;
-2,52287016288914E-9;
-2,2949520797694E-9;
-2,78611617413707E-9;
-3,78857556764545E-9;
-4,31713784601602E-9;
-3,31266807406251E-9;
-5,29390877227964E-10;
3,11446515742605E-9;
6,0261433683163E-9;
6,95918940772005E-9;
5,8040460520528E-9;
3,56072711768143E-9;
1,56449906611409E-9;
5,62355254993543E-10;
3,36350799217505E-10;
1,14992496031628E-10;
-6,49085197480192E-10;
-1,80556483374096E-9;
-2,71225670791395E-9;
-2,89070240048141E-9;
-2,520547633695E-9;
-2,31433776775272E-9;
-2,8392479863203E-9;
-3,88402792060387E-9;
-4,45627236794415E-9;
-3,48081989640165E-9;
-6,96854884655558E-10;
2,97770834164226E-9;
5,94179738082601E-9;
6,93252990307228E-9;
5,82493360359392E-9;
3,61567229215443E-9;
1,64226020550714E-9;
6,52449573732279E-10;
4,32475783593574E-10;
2,1526819388145E-10;
-5,48431500734008E-10;
-1,71118372786801E-9;
-2,63159354449028E-9;
-2,82911493513136E-9;
-2,48044699111788E-9;
-2,29571072668143E-9;
-2,84128628548015E-9;
-3,90886608463975E-9;
-4,5106464845639E-9;
-3,57316790374612E-9;
-8,28055556930433E-10;
2,8197341997987E-9;
5,78322190301336E-9;
6,80685326760994E-9;
5,75653167616094E-9;
3,60952461566804E-9;
1,68313343526544E-9;
7,18390912957048E-10;
5,08782304725603E-10;
2,97755917019223E-10;
-4,547733209935E-10;
-1,60558629348838E-9;
-2,52425756856029E-9;
-2,73535668982969E-9;
-2,41132336685469E-9;
-2,24725018086075E-9;
-2,80186344678459E-9;
-3,87370977321467E-9;
-4,49160281060115E-9;
-3,60002464731058E-9;
-9,2839424598506E-10;
2,64490166737414E-9;
5,5671424081864E-9;
6,60464651105609E-9;
5,61772190151205E-9;
3,55280641688053E-9;
1,69313720351786E-9;
7,6436960332976E-10;
5,66390147134854E-10;
3,63532708145157E-10;
-3,68679724500182E-10;
-1,49327080562554E-9;
-2,39766908279118E-9;
-2,61744664430082E-9;
-2,31727785048361E-9;
-2,17353417775885E-9;
-2,72891790363813E-9;
-3,78849411672956E-9;
-4,4131202214415E-9;
-3,57244123273056E-9;
-9,99612446661871E-10;
2,45723942733978E-9;
5,30249468225603E-9;
6,33854571894984E-9;
5,41912595362624E-9;
3,45379223014241E-9;
1,67906635233512E-9;
7,92546615654953E-10;
6,05913303045565E-10;
4,14356359093076E-10;
-2,89962970577284E-10;
-1,3769508881479E-9;
-2,25632782579461E-9;
-2,47892885157665E-9;
-2,20456776970763E-9;
-2,08119574316196E-9;
-2,6278240056843E-9;
-3,66278624552011E-9;
-4,28279120823693E-9;
-3,49796389093017E-9;
-1,0476304783706E-9;
2,26568215883534E-9;
5,00499037892358E-9;
6,02205538210999E-9;
5,17499810229789E-9;
3,32196008788837E-9;
1,64330563469462E-9;
8,06222275471212E-10;
6,32323011567921E-10;
4,53271263216663E-10;
-2,18729671227026E-10;
-1,25937873772877E-9;
-2,10371042539886E-9;
-2,32756075922038E-9;
-2,07932099103069E-9;
-1,97271399099474E-9;
-2,50618744662905E-9;
-3,50566306371511E-9;
-4,11372079192509E-9;
-3,38735298876803E-9;
-1,07251931574936E-9;
2,06942725384738E-9;
4,68200588102357E-9;
5,67200181997155E-9;
4,89490620599237E-9;
3,16360206364696E-9;
1,59012712232569E-9;
8,06019215037215E-10;
6,46126344003344E-10;
4,78333500506159E-10;
-1,55813388135388E-10;
-1,14083146315098E-9;
-1,94531003120682E-9;
-2,16597576350843E-9;
-1,94238656285319E-9;
-1,85362331003387E-9;
-2,36775214708298E-9;
-3,32292269174414E-9;
-3,91234845273328E-9;
-3,24590532803258E-9;
-1,08051653698285E-9;
1,87462096872117E-9;
4,34297905720061E-9;
5,29398403208866E-9;
4,5898806486429E-9;
2,98599801834844E-9;
1,52188083992732E-9;
7,93372590897452E-10;
6,48540813289391E-10;
4,93827602412361E-10;
-1,00531024064455E-10;
-1,02516282720818E-9;
-1,78365785290333E-9;
-2,0000384229798E-9;
-1,80152345051882E-9;
-1,72719626942755E-9;
-2,21837675138454E-9;
-3,12284736061048E-9;
-3,68803748575405E-9;
-3,08346758226229E-9;
-1,07207597084305E-9;
1,68496249055339E-9;
3,99548937486456E-9;
4,90132597707932E-9;
4,26770895874133E-9;
2,79320932566659E-9;
1,44424643048948E-9;
7,73961480251213E-10;
6,42540659702724E-10;
5,00284325362987E-10;
-5,22459982197392E-11;
-9,12802319360882E-10;
-1,62205824122737E-9;
-1,83148264727061E-9;
-1,65539121607624E-9;
-1,59525610439347E-9;
-2,05968915603165E-9;
-2,90971503890093E-9;
-3,44829789414854E-9;
-2,90089289124421E-9;
-1,05040387662209E-9;
1,49856290262888E-9;
3,64724743293376E-9;
4,50266274911666E-9;
3,9377635286333E-9;
2,59211394866492E-9;
1,3576619437446E-9;
7,46284302743057E-10;
6,27854585442815E-10;
4,9917426758204E-10;
-8,17481623999981E-12;
-8,04430782924487E-10;
-1,46440884191354E-9;
-1,66361130656252E-9;
-1,51013911458616E-9;
-1,46325010888923E-9;
-1,89836445515163E-9;
-2,69051725125449E-9;
-3,19702574804508E-9;
-2,70717282743067E-9;
-1,01815291846685E-9;
1,31994698646755E-9;
3,30074922315425E-9;
4,10288409902668E-9;
3,60372186332712E-9;
2,38745342148783E-9;
1,26685218066046E-9;
7,11810275850726E-10;
6,07187242041276E-10;
4,91111157750209E-10;
2,79471151353847E-11;
-7,01588680754638E-10;
-1,30892417276609E-9;
-1,49705669569189E-9;
-1,36525818757615E-9;
-1,33025234642135E-9;
-1,73516168453108E-9;
-2,46699403776619E-9;
-2,94171236586115E-9;
-2,50834617655362E-9;
-9,75798792228178E-10;
1,15313902248272E-9;
2,96283305376406E-9;
3,70805396894631E-9;
3,27219420073647E-9;
2,18070683530146E-9;
1,17225571067472E-9;
6,7350366280274E-10;
5,81244063565425E-10;
4,77955742212677E-10;
5,7240838652909E-11;
-6,05541630959201E-10;
-1,15969409179619E-9;
-1,33701340839004E-9;
-1,22397042448033E-9;
-1,19927674300791E-9;
-1,57343636279809E-9;
-2,24511841727528E-9;
-2,68550761354239E-9;
-2,30432800068659E-9;
-9,28647094759046E-10;
9,93771326119745E-10;
2,63746027961538E-9;
3,32414759033924E-9;
2,94653074602095E-9;
1,97647466172469E-9;
1,07657622807378E-9;
6,31871030981249E-10;
5,51702838655763E-10;
4,60285519892474E-10;
8,17676058026417E-11;
-5,15928316380259E-10;
-1,01773036095187E-9;
-1,18365467953402E-9;
-1,08933940627949E-9;
-1,07290182513684E-9;
-1,41595567304136E-9;
-2,0273083914007E-9;
-2,43204525783524E-9;
-2,10045238287319E-9;
-8,73756367546594E-10;
8,46778291648553E-10;
2,32456703290546E-9;
2,95324640176536E-9;
2,63007255927242E-9;
1,77583371733987E-9;
9,81279880337395E-10;
5,89020200398536E-10;
5,1946368879176E-10;
4,38064046310476E-10;
1,0182572503887E-10;
-4,32105095725489E-10;
-8,84931817058937E-10;
-1,03832140560874E-9;
-9,59622831066262E-10;
-9,51466453309041E-10;
-1,26326389666955E-9;
-1,81420091606295E-9;
-2,18492787485735E-9;
-1,90129086418088E-9;
-8,17411489829222E-10;
7,11334915431427E-10;
2,03086140051982E-9;
2,60099253894142E-9;
2,32902449848896E-9;
1,58344295163663E-9;
8,85913065533771E-10;
5,42703931419529E-10;
4,83959265859772E-10;
4,13880431473728E-10;
1,1685699363523E-10;
-3,57013552266828E-10;
-7,60656252698538E-10;
-9,00210934093791E-10;
-8,3589768103857E-10;
-8,3507521143541E-10;
-1,11718247126212E-9;
-1,61133440084765E-9;
-1,94587732651271E-9;
-1,70504252183448E-9;
-7,58765330169751E-10;
5,86784307965041E-10;
1,75436894631988E-9;
2,26791948830885E-9;
2,04323816451084E-9;
1,39923236594421E-9;
7,94615617476754E-10;
4,97474823654483E-10;
4,48017816567767E-10;
3,88475920850003E-10;
1,27976136129206E-10;
-2,88216623584181E-10;
-6,44250149265115E-10;
-7,72085893260627E-10;
-7,21781970277794E-10;
-7,26811414301217E-10;
-9,78565847090043E-10;
-1,41678677408291E-9;
-1,71918338443252E-9;
-1,51828549797239E-9;
-6,98897087583524E-10;
4,73937668860509E-10;
1,49858353427907E-9;
1,95668727053218E-9;
1,77367195874254E-9;
1,2246175790683E-9;
7,06748601606953E-10;
4,5354690810757E-10;
4,12224662739291E-10;
3,60896570434101E-10;
1,35346020318483E-10;
-2,26326737411321E-10;
-5,37682192559987E-10;
-6,5332963519037E-10;
-6,14962459165789E-10;
-6,23945962832961E-10;
-8,47986444017195E-10;
-1,23411535757101E-9;
-1,50335849346728E-9;
-1,33862301096521E-9;
-6,37439556659793E-10;
3,72578081627279E-10;
1,26128667280673E-9;
1,66755343209749E-9;
1,52244945916156E-9;
1,06059349018443E-9;
6,22141639940848E-10;
4,08861969104217E-10;
3,759762947442E-10;
3,33446888392413E-10;
1,40799876355053E-10;
-1,70939832671031E-10;
-4,41495470684765E-10;
-5,45050949982286E-10;
-5,17184529252021E-10;
-5,29484652544443E-10;
-7,26695977778853E-10;
-1,06426845914578E-9;
-1,30110874305396E-9;
-1,16851614560189E-9;
-5,78117332545383E-10;
2,81951775279681E-10;
1,04415065674288E-9;
1,39981800581792E-9;
1,2890302605291E-9;
9,07811207930136E-10;
5,42706708881391E-10;
3,64803424331527E-10;
3,4001522352063E-10;
3,06329283964801E-10;
1,42966014795297E-10;
-1,22519161060139E-10;
-3,54149797006999E-10;
-4,45411700721102E-10;
-4,27766502033884E-10;
-4,43375309974267E-10;
-6,13641557203593E-10;
-9,05146285773573E-10;
-1,11385920878313E-9;
-1,01103690912585E-9;
-5,19752018854817E-10;
2,03388177186425E-10;
8,48329873567706E-10;
1,15677177743553E-9;
1,07594168655549E-9;
7,66152265269042E-10;
4,68304028749896E-10;
3,23833349785116E-10;
3,0398545116132E-10;
2,76914383549433E-10;
1,41864310870604E-10;
-7,93861421695817E-11;
-2,75312883145711E-10;
-3,56484332128648E-10;
-3,46420801130724E-10;
-3,64096524971692E-10;
-5,11020574721761E-10;
-7,59583816455505E-10;
-9,40191003228512E-10;
-8,6283008603949E-10;
-4,6302837080705E-10;
1,33003261339074E-10;
6,70647356114401E-10;
9,36012265372628E-10;
8,82395048120388E-10;
6,37771059473442E-10;
3,99674187940195E-10;
2,84901606580096E-10;
2,70978200330136E-10;
2,4982332658785E-10;
1,38779196394974E-10;
-4,30437953099133E-11;
-2,05224816074017E-10;
-2,75586632924581E-10;
-2,72670956096878E-10;
-2,92775055372431E-10;
-4,17614389238158E-10;
-6,25496623497409E-10;
-7,81097922750722E-10;
-7,27732991273883E-10;
-4,09184481697581E-10;
7,31606722523035E-11;
5,14296493979993E-10;
7,38664492841249E-10;
7,06997467610141E-10;
5,20925675305768E-10;
3,35512339243118E-10;
2,47369199676927E-10;
2,38651466320015E-10;
2,22550315991619E-10;
1,35241790749969E-10;
-1,09048371327936E-11;
-1,44056461046242E-10;
-2,05690298203493E-10;
-2,08121243898947E-10;
-2,2848887890746E-10;
-3,34393626210378E-10;
-5,05465241636048E-10;
-6,36988866817903E-10;
-6,03576460242491E-10;
-3,56529635041568E-10;
2,15297648273725E-11;
3,73407512229415E-10;
5,62009280354581E-10;
5,49961074280743E-10;
4,14865142022199E-10;
2,77632380017857E-10;
2,13120605472445E-10;
2,08125031514954E-10;
1,97255632549427E-10;
1,30252715984431E-10;
1,47389829432489E-11;
-9,1719297851152E-11;
-1,43402851414307E-10;
-1,5075843951401E-10;
-1,71799689310894E-10;
-2,58420254773072E-10;
-3,96977389762426E-10;
-5,06213189289251E-10;
-4,90170803423735E-10;
-3,09933920730994E-10;
-2,13615758388305E-11;
2,53308845856676E-10;
4,05828615051943E-10;
4,09226538540813E-10;
3,18971868278541E-10;
2,23887464909908E-10;
1,80276821513474E-10;
1,79589881189523E-10;
1,73347719110427E-10;
1,23504872007291E-10;
3,68761436882236E-11;
-4,48505462176911E-11;
-8,84404030912174E-11;
-9,94829630358849E-11;
-1,20636371527908E-10;
-1,91100808312096E-10;
-3,00799406710861E-10;
-3,90768318121694E-10;
-3,88804753912213E-10;
-2,65005963873888E-10;
-5,8625306777432E-11;
1,46167300318337E-10;
2,69843439979638E-10;
2,87455733526872E-10;
2,35673645048636E-10;
1,77108716013115E-10;
1,50455254606337E-10;
1,52203578870461E-10;
1,50450078064067E-10;
1,16171681392975E-10;
5,4971043155328E-11;
-5,82554846159678E-12;
-4,25948741267151E-11;
-5,6052341774316E-11;
-7,70301636048674E-11;
-1,32344755695186E-10;
-2,15220802947334E-10;
-2,87413811456182E-10;
-2,98227469871975E-10;
-2,22832361179392E-10;
-8,66127494194754E-11;
5,58451904128543E-11;
1,52365320463658E-10;
1,81123881924018E-10;
1,62315519834175E-10;
1,35054340225682E-10;
1,23789342408047E-10;
1,28013414595284E-10;
1,28932367264781E-10;
1,0834614995012E-10;
6,9392882033051E-11;
2,75777778951911E-11;
-1,6923782483817E-12;
-1,78236692229131E-11;
-3,9706290649884E-11;
-8,12509519680064E-11;
-1,41025072674737E-10;
-1,9703267701302E-10;
-2,17196080826515E-10;
-1,85506028561917E-10;
-1,09506966805583E-10;
-1,99142117021382E-11;
5,05874552720636E-11;
8,78620133369684E-11;
9,70565549332731E-11;
9,65967477746346E-11;
9,946684574002E-11;
1,05926901839805E-10;
1,08042971305545E-10;
9,92657411542634E-11;
7,98968198995803E-11;
5,38438002154942E-11;
3,0831943858499E-11;
1,3305441471857E-11;
-7,07615199025317E-12;
-3,68340487818933E-11;
-7,66736991929646E-11;
-1,17394824995594E-10;
-1,45970400789582E-10;
-1,50699046051244E-10;
-1,27233335884617E-10;
-8,45109346985493E-11;
-3,44259412204021E-11;
1,10357278860263E-11;
4,31253438830129E-11;
6,34303232287468E-11;
7,63901198173062E-11;
8,50289445926903E-11;
9,06282518526766E-11;
9,18269650000894E-11;
8,72778322153084E-11;
7,55362049727768E-11;
5,81926021982683E-11;
3,95061573918748E-11;
2,06757888738544E-11;
1,37174400255347E-12;
-2,05021734613442E-11;
-4,87843371750908E-11;
-8,44089034225397E-11;
-1,19468184425116E-10;
-1,39920426840289E-10;
-1,36953831098964E-10;
-1,05777962489349E-10;
-5,47752237647547E-11;
-4,82267174817001E-12;
3,4423573388208E-11;
5,77871284243744E-11;
6,63803832480411E-11;
7,33490380214852E-11;
8,34224125063929E-11;
9,26256305168261E-11;
9,33925466739509E-11;
8,07797855922101E-11;
6,04778998709824E-11;
4,27840686442583E-11;
3,30469343147393E-11;
2,50386880873245E-11;
6,96369123029906E-12;
-3,2105751580984E-11;
-9,09526700367403E-11;
-1,48103001805169E-10;
-1,77272556386081E-10;
-1,6271960298363E-10;
-1,09861146549126E-10;
-4,34108967850698E-11;
1,10622323378984E-11;
4,02559835193265E-11;
4,96260487770174E-11;
5,77042077470152E-11;
7,51686350984522E-11;
9,49450041078119E-11;
1,04624991355051E-10;
9,79147517783872E-11;
7,86661568884503E-11;
6,09304537265734E-11;
5,77267457006092E-11;
6,42390211398814E-11;
5,6417176813728E-11;
1,27133290374214E-11;
-6,58930272495898E-11;
-1,52836011760888E-10;
-2,09495859373336E-10;
-2,08887482958657E-10;
-1,54013600820724E-10;
-7,53571286350478E-11;
-9,33354430493662E-12;
2,52171695843382E-11;
3,562126771937E-11;
4,39224346272271E-11;
6,64993637097007E-11;
9,60233381296222E-11;
1,14125714517676E-10;
1,11158769644349E-10;
9,07452857837434E-11;
7,47689026449826E-11;
7,95253233416866E-11;
9,52173223027412E-11;
9,49221785965051E-11;
5,02984290623522E-11;
-4,34186563213611E-11;
-1,54588817995748E-10;
-2,3318129429297E-10;
-2,44125616623563E-10;
-1,88417724223002E-10;
-1,01255959830496E-10;
-2,68285745841363E-11;
1,14419499178496E-11;
2,26916799081993E-11;
3,33735007319028E-11;
5,86243256787532E-11;
9,37919778549484E-11;
1,20084429089415E-10;
1,19894746774104E-10;
1,00106714002608E-10;
8,65992165484245E-11;
9,56239909730737E-11;
1,20051219968482E-10;
1,27241960298611E-10;
8,04898445533153E-11;
-2,45661742034956E-11;
-1,535046637538E-10;
-2,50268351099301E-10;
-2,70850811715592E-10;
-2,14244951648495E-10;
-1,21238421830363E-10;
-4,17395919644214E-11;
2,55077538819637E-13;
1,25413421553724E-11;
2,23161120983912E-11;
5,13168045138915E-11;
9,36114810656746E-11;
1,24171342830282E-10;
1,25701171931997E-10;
1,0632479898427E-10;
9,3784516920857E-11;
1,07715422434376E-10;
1,39439689674603E-10;
1,52813985911231E-10;
1,06228546465747E-10;
-8,05245212178571E-12;
-1,50903296806777E-10;
-2,60325091348274E-10;
-2,88856155093008E-10;
-2,34084675703707E-10;
-1,37440001828853E-10;
-5,2106162621687E-11;
-8,78837997066874E-12;
1,46942674945848E-12;
1,22240201332332E-11;
4,35118403550277E-11;
8,98365527303692E-11;
1,26066035639572E-10;
1,29642181457452E-10;
1,10868449250475E-10;
9,91957883151913E-11;
1,16827775051788E-10;
1,54856407673897E-10;
1,70407856599104E-10;
1,24097631577642E-10;
6,2694141861045E-12;
-1,46017970790047E-10;
-2,63990550432347E-10;
-2,98456451225145E-10;
-2,45521525611798E-10;
-1,4770756430749E-10;
-6,16713101563993E-11;
-1,69395757874763E-11;
-5,86505968923343E-12;
4,93070719337555E-12;
3,76710360220243E-11;
8,57932301640653E-11;
1,24210279848424E-10;
1,29791468121842E-10;
1,11986718419013E-10;
1,02443770387672E-10;
1,22320132875767E-10;
1,63885213647227E-10;
1,84546943671997E-10;
1,38865748428356E-10;
1,85037784809167E-11;
-1,39442565452977E-10;
-2,65290073625672E-10;
-3,0303985559283E-10;
-2,51786738107193E-10;
-1,54859388564046E-10;
-6,77649503250896E-11;
-2,35493627034655E-11;
-1,33028662339611E-11;
-2,50542937217223E-12;
3,16463911641581E-11;
8,1744234386011E-11;
1,2086036562699E-10;
1,27878555330702E-10;
1,12412718130179E-10;
1,04214588880979E-10;
1,25718250623727E-10;
1,69944745479883E-10;
1,9303324397536E-10;
1,48836537003979E-10;
2,76806222493699E-11;
-1,32240522443865E-10;
-2,61092502251455E-10;
-3,0321392674604E-10;
-2,54680949771647E-10;
-1,58669802223443E-10;
-7,22805034141826E-11;
-2,85653283996206E-11;
-1,83939964032598E-11;
-8,57016209807302E-12;
2,55689879602138E-11;
7,70378621215914E-11;
1,17231723027516E-10;
1,26153701293724E-10;
1,109745025608E-10;
1,02718143634743E-10;
1,2555381839509E-10;
1,71310725508058E-10;
1,9735243657796E-10;
1,55723163079568E-10;
3,546299179586E-11;
-1,23881822964001E-10;
-2,53256087437521E-10;
-2,98083221726944E-10;
-2,51974136264744E-10;
-1,58470513873544E-10;
-7,50764127979972E-11;
-3,22041026910991E-11;
-2,24745588799271E-11;
-1,33145853004951E-11;
2,02438001397671E-11;
7,11093841933577E-11;
1,11953978732639E-10;
1,21709298107562E-10;
1,0676692125819E-10;
1,00228221390094E-10;
1,25035996304618E-10;
1,70605445286065E-10;
1,97960245312475E-10;
1,59587044407874E-10;
4,23756303081542E-11;
-1,14650110369128E-10;
-2,43541609965478E-10;
-2,89350130667157E-10;
-2,46770740351306E-10;
-1,57656812129367E-10;
-7,64384510342541E-11;
-3,4850255153495E-11;
-2,6304803472821E-11;
-1,72237184138374E-11;
1,61650416792684E-11;
6,53968294542428E-11;
1,0531739539462E-10;
1,16155389477461E-10;
1,03032350375055E-10;
9,70091422769319E-11;
1,21875102213297E-10;
1,68479169675314E-10;
1,9606744838517E-10;
1,59295730436625E-10;
4,67868452649872E-11;
-1,05398247184034E-10;
-2,3153615472212E-10;
-2,78242845760363E-10;
-2,38857916429822E-10;
-1,52744054337919E-10;
-7,51159566657041E-11;
-3,70886365689849E-11;
-2,8774593112705E-11;
-1,90814526082579E-11;
1,19919990702878E-11;
5,9662575811428E-11;
9,91894818413657E-11;
1,09888115740661E-10;
9,88595356198732E-11;
9,3539045971679E-11;
1,17564479514239E-10;
1,64033418395274E-10;
1,91389582307016E-10;
1,57110499346504E-10;
4,95575449800283E-11;
-9,76857692669184E-11;
-2,19062846826633E-10;
-2,64600407079433E-10;
-2,29252076167303E-10;
-1,48319580702816E-10;
-7,43283314227001E-11;
-3,77665886565294E-11;
-3,0108850850584E-11;
-2,19746524969835E-11;
8,51827787966402E-12;
5,47349799685382E-11;
9,1508283932453E-11;
1,02514214460971E-10;
9,2940160827815E-11;
8,88191413667672E-11;
1,13366761041108E-10;
1,57816921747018E-10;
1,84830448996987E-10;
1,53725311071697E-10;
5,13678221893303E-11;
-8,86095814895069E-11;
-2,04074138868697E-10;
-2,48834765057488E-10;
-2,17312957127313E-10;
-1,42142969973831E-10;
-7,3073238913127E-11;
-3,82249399442428E-11;
-3,11526308742959E-11;
-2,47413536333513E-11;
4,22959129157684E-12;
4,94549523342385E-11;
8,52966734210518E-11;
9,49081217585669E-11;
8,65792048664822E-11;
8,45071727681685E-11;
1,06626437998942E-10;
1,48993898761844E-10;
1,76786560741592E-10;
1,4827529992999E-10;
5,24340072661148E-11;
-7,85913313180897E-11;
-1,8870596818767E-10;
-2,33325455558177E-10;
-2,03842345049854E-10;
-1,33777065157472E-10;
-7,02425849862823E-11;
-3,80631263141159E-11;
-3,17526730698695E-11;
-2,51603891182761E-11;
1,63432192364354E-12;
4,31779726521017E-11;
7,76131642553302E-11;
8,8099597309509E-11;
8,02246041583238E-11;
7,79545880809828E-11;
1,00048052209765E-10;
1,41465455618379E-10;
1,68328613584418E-10;
1,41517377218656E-10;
5,30662251403004E-11;
-6,94663714567608E-11;
-1,74190410884143E-10;
-2,15740820373119E-10;
-1,89596912434943E-10;
-1,25902291868763E-10;
-6,65211453148994E-11;
-3,7430316755466E-11;
-3,18993098068975E-11;
-2,50365186698091E-11;
-7,17055644331781E-13;
3,73389047391132E-11;
7,01964522076349E-11;
8,06585459147582E-11;
7,42156634874836E-11;
7,26696883130445E-11;
9,33852234858445E-11;
1,31711406960106E-10;
1,57404931103523E-10;
1,34826503483105E-10;
5,25469569792484E-11;
-6,1233634232078E-11;
-1,58094742593248E-10;
-1,98936018181256E-10;
-1,75781349567066E-10;
-1,16958278770722E-10;
-6,30101687715377E-11;
-3,65508958568892E-11;
-3,13616217537119E-11;
-2,5488022755107E-11;
-2,98354904721477E-12;
3,26954049010632E-11;
6,34281126542682E-11;
7,38494799506878E-11;
6,71755777612622E-11;
6,57238839060431E-11;
8,66799134364476E-11;
1,22601400419148E-10;
1,46446251615639E-10;
1,260059693556E-10;
5,03309007406175E-11;
-5,40474226438018E-11;
-1,43089494367376E-10;
-1,81055844695303E-10;
-1,60464876237832E-10;
-1,07912769643369E-10;
-5,90537242567298E-11;
-3,40691136302924E-11;
-2,99945413228131E-11;
-2,56386987884712E-11;
-4,2552694590692E-12;
2,89145158603303E-11;
5,61837171751691E-11;
6,49679896762619E-11;
5,99146038918203E-11;
6,00145947489097E-11;
7,87585838374993E-11;
1,12380565273822E-10;
1,35628016825696E-10;
1,16929162995339E-10;
4,93243424012817E-11;
-4,54648483467697E-11;
-1,28260244499712E-10;
-1,63739673306344E-10;
-1,46861329758234E-10;
-1,00011120277782E-10;
-5,53626502363765E-11;
-3,31008911179257E-11;
-2,87515399803909E-11;
-2,49368432037855E-11;
-6,43315439748659E-12;
2,47178498287913E-11;
5,05367487172204E-11;
5,88434233991131E-11;
5,46687664736485E-11;
5,43660313568078E-11;
7,15685228916928E-11;
1,0295367133986E-10;
1,24365047739379E-10;
1,08698168139735E-10;
4,80461920628493E-11;
-3,87104795227902E-11;
-1,14236651340675E-10;
-1,46989066362141E-10;
-1,32194920946292E-10;
-9,02220496727529E-11;
-5,03206927624526E-11;
-3,11989551961055E-11;
-2,77152371665211E-11;
-2,34839613942675E-11;
-7,55742902370192E-12;
2,00772152489573E-11;
4,43632411435175E-11;
5,16523490293744E-11;
4,7780382711383E-11;
4,85570373204605E-11;
6,44476212403424E-11;
9,30586894677828E-11;
1,12993522376891E-10;
9,90607077187077E-11;
4,50907588322853E-11;
-3,24893922792818E-11;
-1,00132472566445E-10;
-1,3000442427628E-10;
-1,18654267271545E-10;
-8,2268867492566E-11;
-4,62843631440125E-11;
-2,88165776423653E-11;
-2,60032801952957E-11;
-2,23031411364478E-11;
-7,78860090420665E-12;
1,65644956165727E-11;
3,77412826151353E-11;
4,57434843779351E-11;
4,33861014925199E-11;
4,32403935773147E-11;
5,80953827199042E-11;
8,38726136195321E-11;
1,01866443183597E-10;
9,0115560707823E-11;
4,20908661313739E-11;
-2,65224869013707E-11;
-8,83727363405642E-11;
-1,15562700449806E-10;
-1,04609384578309E-10;
-7,29129174279245E-11;
-4,1659306367121E-11;
-2,69556214224386E-11;
-2,47757566033312E-11;
-2,13854204226483E-11;
-8,2910263224795E-12;
1,30303350701556E-11;
3,23805243341813E-11;
3,98845005558089E-11;
3,69605496362921E-11;
3,75467513336679E-11;
5,1290791715454E-11;
7,52165910647392E-11;
9,2326877978844E-11;
8,18530033445333E-11;
3,94249554417803E-11;
-2,09848414055819E-11;
-7,53249870203845E-11;
-1,01017572455662E-10;
-9,19561753982119E-11;
-6,34630535186824E-11;
-3,78028682123487E-11;
-2,54220619740244E-11;
-2,28752043577583E-11;
-2,01867299507937E-11;
-8,18629731493934E-12;
1,10313647756659E-11;
2,73055647396962E-11;
3,37412215799679E-11;
3,21950017135428E-11;
3,29813340686642E-11;
4,43407869570461E-11;
6,55018291154905E-11;
8,12631539014048E-11;
7,29430954577556E-11;
3,67622350425164E-11;
-1,69502661070552E-11;
-6,49461749300099E-11;
-8,64258977044196E-11;
-7,97785775598688E-11;
-5,68504358047257E-11;
-3,36995979167016E-11;
-2,18797904482871E-11;
-2,14436537084302E-11;
-1,97655736514044E-11;
-8,64288037182162E-12;
7,71359765525163E-12;
2,26598428447088E-11;
2,86550647800326E-11;
2,75299800319241E-11;
2,84894259337115E-11;
3,88050319388306E-11;
5,80242384874274E-11;
7,16024190484564E-11;
6,53289194144387E-11;
3,39742523050059E-11;
-1,30762271477107E-11;
-5,45738088755497E-11;
-7,41660485110613E-11;
-6,8446456197232E-11;
-4,85655770349357E-11;
-2,97797197535756E-11;
-2,06744202326714E-11;
-1,93218886955251E-11;
-1,7743153007552E-11;
-9,60922113485794E-12;
5,53197544433509E-12;
1,93827128799618E-11;
2,40386132707068E-11;
2,2367691062472E-11;
2,39754733744817E-11;
3,40929448158369E-11;
5,07142962443036E-11;
6,33492004576934E-11;
5,74849927008942E-11;
2,98211609540638E-11;
-9,43151376054007E-12;
-4,44831398320842E-11;
-6,21635929420278E-11;
-5,87613108372576E-11;
-4,23106866402315E-11;
-2,6072553085096E-11;
-1,83498214622416E-11;
-1,76529689481135E-11;
-1,63716089634813E-11;
-9,07559545330363E-12;
3,80254884397056E-12;
1,46426352916367E-11;
1,88684136762341E-11;
1,89160401865606E-11;
1,98718737858236E-11;
2,87160841835308E-11;
4,3107851273313E-11;
5,32799337216216E-11;
4,96734050371337E-11;
2,75658575722542E-11;
-5,30577332461733E-12;
-3,60579399249055E-11;
-5,21644203776962E-11;
-4,83589084716192E-11;
-3,48444342241743E-11;
-2,26954426609049E-11;
-1,6248416888613E-11;
-1,56081701817453E-11;
-1,4806876641395E-11;
-8,49014103501386E-12;
2,46280914534165E-12;
1,14400367384484E-11;
1,48476221521991E-11;
1,54920382216618E-11;
1,726307855717E-11;
2,47986917130425E-11;
3,74715930688239E-11;
4,61110410226965E-11;
4,28265462075766E-11;
2,55745844073776E-11;
-2,20724536715333E-12;
-2,82470972300461E-11;
-4,14324226796388E-11;
-4,07299872892563E-11;
-3,03048706417695E-11;
-1,92636469022403E-11;
-1,43450950980411E-11;
-1,38210530797348E-11;
-1,31574730992876E-11;
-8,13992883163549E-12;
9,40819163291237E-13;
8,79196947673147E-12;
1,16391095948117E-11;
1,2162463722962E-11;
1,42777844068756E-11;
1,97904819525081E-11;
2,9830094975432E-11;
3,8187164949195E-11;
3,59462751143998E-11;
2,19193237225616E-11;
3,34242265371547E-13;
-2,15056684666569E-11;
-3,36491805976067E-11;
-3,23999691103807E-11;
-2,46407872409924E-11;
-1,69990244010813E-11;
-1,21730682855898E-11;
-1,17805165620621E-11;
-1,16845998606558E-11;
-7,59428916327911E-12;
-1,4328006063218E-12;
4,99635695298543E-12;
9,13721505084249E-12;
1,00464782702982E-11;
1,13427120868228E-11;
1,63520399221967E-11;
2,50012987102326E-11;
3,14877478162411E-11;
3,04541033336448E-11;
1,96945493627306E-11;
1,56959675684547E-12;
-1,60125260515766E-11;
-2,59711859286311E-11;
-2,5082227367962E-11;
-1,860375995472E-11;
-1,33571530635728E-11;
-1,07560644824613E-11;
-1,06540572139158E-11;
-9,92806666562288E-12;
-6,98436232090034E-12;
-2,17217847172817E-12;
3,20380285442964E-12;
5,58534087715055E-12;
6,36784712393995E-12;
8,04431761440626E-12;
1,24405052002089E-11;
2,00511621868372E-11;
2,56258072651067E-11;
2,56762705584101E-11;
1,76878718301059E-11;
2,80071257238285E-12;
-1,03406142041967E-11;
-1,73388063344711E-11;
-1,90332550333863E-11;
-1,54798605947409E-11;
-1,08298436663008E-11;
-9,33391342374264E-12;
-9,27103994463852E-12;
-9,03304030723994E-12;
-6,57231822414975E-12;
-2,21280326866663E-12;
1,67945821870091E-12;
4,2403915414009E-12;
4,77600831009506E-12;
6,13464436721414E-12;
9,6794002149661E-12;
1,50776914685816E-11;
2,09760603117997E-11;
2,05991525554806E-11;
1,37655542180804E-11;
4,95788876752528E-12;
-6,07022005274636E-12;
-1,27789874080369E-11;
-1,24589377534604E-11;
-1,12944827599159E-11;
-8,8579357691341E-12;
-7,2391835053868E-12;
-8,20241481318318E-12;
-7,62599055954686E-12;
-5,97311633535242E-12;
-3,0604628690864E-12;
8,05324688391277E-13;
1,480984415374E-12;
1,76257684942361E-12;
3,79570992167217E-12;
6,11914404314899E-12;
1,12574559513013E-11;
1,53355774224488E-11;
1,53104910397361E-11;
1,2256883094614E-11;
5,15899575828016E-12;
-1,74290811042602E-12;
-6,72256858299249E-12;
-8,99671694716435E-12;
-7,73372901386049E-12;
-7,35965102323462E-12;
-6,81675360213755E-12;
-6,01445109661012E-12;
-6,75126243064756E-12;
-5,38299296969003E-12;
-2,5727959680716E-12;
-1,08288664817744E-12;
-4,80400812348328E-13;
5,27874998881288E-13;
2,35357708883939E-12;
4,96318930226432E-12;
8,44755348769318E-12;
1,11999455697382E-11;
1,21592229446957E-11;
1,07263125244756E-11;
6,74222495548536E-12;
1,78906775243947E-12;
-2,22395734059941E-12;
-4,39349374218446E-12;
-4,96306604293828E-12;
-4,69347304129815E-12;
-4,35822057059503E-12;
-5,111504765848E-12;
-5,91475156404879E-12;
-4,55783717338944E-12;
-3,80607684998787E-12;
-2,91503614190856E-12;
-3,94540092302834E-13;
-6,02575729282698E-14;
4,38333786481822E-13;
2,4388540415634E-12;
4,18029239256121E-12;
7,14891085167056E-12;
9,30935041521011E-12;
8,58448376096983E-12;
6,79116136071728E-12;
4,73889974339217E-12;
1,92250791025401E-12;
-7,79386806938473E-13;
-2,67813897161239E-12;
-3,66453317373879E-12;
-4,1120073280409E-12;
-4,78764427521845E-12;
-4,11178873334624E-12;
-4,08937108700892E-12;
-5,01041283867808E-12;
-3,40229136681072E-12;
-2,59605098519248E-12;
-1,7026750162784E-12;
4,17699840526732E-13;
6,61652454268493E-13;
2,38925214035334E-12;
4,60866265915058E-12;
5,61020223230909E-12;
7,48780046619613E-12;
7,50665906896081E-12;
6,19681740938133E-12;
4,99683759449499E-12;
2,46512935055045E-12;
-1,93417170522982E-13;
-2,07549270230271E-12;
-2,49767976624747E-12;
-2,88923731720705E-12;
-4,26302744338491E-12;
-4,58673050026848E-12;
-4,40605000244555E-12;
-3,49075298348335E-12;
-2,72274539795532E-12;
-3,38437853840732E-12;
-2,52408975778815E-12;
-5,08073148821202E-13;
1,57204870138413E-13;
9,51952087570984E-13;
2,98509747078456E-12;
5,37878889889172E-12;
7,3696097127903E-12;
8,06386730711746E-12;
7,83590331434732E-12;
4,89594123789165E-12;
9,99490136123245E-13;
-1,45126331477996E-13;
-1,80479274004423E-12;
-2,56041247806748E-12;
-2,48152724659488E-12;
-4,17112894423544E-12;
-4,90015252839471E-12;
-4,98830634594174E-12;
-4,09046696988693E-12;
-3,03868785708291E-12;
-2,68589451907555E-12;
-1,46988452144704E-12;
-1,22992041050779E-12;
-7,80874803071532E-13;
1,17201494579652E-12;
4,03356400311581E-12;
7,65438506225715E-12;
9,1278042301001E-12;
9,19900304580831E-12;
7,24198640208632E-12;
2,52302142549087E-12;
1,03220441768703E-13;
-8,15436992788293E-13;
-1,95378142164085E-12;
-2,36696254507215E-12;
-3,14388409191713E-12;
-4,23100356667755E-12;
-4,80899232292976E-12;
-4,73365078792287E-12;
-4,28407532602489E-12;
-3,19750919445275E-12;
-2,65031427985268E-12;
-3,05802408964465E-12;
-2,44090021679097E-12;
-8,16710702434995E-13;
2,51731712226783E-12;
8,23249935426717E-12;
1,14477381395557E-11;
1,05642095720693E-11;
9,05735435351929E-12;
5,29312212352802E-12;
5,89811645186945E-13;
-1,78953883396643E-13;
-2,80363144311614E-13;
-1,89898475129744E-12;
-2,53052558552253E-12;
-3,21440541380164E-12;
-4,52955648524788E-12;
-4,68486659505697E-12;
-4,32568386968208E-12;
-4,02279183101789E-12;
-3,2371210052317E-12;
-4,40910649518033E-12;
-5,27133369442617E-12;
-1,90637744857802E-12;
2,51198584520612E-12;
7,51891705284699E-12;
1,13751717251562E-11;
1,15885126012777E-11;
1,00528820268686E-11;
5,57128107516432E-12;
1,34428373696613E-12;
3,69909954303684E-13;
-3,97868849590134E-13;
-1,3957317808137E-12;
-2,28189897374756E-12;
-3,59603680442034E-12;
-5,63997689658874E-12;
-5,99539145833008E-12;
-4,2162630004387E-12;
-3,804596846396E-12;
-4,23030768193983E-12;
-5,06681661434849E-12;
-6,71410805522845E-12;
-4,67297420285694E-12;
1,42485360335409E-12;
7,34650305185752E-12;
1,1981856790822E-11;
1,29134306749336E-11;
1,00273491329394E-11;
6,11581535998933E-12;
2,46347095160197E-12;
4,60793977536638E-13;
-3,81581030459816E-13;
-3,69254422719947E-13;
-1,47362037246434E-12;
-4,1767281600739E-12;
-4,72261215841563E-12;
-4,85273217133272E-12;
-4,99584899775643E-12;
-3,55382029584219E-12;
-4,51770717743731E-12;
-6,5484277024401E-12;
-6,56427000851816E-12;
-4,82499881238266E-12;
9,04509001973532E-13;
8,09992579615123E-12;
1,21396038490283E-11;
1,34305897297888E-11;
1,17305637624241E-11;
6,63212219732763E-12;
2,50374369735716E-12;
1,57959682098729E-12;
9,37398517041552E-13;
1,00274200695034E-14;
-1,67250141711461E-12;
-4,43569814298148E-12;
-5,39248664362517E-12;
-4,69686858654288E-12;
-4,08746839590586E-12;
-3,59836323132523E-12;
