5,72393103195662E-7;
1,22101319360099E-6;
1,45097786920227E-6;
1,23277437029637E-6;
7,77410924517696E-7;
3,68779265617198E-7;
1,66044490649495E-7;
1,24756630502011E-7;
8,28721155631658E-8;
-7,52041327530432E-8;
-3,18836705897649E-7;
-5,13839621247865E-7;
-5,59812735870846E-7;
-4,93544169145439E-7;
-4,61578237053278E-7;
-5,81141314535374E-7;
-8,09914275866438E-7;
-9,44747100441797E-7;
-7,65243572022531E-7;
-2,15472025857516E-7;
5,219409028969E-7;
1,12590215884964E-6;
1,34232776702657E-6;
1,14324857441803E-6;
7,23771846699819E-7;
3,46767748095465E-7;
1,59769664714141E-7;
1,21842869898369E-7;
8,31532416462106E-8;
-6,32483739601207E-8;
-2,89100540069692E-7;
-4,70366987780856E-7;
-5,1416519584676E-7;
-4,54334826394312E-7;
-4,26139394989942E-7;
-5,37850803744832E-7;
-7,50527365367968E-7;
-8,76774121162898E-7;
-7,13122594489924E-7;
-2,07590896374729E-7;
4,71941129963196E-7;
1,02983764533676E-6;
1,23187815453651E-6;
1,05176748074004E-6;
6,68460896911417E-7;
3,23424003296386E-7;
1,52325185810681E-7;
1,17774284398946E-7;
8,23286864306324E-8;
-5,21818392828342E-8;
-2,598970929791E-7;
-4,27065194189205E-7;
-4,68438280617802E-7;
-4,14895919848224E-7;
-3,90294114077889E-7;
-4,93853512943793E-7;
-6,9002898687707E-7;
-8,07317115350918E-7;
-6,593505239557E-7;
-1,98187153005148E-7;
4,23076122175276E-7;
9,34388893481087E-7;
1,12153227540694E-6;
9,59971730601918E-7;
6,12538391916485E-7;
2,99285131402372E-7;
1,43991594706559E-7;
1,12778448544093E-7;
8,05663535921166E-8;
-4,20436461990041E-8;
-2,31580253592306E-7;
-3,84549350455056E-7;
-4,23318178710388E-7;
-3,75838707601239E-7;
-3,54628230289221E-7;
-4,49896224092638E-7;
-6,29461552919721E-7;
-7,37599299965069E-7;
-6,04942939048963E-7;
-1,87613800988643E-7;
3,75895243566951E-7;
8,408551649507E-7;
1,01287533212969E-6;
8,69235875056099E-7;
5,56903471040954E-7;
2,74816080639725E-7;
1,350136573081E-7;
1,0705732066757E-7;
7,80265095260223E-8;
-3,28484946588795E-8;
-2,04433449095303E-7;
-3,43319207718976E-7;
-3,79368374664911E-7;
-3,37669792037375E-7;
-3,1962678735736E-7;
-4,06602864218485E-7;
-5,69697663625637E-7;
-6,68650693692007E-7;
-5,50764697128844E-7;
-1,76183773115116E-7;
3,30833252778874E-7;
7,50296665936714E-7;
9,07215707626994E-7;
7,8070080799902E-7;
5,02301823672767E-7;
2,50406831486718E-7;
1,25610119113256E-7;
1,0079212902046E-7;
7,48514737863738E-8;
-2,45930723499186E-8;
-1,78675651220296E-7;
-3,03774052267017E-7;
-3,37041019417264E-7;
-3,00804191369071E-7;
-2,85690159518984E-7;
-3,64487810192337E-7;
-5,11463774050651E-7;
-6,01326574478376E-7;
-4,97539608376512E-7;
-1,6417802028807E-7;
2,88222787569213E-7;
6,63557031847545E-7;
8,05597784667026E-7;
6,95284436408512E-7;
4,49349281867041E-7;
2,26390599380758E-7;
1,1597099108382E-7;
9,41483220103776E-8;
7,11733988445744E-8;
-1,72628461016812E-8;
-1,54467064339842E-7;
-2,662244405148E-7;
-2,96692281267904E-7;
-2,65563818238505E-7;
-2,53134866936373E-7;
-3,23962132398016E-7;
-4,55341112766242E-7;
-5,36321317495133E-7;
-4,45859402712643E-7;
-1,51836856971425E-7;
2,48300638306915E-7;
5,81282768907435E-7;
7,0884368970565E-7;
6,13716036246031E-7;
3,9853437870288E-7;
2,03037954539335E-7;
1,06261223823906E-7;
8,72701244019437E-8;
6,71157833883891E-8;
-1,08256959727059E-8;
-1,31919952456427E-7;
-2,30900087240879E-7;
-2,58593252417045E-7;
-2,32199200276372E-7;
-2,22207527731145E-7;
-2,85352333478071E-7;
-4,01789668182776E-7;
-4,74180983525398E-7;
-3,96202277291632E-7;
-1,39375192602481E-7;
2,11226994636331E-7;
5,03952684744555E-7;
6,17565933509599E-7;
5,36545782516395E-7;
3,50237273316685E-7;
1,80570470387043E-7;
9,66218338669816E-8;
8,02791281463253E-8;
6,27823059241096E-8;
-5,24329753433391E-9;
-1,11100455573455E-7;
-1,97955473286944E-7;
-2,22932060489253E-7;
-2,00890785919603E-7;
-1,93091743843798E-7;
-2,4890047321085E-7;
-3,51158984792734E-7;
-4,15330182467793E-7;
-3,48940245526239E-7;
-1,26971864791424E-7;
1,77090994645324E-7;
4,31891974614122E-7;
5,3219856453603E-7;
4,64173820122798E-7;
3,04743135517716E-7;
1,59159563477711E-7;
8,71695389296662E-8;
7,32862419306981E-8;
5,8270492570485E-8;
-4,67376503792579E-10;
-9,20395459778123E-8;
-1,67490640037915E-7;
-1,89833995057307E-7;
-1,71760944862439E-7;
-1,65913307056677E-7;
-2,14780388452167E-7;
-3,03700305781144E-7;
-3,60070182600226E-7;
-3,04353082734234E-7;
-1,14782343852648E-7;
1,4592352450259E-7;
3,65294125479033E-7;
4,53019195727091E-7;
3,96866294160538E-7;
2,62248156820817E-7;
1,38936290018627E-7;
7,80023080794955E-8;
6,63823101168353E-8;
5,36637378431135E-8;
3,55269082844541E-9;
-7,4734096955767E-8;
-1,3954950201367E-7;
-1,5936764357775E-7;
-1,4487753728044E-7;
-1,40752621070254E-7;
-1,83104791536705E-7;
-2,59575740026731E-7;
-3,08607794341117E-7;
-2,62637633328796E-7;
-1,0293459542292E-7;
1,17704105180564E-7;
3,04244042375337E-7;
3,8017042208962E-7;
3,34770842348521E-7;
2,22873640812102E-7;
1,19993307028729E-7;
6,91989886227298E-8;
5,96438847583086E-8;
4,90362262229139E-8;
6,87422294825391E-9;
-5,9158787177126E-8;
-1,14130939389761E-7;
-1,31547453551137E-7;
-1,20268029356772E-7;
-1,17643465459188E-7;
-1,53930621975821E-7;
-2,18879436668772E-7;
-2,61061830941378E-7;
-2,23917597634222E-7;
-9,15309177100951E-8;
9,23728018957223E-8;
2,48729297286391E-7;
3,1367841718705E-7;
2,77937451662025E-7;
1,86679465197852E-7;
1,02391089111396E-7;
6,08220846053075E-8;
5,31371874966088E-8;
4,44510633828219E-8;
9,55451979075792E-9;
-4,52611985077473E-8;
-9,11969042618604E-8;
-1,06350379480836E-7;
-9,79174526761487E-8;
-9,65867356491117E-8;
-1,27272861978149E-7;
-1,81634181069582E-7;
-2,17473486744991E-7;
-1,88257334935386E-7;
-8,06546285062522E-8;
6,98330928593442E-8;
1,98657806558849E-7;
2,53475064473127E-7;
2,2633154225969E-7;
1,53668219457973E-7;
8,61617198566338E-8;
5,29167741442272E-8;
4,69101706862378E-8;
3,99608498912305E-8;
1,16541417609541E-8;
-3,29772026063153E-8;
-7,06803508749139E-8;
-8,3714957549155E-8;
-7,77861898133075E-8;
-7,75561411174161E-8;
-1,03106419719397E-7;
-1,47816938252591E-7;
-1,77825750783219E-7;
-1,55667726123327E-7;
-7,03681685966693E-8;
4,99667372240266E-8;
1,53872463294139E-7;
1,99407904735844E-7;
1,79847850879927E-7;
1,237961018709E-7;
7,13144427615883E-8;
4,55189428366113E-8;
4,1003425396439E-8;
3,56111255959915E-8;
1,32317426702085E-8;
-2,22258311540778E-8;
-5,24864510101023E-8;
-6,35559102372258E-8;
-5,98056610051683E-8;
-6,04949804576767E-8;
-8,13733235092068E-8;
-1,17356344940024E-7;
-1,4204617234643E-7;
-1,26113621340263E-7;
-6,07186891729764E-8;
3,26304216582629E-8;
1,14166848194398E-7;
1,51263742232672E-7;
1,3832433849271E-7;
9,69839474691167E-8;
5,78347881713419E-8;
3,86469672533376E-8;
3,54474720808995E-8;
3,14366952807764E-8;
1,43457839981016E-8;
-1,29149976495223E-8;
-3,65055510810761E-8;
-4,57647251778729E-8;
-4,38862420770081E-8;
-4,53321289428495E-8;
-6,19936612342802E-8;
-9,01435804757411E-8;
-1,10018132381133E-7;
-9,95232772585803E-8;
-5,17357153289261E-8;
1,76691414995941E-8;
7,92918569738659E-8;
1,08775821922155E-7;
1,01556151121833E-7;
7,31210218634099E-8;
4,56943145741621E-8;
3,23149455266513E-8;
3,02625745781072E-8;
2,74671764374221E-8;
1,50527173844426E-8;
-4,94897553985845E-9;
-2,26093318916949E-8;
-3,02136766434229E-8;
-2,99246513349984E-8;
-3,19784021088988E-8;
-4,48630364042616E-8;
-6,60416954282038E-8;
-8,15905802615302E-8;
-7,57941594757216E-8;
-4,34358261739415E-8;
4,91559726255277E-9;
4,89649269376742E-8;
7,1638325154882E-8;
6,93000583672447E-8;
5,20700984013251E-8;
3,4849255120093E-8;
2,65233145703487E-8;
2,54614749302595E-8;
2,37252892838635E-8;
1,54052948658382E-8;
1,7730312320256E-9;
-1,0662089600777E-8;
-1,67651411593161E-8;
-1,78046861975136E-8;
-2,03316653839197E-8;
-2,98626177343906E-8;
-4,48935704750514E-8;
-5,65889062536037E-8;
-5,48022726578605E-8;
-3,58267217837114E-8;
-5,80157840272755E-9;
2,28915636387123E-8;
3,95197703624732E-8;
4,12886300402499E-8;
3,36792851890625E-8;
2,52444256904306E-8;
2,12677997614947E-8;
2,10487846261054E-8;
2,02248274612307E-8;
1,54563914536727E-8;
7,35622942641773E-9;
-5,19852025933237E-10;
-5,2731718866219E-9;
-7,40447720647626E-9;
-1,02839795444732E-8;
-1,68639814957259E-8;
-2,6522262117765E-8;
-3,48130932983399E-8;
-3,6403224784336E-8;
-2,89014275960145E-8;
-1,46571953142176E-8;
7,53999319780776E-10;
1,20692129759549E-8;
1,723606988747E-8;
1,77800894273259E-8;
1,68174218573515E-8;
1,65358249845664E-8;
1,70254537713183E-8;
1,69760719299325E-8;
1,52499570364577E-8;
1,19027096938259E-8;
7,96228856344472E-9;
4,41545079481857E-9;
1,40801529355463E-9;
-1,72110556264362E-9;
-5,72855961158367E-9;
-1,07424171344943E-8;
-1,60569870197951E-8;
-2,04422355644398E-8;
-2,26504409370102E-8;
-2,1826558275671E-8;
-1,77662584649328E-8;
-1,10773497883939E-8;
-3,15432885161196E-9;
4,19707539396614E-9;
9,49712602839683E-9;
1,23103649753063E-8;
1,33844689488201E-8;
1,39850523471093E-8;
1,48328066361165E-8;
1,55150170264371E-8;
1,49315465441837E-8;
1,2452881956239E-8;
8,76107704021855E-9;
5,47426175998391E-9;
3,68550780055805E-9;
2,63954439357282E-9;
-9,58434233749555E-11;
-6,74909100739815E-9;
-1,7052466011412E-8;
-2,7478722573725E-8;
-3,29896789185833E-8;
-3,02829294809561E-8;
-2,01807606327464E-8;
-7,24902361163986E-9;
3,2108283283821E-9;
8,57082226944401E-9;
1,01182027556161E-8;
1,12544875163381E-8;
1,42449477274316E-8;
1,82939866188118E-8;
2,05345243153594E-8;
1,89905036423866E-8;
1,4785399701734E-8;
1,14207442966237E-8;
1,15214372136594E-8;
1,38225127162256E-8;
1,32942149737573E-8;
4,84489880864347E-9;
-1,20813654879002E-8;
-3,17782225114059E-8;
-4,52328286922697E-8;
-4,59157179226835E-8;
-3,41492648318195E-8;
-1,67402309547019E-8;
-2,11823842250356E-9;
5,29348685662044E-9;
7,21279471220944E-9;
8,77862877228023E-9;
1,35206604439196E-8;
2,03336666638857E-8;
2,49112566374162E-8;
2,41782989629517E-8;
1,96106729759268E-8;
1,62360899892395E-8;
1,79227572182867E-8;
2,29986227521305E-8;
2,43352310748099E-8;
1,45133509730917E-8;
-7,70861184809E-9;
-3,48851013113144E-8;
-5,48047543364014E-8;
-5,83258611526438E-8;
-4,53501102152541E-8;
-2,4458318170821E-8;
-6,56967732906234E-9;
2,4498639263866E-9;
4,65200396898697E-9;
6,55668659078645E-9;
1,26973239987778E-8;
2,17268062160273E-8;
2,81989470452089E-8;
2,81615909966816E-8;
2,33618359937284E-8;
2,00317091899766E-8;
2,30284964522522E-8;
3,03627110917956E-8;
3,32503000949071E-8;
2,2429783405589E-8;
-3,90127342153308E-9;
-3,69487814254455E-8;
-6,20018998362639E-8;
-6,78628727095541E-8;
-5,40751274311872E-8;
-3,0577565802064E-8;
-1,02190173167493E-8;
1,06761221661344E-11;
2,41650750952616E-9;
4,57664630249529E-9;
1,18006367794236E-8;
2,2559316644881E-8;
3,05273391360111E-8;
3,10784933271671E-8;
2,61598410574645E-8;
2,29210597352582E-8;
2,69776515266425E-8;
3,61032216696902E-8;
4,02567847135182E-8;
2,87636183364239E-8;
-6,23999364258726E-10;
-3,81107328984447E-8;
-6,7107965679828E-8;
-7,48552675743538E-8;
-6,05986787967915E-8;
-3,52698212097378E-8;
-1,31437279971132E-8;
-2,04909090743099E-9;
4,8998668217265E-10;
2,82999932466978E-9;
1,08572058486688E-8;
2,29095964669639E-8;
3,20195597106503E-8;
3,30611362003741E-8;
2,81180450353909E-8;
2,50079332802585E-8;
2,98998671448012E-8;
4,04002208677436E-8;
4,55608846147393E-8;
3,36783343655339E-8;
2,1610947858568E-9;
-3,85025592337633E-8;
-7,03905442752405E-8;
-7,96165210858903E-8;
-6,51852086172735E-8;
-3,86987978818889E-8;
-1,54189950369761E-8;
-3,76427247450923E-9;
-1,15231482858646E-9;
1,30556146945868E-9;
9,89049562839772E-9;
2,28534279274871E-8;
3,27911156719951E-8;
3,42312260927907E-8;
2,93450944881593E-8;
2,63928513836842E-8;
3,19174447954858E-8;
4,34254378619268E-8;
4,93624873060385E-8;
3,7332434517719E-8;
4,4923512516333E-9;
-3,82456210479027E-8;
-7,20996126978274E-8;
-8,24410293807207E-8;
-6,80847278470947E-8;
-4,10199052385637E-8;
-1,71150281924577E-8;
-5,16327327225651E-9;
-2,52832240451541E-9;
-7,74806533569601E-12;
8,91788201696458E-9;
2,24567779629042E-8;
3,29489601260479E-8;
3,47082685455733E-8;
2,99440993658902E-8;
2,71708595251863E-8;
3,31511429868563E-8;
4,53408709556687E-8;
5,18499885359096E-8;
3,98776517643146E-8;
6,40737326364324E-9;
-3,74507176967236E-8;
-7,24693836228832E-8;
-8,36047122585379E-8;
-6,95276492589926E-8;
-4,23785356569265E-8;
-1,83016084526357E-8;
-6,27617162790167E-9;
-3,66149011844142E-9;
-1,12702906135284E-9;
7,95730468902665E-9;
2,17857851445966E-8;
3,25911391654189E-8;
3,45953696822734E-8;
3,00071578479262E-8;
2,74288333311147E-8;
3,37080230369193E-8;
4,6298727619912E-8;
5,32003078705927E-8;
4,14544423091286E-8;
7,94358412155843E-9;
-3,62187877736045E-8;
-7,1711944059494E-8;
-8,33608550948725E-8;
-6,97303640233766E-8;
-4,29108692971431E-8;
-1,90424191312356E-8;
-7,13116180838597E-9;
-4,57372331635581E-9;
-2,0648568571926E-9;
7,01965861569837E-9;
2,08924075219667E-8;
3,18085443829266E-8;
3,39919005394686E-8;
2,9621789071729E-8;
2,72468950148533E-8;
3,36891054081465E-8;
4,6440515429777E-8;
5,35765750857716E-8;
4,21965303524572E-8;
9,14063428811013E-9;
-3,4642083620537E-8;
-7,00257186856464E-8;
-8,19437450901625E-8;
-6,88938235382525E-8;
-4,27431397287865E-8;
-1,93982656788404E-8;
-7,75805181180879E-9;
-5,2853364548228E-9;
-2,83446767241404E-9;
6,11908490594813E-9;
1,98291502306986E-8;
3,0682108442686E-8;
3,29882514503652E-8;
2,88665221124291E-8;
2,66993977166945E-8;
3,31909180836839E-8;
4,58958056009125E-8;
5,31301831247747E-8;
4,22277748954078E-8;
1,00317963874475E-8;
-3,28000058734872E-8;
-6,75844957669658E-8;
-7,95641307195425E-8;
-6,71955070709729E-8;
-4,19909780487828E-8;
-1,94267720514987E-8;
-8,18278872279872E-9;
-5,81970757988925E-9;
-3,45276326801307E-9;
5,2623543434235E-9;
1,86384436241777E-8;
2,92853524964992E-8;
3,16633454254138E-8;
2,78117740917351E-8;
2,58544866069433E-8;
3,22969189635793E-8;
4,47840329379236E-8;
5,20013493120112E-8;
4,16597111233737E-8;
1,0652263581898E-8;
-3,07646970407768E-8;
-6,45502715884077E-8;
-7,64160686054062E-8;
-6,48037705754543E-8;
-4,07583893292117E-8;
-1,91772327175489E-8;
-8,43146516938911E-9;
-6,19406089603175E-9;
-3,93291510167502E-9;
4,45600227672288E-9;
1,73617785880193E-8;
2,76834502747745E-8;
3,00891997313701E-8;
2,65229737465773E-8;
2,47718240411951E-8;
3,10820193755445E-8;
4,32113971783679E-8;
5,03159250635337E-8;
4,05976814586555E-8;
1,1036704600535E-8;
-2,85987814798702E-8;
-6,1063839927043E-8;
-7,26667133739375E-8;
-6,18627849610203E-8;
-3,91431303990841E-8;
-1,86993791705904E-8;
-8,52626098513978E-9;
-6,42834761267459E-9;
-4,28958804743962E-9;
3,70556490668059E-9;
1,60314413832143E-8;
2,59328241298401E-8;
2,83302314260359E-8;
2,50565336554246E-8;
2,35049852756746E-8;
2,96174922146485E-8;
4,12757450561214E-8;
4,81881263282983E-8;
3,91363148224636E-8;
1,12130188023982E-8;
-2,6357869853373E-8;
-5,72513185936514E-8;
-6,84733913114138E-8;
-5,85060164154548E-8;
-3,7227747378166E-8;
-1,80351571854922E-8;
-8,4910088593523E-9;
-6,54096942860931E-9;
-4,53495644005204E-9;
3,01357563123571E-9;
1,46760728866236E-8;
2,4084985046756E-8;
2,64421546942764E-8;
2,34641463784536E-8;
2,21053255772176E-8;
2,79654990451601E-8;
3,90634458302416E-8;
4,57168903589481E-8;
3,73581492372916E-8;
1,12142602009275E-8;
-2,40860867880566E-8;
-5,32205547898642E-8;
-6,39662570170993E-8;
-5,48492505029511E-8;
-3,50898488667389E-8;
-1,72243931151305E-8;
-8,34558229069263E-9;
-6,54961509173127E-9;
-4,68540243986403E-9;
2,38156323502981E-9;
1,33211959463531E-8;
2,21826334940542E-8;
2,44745142276709E-8;
2,17885262428431E-8;
2,06118720407559E-8;
2,61780214254318E-8;
3,66499895948493E-8;
4,29954195718284E-8;
3,53405031904722E-8;
1,10646516055737E-8;
-2,18258453791155E-8;
-4,90682779803515E-8;
-5,92635536359189E-8;
-5,09955233018754E-8;
-3,27953820220922E-8;
-1,63012209389125E-8;
-8,10894260958942E-9;
-6,4673506684268E-9;
-4,7497391869741E-9;
1,8118679140497E-9;
1,19877777963187E-8;
2,02629737981741E-8;
2,24691710112805E-8;
2,00664983989237E-8;
1,90613831364E-8;
2,4305159049491E-8;
3,41036921282264E-8;
4,01017698709575E-8;
3,31487086365053E-8;
1,0790679787622E-8;
-1,96062572439674E-8;
-4,48759116799237E-8;
-5,44647303660954E-8;
-4,70291070684072E-8;
-3,04019527444518E-8;
-1,52962412668271E-8;
-7,80002802995427E-9;
-6,3120035741383E-9;
-4,7416356188556E-9;
1,30037987749411E-9;
1,069121749585E-8;
1,8358160799934E-8;
2,04613427422283E-8;
1,83328959491035E-8;
1,74877953239141E-8;
2,23860402039131E-8;
3,14817212882845E-8;
3,71054539409762E-8;
3,08420570381107E-8;
1,04130871899226E-8;
-1,74565924519796E-8;
-4,07093115263477E-8;
-4,96564600527371E-8;
-4,30293970168646E-8;
-2,7961410267909E-8;
-1,42375266923797E-8;
-7,43128255350538E-9;
-6,09503304008626E-9;
-4,67128213511462E-9;
8,49260063915673E-10;
9,44631904560004E-9;
1,64934734520806E-8;
1,84808047249408E-8;
1,66142048545955E-8;
1,59158556734593E-8;
2,04553194145984E-8;
2,88327153638878E-8;
3,40639884936326E-8;
2,84728079243023E-8;
9,95432635545847E-9;
-1,53976103654596E-8;
-3,66261955678959E-8;
-4,49099239923202E-8;
-3,90576294373533E-8;
-2,55135638937179E-8;
-1,31481198571487E-8;
-7,02037061545323E-9;
-5,82909407924911E-9;
-4,55024098019415E-9;
4,53386720784376E-10;
8,26379704682967E-9;
1,46902390859025E-8;
1,65532485646868E-8;
1,49330829874246E-8;
1,43694691214393E-8;
1,85452880114511E-8;
2,61999207325386E-8;
3,10287851042539E-8;
2,60829746217827E-8;
9,43330868050052E-9;
-1,34445611274509E-8;
-3,26749457086532E-8;
-4,02847085051215E-8;
-3,51661402285921E-8;
-2,30973740844088E-8;
-1,20487909093638E-8;
-6,57645111271209E-9;
-5,52721319861487E-9;
-4,38653873220094E-9;
1,13350436888208E-10;
7,1495913171487E-9;
1,29653618323157E-8;
1,46972643100448E-8;
1,33078596498938E-8;
1,28653192826312E-8;
1,66757187834147E-8;
2,36192266013904E-8;
2,80424243428321E-8;
2,37089598839477E-8;
8,86602867243692E-9;
-1,16108825651853E-8;
-2,88900670165082E-8;
-3,58264819867907E-8;
-3,14004857615721E-8;
-2,0741584921912E-8;
-1,09538142175971E-8;
-6,11226271589476E-9;
-5,19580002081997E-9;
-4,18805137459773E-9;
-1,78325116426372E-10;
6,11036660453551E-9;
1,13310435767324E-8;
1,29288892623841E-8;
1,17537421328892E-8;
1,1419386907704E-8;
1,48695991646327E-8;
2,11171638273987E-8;
2,5139129198851E-8;
2,13815782565284E-8;
8,26670280285678E-9;
-9,9024144802616E-9;
-2,53002032875134E-8;
-3,15746657163144E-8;
-2,77920585342287E-8;
-1,84688499549227E-8;
-9,88108189868182E-9;
-5,63626762500494E-9;
-4,84508338482863E-9;
-3,96524362918345E-9;
-4,21084195907302E-10;
5,15108315636132E-9;
9,79641235007656E-9;
1,12589385170951E-8;
1,02805501280688E-8;
1,00425852620942E-8;
1,31436127441124E-8;
1,87185042881249E-8;
2,23463945969328E-8;
1,91275052373782E-8;
7,64785328502748E-9;
-8,32764252248797E-9;
-2,19266995405105E-8;
-2,75568308762969E-8;
-2,43692620843337E-8;
-1,62997457003607E-8;
-8,84024564379362E-9;
-5,1581165629134E-9;
-4,48359037135058E-9;
-3,72133629567571E-9;
-6,19815325328206E-10;
4,26975041643428E-9;
8,36806374006634E-9;
9,69795437130207E-9;
8,8984617019388E-9;
8,74419200221299E-9;
1,15073778223989E-8;
1,64394788453878E-8;
1,96862990362708E-8;
1,69643970008314E-8;
7,02142671607672E-9;
-6,8849237903689E-9;
-1,87841675550424E-8;
-2,37945015322358E-8;
-2,11500204313741E-8;
-1,42472432752E-8;
-7,84056130191505E-9;
-4,68318199928028E-9;
-4,11717151677514E-9;
-3,46588468518568E-9;
-7,7995153091127E-10;
3,46950373906613E-9;
7,05074436461512E-9;
8,24890940914111E-9;
7,61094202041569E-9;
7,5297759542267E-9;
9,97057738166398E-9;
1,42939621233453E-8;
1,71756387632236E-8;
1,49103891305753E-8;
6,39822646893926E-9;
-5,57631922029603E-9;
-1,58796820279872E-8;
-2,02984874536008E-8;
-1,81498262297937E-8;
-1,23239127898892E-8;
-6,89198198974807E-9;
-4,21848223749127E-9;
-3,74887037155599E-9;
-3,20175871817741E-9;
-9,02625937357738E-10;
2,74966052063198E-9;
5,84529047913188E-9;
6,91629916414879E-9;
6,42250387187137E-9;
6,40403147720407E-9;
8,54005882209756E-9;
1,22919808277206E-8;
1,48257034682298E-8;
1,29753692777638E-8;
5,78452351329759E-9;
-4,39973460935185E-9;
-1,32163945938389E-8;
-1,70771629582577E-8;
-1,53749792025421E-8;
-1,05345043064675E-8;
-5,99761428486989E-9;
-3,76765698669212E-9;
-3,38838207341959E-9;
-2,93493451819984E-9;
-9,92028440816667E-10;
2,10482263205406E-9;
4,75038001488564E-9;
5,69999783530985E-9;
5,33373776265467E-9;
5,36855105071882E-9;
7,21834269416636E-9;
1,0436507403345E-8;
1,26436575971202E-8;
1,11680555308459E-8;
5,18611127404899E-9;
-3,35131706102854E-9;
-1,07973098047057E-8;
-1,41335105615994E-8;
-1,28275934437684E-8;
-8,88353595298649E-9;
-5,16074491224641E-9;
-3,3357926740865E-9;
-3,03762127495065E-9;
-2,66927842492961E-9;
-1,05409543289464E-9;
1,5359765058333E-9;
3,76584598321225E-9;
4,59874981660232E-9;
4,34550819806151E-9;
4,4229503780014E-9;
6,00716953236351E-9;
8,73348914378406E-9;
1,06334481676316E-8;
9,49337931158055E-9;
4,61168609086423E-9;
-2,42401392839315E-9;
-8,61433948907404E-9;
-1,14652649023599E-8;
-1,05105046541184E-8;
-7,37090595394799E-9;
-4,38498540892916E-9;
-2,9252663704542E-9;
-2,69884196837655E-9;
-2,40796791580682E-9;
-1,08850269953162E-9;
1,03691788541844E-9;
2,8851561012682E-9;
3,61044701938427E-9;
3,4535784804899E-9;
3,56608415396342E-9;
4,90577233628426E-9;
7,1795505307337E-9;
8,79645899875702E-9;
7,95388402379688E-9;
4,06367065910757E-9;
-1,61279082577181E-9;
-6,66382892342193E-9;
-9,06436375790249E-9;
-8,41684071183259E-9;
-5,99958945802285E-9;
-3,67196977996134E-9;
-2,5387256723744E-9;
-2,37583789297803E-9;
-2,15362114332474E-9;
-1,10392568449034E-9;
6,03562163216932E-10;
2,10761143515726E-9;
2,73023107049793E-9;
2,6582218562701E-9;
2,79854894987678E-9;
3,91101993411013E-9;
5,77372606811792E-9;
7,13048644908136E-9;
6,54844339112249E-9;
3,54419916512596E-9;
-9,11968986014681E-10;
-4,93362620553187E-9;
-6,92312487595901E-9;
-6,54318655854181E-9;
-4,76346203442385E-9;
-3,02061154117278E-9;
-2,1781301981597E-9;
-2,07083741386301E-9;
-1,90826297548933E-9;
-1,09833325233164E-9;
2,33695639412881E-10;
1,42635221421015E-9;
1,95411841816084E-9;
1,95387183737835E-9;
2,1149515674401E-9;
3,02221438043653E-9;
4,51390889932677E-9;
5,63282703822079E-9;
5,27703734973207E-9;
3,05760899175199E-9;
-3,11830025770092E-10;
-3,41386784195989E-9;
-5,03109255676934E-9;
-4,87964896342973E-9;
-3,65901363429186E-9;
-2,43138549038376E-9;
-1,84354944646908E-9;
-1,78472389335827E-9;
-1,67522136003091E-9;
-1,07684922142084E-9;
-7,87952822919072E-11;
8,35504011156497E-10;
1,27632185673267E-9;
1,33513885929631E-9;
1,51034623768866E-9;
2,23360838209414E-9;
3,39332714712636E-9;
4,29549854903645E-9;
4,1347319639229E-9;
2,6042103248561E-9;
1,91792381440485E-10;
-2,09448912007283E-9;
-3,37448407891433E-9;
-3,41542195706393E-9;
-2,68042561235928E-9;
-1,90146208320918E-9;
-1,53490826968382E-9;
-1,51720002225417E-9;
-1,45400938085897E-9;
-1,04280176805136E-9;
-3,38895167746789E-10;
3,29800183313497E-10;
6,90224046143833E-10;
7,9724578738372E-10;
9,84117681669807E-10;
1,54131471959199E-9;
2,40382081135284E-9;
3,11344558352178E-9;
3,11734698883595E-9;
2,18544028339891E-9;
6,12479071733764E-10;
-9,58484668336676E-10;
-1,93877499633386E-9;
-2,13960481253154E-9;
-1,82180988936754E-9;
-1,4293871697071E-9;
-1,25392604931744E-9;
-1,27082493796454E-9;
-1,24701107004389E-9;
-9,98711915115885E-10;
-5,51147634507449E-10;
-9,79936401326162E-11;
1,90633462127004E-10;
3,36287917088168E-10;
5,28046830970689E-10;
9,38495712702356E-10;
1,54096686639902E-9;
2,07754732266199E-9;
2,21893841334301E-9;
1,80219202693576E-9;
9,52645984506591E-10;
3,32296601338085E-12;
-7,09860881947781E-10;
-1,04113985820041E-9;
-1,07630185474132E-9;
-1,01239828326007E-9;
-9,99415690075973E-10;
-1,04514947452399E-9;
-1,05481756346183E-9;
-9,46056235869452E-10;
-7,19503932440182E-10;
-4,54174801436846E-10;
-2,30077156263422E-10;
-5,45124587015418E-11;
1,37855273429974E-10;
4,19964223107127E-10;
7,95440586515627E-10;
1,17820948929638E-9;
1,43306268340108E-9;
1,4531598334481E-9;
0,00933343526798051;
0,0226297306336616;
0,0163727376051645;
0,00943309607132496;
0,0121693913507624;
0,0070261666833312;
0,00563481635933239;
0,00458270921328469;
0,000840499211957932;
0,0010323914848421;
-0,00119044034463877;
-0,00199195340328983;
-0,00280713751517935;
-0,00455368170067639;
-0,00488732518987553;
-0,00585590073096852;
-0,00594121711376897;
-0,00618248791343553;
-0,00699357591459769;
-0,00792070240794912;
-0,00934888656536564;
-0,0102428872414079;
-0,0105184981998182;
-0,0101085224648026;
-0,00920766455853525;
-0,00843029713448225;
-0,00783043473664371;
-0,00745747215232619;
-0,0070480539946308;
-0,00641867789268874;
-0,00567545457703859;
-0,00495848824975214;
-0,00445308227605833;
-0,0040907680596457;
-0,00366382633109285;
-0,00302656782785636;
-0,00222823292130131;
-0,00157282931778807;
-0,00136107628792684;
-0,00166524471619545;
-0,002225723841847;
-0,00258705977183628;
-0,0024067604209667;
-0,00165718339004849;
-0,000624733453180242;
0,000316669634194181;
0,000963663134490575;
0,0013758683790629;
0,00176513117942168;
0,00227846117332084;
0,00287371082695247;
0,0033782078956911;
0,00366494118888573;
0,00378442472934601;
0,00392474695327194;
0,00423344736893035;
0,00465410232727996;
0,00492912869790742;
0,00478539579655496;
0,0041620565164803;
0,00329839579766236;
0,00260120735236038;
0,0023840492225718;
0,00267133631981746;
0,00320917156442283;
0,00366539572238226;
0,00385876803622141;
0,00384594430502158;
0,0038173045872339;
0,00390618818277335;
0,00407638825804805;
0,00417461866778236;
0,0040891469057876;
0,00386593748198813;
0,00367394991583789;
0,00364551841849423;
0,00373088258055216;
0,00370125502671067;
0,00331394821220617;
0,00251555522873675;
0,00151956611504512;
0,000688091509385029;
0,000299924406018553;
0,000376498594713538;
0,000692036242515982;
0,000951432735267325;
0,000993755175252366;
0,000869183276044804;
0,000746304331797739;
0,000742935212160859;
0,00082653485196085;
0,000860913500247553;
0,000746774072290812;
0,000524375593364756;
0,00034264082190006;
0,000317917675387064;
0,000405551035671503;
0,000402858817061078;
9,51186073300256E-5;
-0,000565180750547533;
-0,0107236147229447;
-0,024691000835846;
-0,0187063512664808;
-0,0116223567233991;
-0,0139972372704075;
-0,00853592239064854;
-0,007011921251976;
-0,00596902296294702;
-0,00223034010944736;
-0,00231727235204422;
8,9765070972757E-5;
0,00103463465968487;
0,00186474144907205;
0,00353260135735545;
0,00382392555339794;
0,00488786199606751;
0,00516656085863599;
0,00552145433667536;
0,00617835147400806;
0,00664177268620088;
0,00746065050395589;
0,00787759906415119;
0,00802158969939231;
0,00784053291964532;
0,00735462612614731;
0,00695105656188256;
0,00655991802271238;
0,0062684317390935;
0,00594145063762827;
0,00548465762996303;
0,00497854971110733;
0,00445879512905645;
0,00403463531273166;
0,0036678323454358;
0,00326335313204184;
0,00276323355561418;
0,002182268008928;
0,00167054789443726;
0,00136622278783118;
0,00130576053441305;
0,00137147299515191;
0,00134804662773803;
0,00107699431116655;
0,000543586741712889;
-0,000116332740111175;
-0,000724582437604665;
-0,00118434684148956;
-0,00152244928587162;
-0,00184024517789127;
-0,0022079450271115;
-0,00260531918541892;
-0,00294924299892549;
-0,003177770156311;
-0,00331523530028376;
-0,00345292350071245;
-0,00366309371121824;
-0,00391872394526665;
-0,00409378061108768;
-0,00405387526456737;
-0,00376838352028457;
-0,00335501877514936;
-0,00301538208022595;
-0,00290602471712819;
-0,0030404034262471;
-0,00329290779447751;
-0,00349792598097631;
-0,00356466098513494;
-0,0035216490675269;
-0,00346521639516798;
-0,00346340043839699;
-0,00349853095185534;
-0,00349315222218714;
-0,00339050189025899;
-0,00321419659362252;
-0,00305115782557041;
-0,00297002269638906;
-0,00294586945001195;
-0,00286092689039111;
-0,00258939673912215;
-0,00210309187009948;
-0,00151283452836503;
-0,00100787746599114;
-0,000734992598017212;
-0,000706567769279914;
-0,000804730384897565;
-0,000874201881948034;
-0,000829829671377493;
-0,000698122604972478;
-0,000568858886065195;
-0,000505247200830582;
-0,00049030836436147;
-0,000451226408839732;
-0,000334550227139144;
-0,000161840640452337;
-1,36455083094041E-5;
4,66529292341317E-5;
4,29395302168211E-5;
8,55671375103629E-5;
0,000292249115337447;
0,000689730071281024;
0,00117541464043734;
0,00157389182182408;
0,00174943292205285;
0,00169132050131301;
0,00150982795434752;
0,00134983310337199;
0,00129097319425695;
0,00130920978084659;
0,00132185076213429;
0,00127090345990582;
0,00117271370236686;
0,00109530230819741;
0,0010886699384356;
0,00113332790646423;
0,00115522265037324;
0,00109622923413359;
0,000978920444948436;
0,000905709944280829;
0,000985675587295271;
0,00124377263425932;
0,0015855444572278;
0,00184943485884465;
0,00191061807510854;
0,0017595981457238;
0,00149834331365508;
0,00126056874699226;
0,0011197719851227;
0,00105394621894885;
0,00098712832416067;
0,000866119083762292;
0,000706077894100705;
0,000569604890874519;
0,000502665393631853;
0,000487361816152415;
0,000455720147336258;
0,000354428075643459;
0,0002042083866332;
9,89316056381392E-5;
0,000138465094739606;
0,000345511440177796;
0,000633404952880894;
0,000854138331808389;
0,000893436253239507;
0,000742590247523849;
0,000494785357671645;
0,000272122492411578;
0,00014158009765041;
8,2869790370315E-5;
2,64724438258006E-5;
-7,63035542655456E-5;
-0,000211769977513377;
-0,000323010112405992;
-0,000368323027924125;
-0,000364220437161664;
-0,000372794568571814;
-0,000442734364005513;
-0,000555325047168786;
-0,000625345012192091;
-0,000562200463729564;
-0,000345504056032655;
-5,42345918419604E-5;
0,000177003506028821;
0,000244348486172445;
0,000139818111053638;
-5,2145151266212E-5;
-0,000220952415102006;
-0,000306057800851775;
-0,000326011398097613;
-0,000343916625337333;
-0,000403962891861141;
-0,000493856833363176;
-0,000562216500494477;
-0,00057145685055188;
-0,000536625204493304;
-0,000513920724856061;
-0,000547381423632519;
-0,000620160931921735;
-0,000655418275001812;
-0,000571531836362262;
-0,00035023991167496;
-6,2835246986591E-5;
0,000169351361979371;
0,000252782574426662;
0,00018030499605752;
2,79307990842245E-5;
-0,000104872285841985;
-0,000163699537350943;
-0,000165257467019065;
-0,000166247957918443;
-0,000206336848300079;
-0,000274461999869484;
-0,000324503732515103;
-0,000322752388081366;
-0,000282700380963706;
-0,0002546936656578;
-0,000278137223617613;
-0,000337892597691392;
-0,00036514685207046;
-0,000286871266163265;
-8,6751864341415E-5;
0,000171473713710721;
0,0003794224976775;
0,000453625860009678;
0,000387795175953609;
0,000249851084950195;
0,000128577058764464;
7,25123679195262E-5;
6,67935963077192E-5;
6,09500071911848E-5;
1,97224128732768E-5;
-4,69762053746534E-5;
-9,80601595646247E-5;
-0,000103516556005437;
-7,53104871692793E-5;
-5,81349350492379E-5;
-8,69270067121702E-5;
-0,000148181183390756;
-0,000180786423247882;
-0,000119951078048038;
4,87821354626E-5;
0,000268926575989004;
0,00044450358342731;
0,000501672026180721;
0,000434945719365539;
0,00030447568623458;
0,000188803774428632;
0,000130843225470219;
0,000117472556583786;
0,000104148046628042;
5,97870911905739E-5;
-6,8268378103906E-6;
-5,94412140951972E-5;
-7,15972974811408E-5;
-5,38353621524363E-5;
-4,54986951826411E-5;
-7,73097992198259E-5;
-0,000137356906172923;
-0,000171890799254874;
-0,000123981538857038;
1,90359082645614E-5;
0,000207531488248615;
0,000357265570013261;
0,000403489037825352;
0,000341430966485775;
0,000223834004703525;
0,00011949879134809;
6,59785434696299E-5;
5,17708562653137E-5;
3,79088199126829E-5;
-2,77343870329579E-6;
-6,2593355331965E-5;
-0,000109895406754419;
-0,00012160390794528;
-0,000106938129189963;
-0,000100217864576746;
-0,000128216610480547;
-0,00018055119886827;
-0,000210432377875972;
-0,000168352119750596;
-4,33445563811591E-5;
0,000121402458876458;
0,0002526785924267;
0,000294265838591479;
0,000242045342317569;
0,000141781691216663;
5,31150901771876E-5;
8,56010417674128E-6;
-1,87119411781288E-6;
-1,19203629769819E-5;
-4,50877435150676E-5;
-9,47285311635672E-5;
-0,000133496798153343;
-0,000141484686952043;
-0,00012667342947951;
-0,000118681915627273;
-0,000140590918009802;
-0,000183446362408128;
-0,000206959748144495;
-0,00016854817377939;
-5,88218553100588E-5;
8,50537948063583E-5;
0,000200164422210094;
0,000238250472558934;
0,000195802631721123;
0,00011208735145154;
3,82205333974624E-5;
2,03624558226426E-6;
-5,03308996583658E-6;
-1,18587774766951E-5;
-3,85248724735029E-5;
-7,93432656402038E-5;
-0,000110962559295237;
-0,000116405666874618;
-0,000102492976566544;
-9,44710414341911E-5;
-0,00011198707349658;
-0,000147404242306283;
-0,000166449645503839;
-0,00013294401416849;
-3,8943355415707E-5;
8,39747567032112E-5;
0,000182432791738044;
0,000215538542872144;
0,000180350639771244;
0,000110135000934791;
4,81397436303521E-5;
1,7885648296763E-5;
1,21251499097964E-5;
6,48807079138637E-6;
-1,5953202734218E-5;
-5,03878435842479E-5;
-7,71403969307858E-5;
-8,19272632691432E-5;
-7,04933735168194E-5;
-6,40554228292972E-5;
-7,90980469733526E-5;
-0,000109193688910082;
-0,000125597175493363;
-9,80095596287358E-5;
-1,98088685549903E-5;
8,25643313682764E-5;
0,000164490004759051;
0,000191836340707629;
0,000162181351952158;
0,000103287969136959;
5,11936849682096E-5;
2,54692173404054E-5;
2,00773323628602E-5;
1,47684736019412E-5;
-4,49789833177951E-6;
-3,37151552799281E-5;
-5,6570036990901E-5;
-6,12409738288179E-5;
-5,24904579529438E-5;
-4,78560041439876E-5;
-6,09376382188511E-5;
-8,64144287164353E-5;
-0,000100585825953721;
-7,85153956067764E-5;
-1,47856957727222E-5;
6,88431803129949E-5;
0,000135725433796847;
0,000157880173244136;
0,000133353394546295;
8,48979616318977E-5;
4,19918911115587E-5;
2,06137722685319E-5;
1,58243115672407E-5;
1,11137551031928E-5;
-4,94091553054653E-6;
-2,90665183339272E-5;
-4,80026238371322E-5;
-5,21621142762448E-5;
-4,54186815282525E-5;
-4,19786361937151E-5;
-5,28326759146179E-5;
-7,36652238036881E-5;
-8,53436230486998E-5;
-6,7783617368521E-5;
-1,6657101320258E-5;
5,05061822163891E-5;
0,000104263895474027;
0,00012218762046257;
0,000102742521978042;
6,4157472390716E-5;
2,99918137921398E-5;
1,29843606604586E-5;
9,18464353905109E-6;
5,45088152903665E-6;
-7,28464613176214E-6;
-2,64109835727773E-5;
-4,14160415804244E-5;
-4,4722967051873E-5;
-3,94064672626079E-5;
-3,66795527631162E-5;
-4,5190055557979E-5;
-6,1526686517973E-5;
-7,06579080885992E-5;
-5,68528016951397E-5;
-1,67590173650572E-5;
3,58875819657371E-5;
7,81004956549681E-5;
9,24245325803269E-5;
7,76991925813126E-5;
4,81036629005788E-5;
2,19023582942145E-5;
8,93764304385554E-6;
6,14368859301427E-6;
3,38821766206603E-6;
-6,29323271974722E-6;
-2,08812228922559E-5;
-3,23159587107685E-5;
-3,48128460995989E-5;
-3,07331446933242E-5;
-2,86214820196762E-5;
-3,5038507802222E-5;
-4,73783676733874E-5;
-5,42595863753555E-5;
-4,38232446399415E-5;
-1,35829089916574E-5;
2,60998795551544E-5;
5,7976065908951E-5;
6,90078301969732E-5;
5,83670345985184E-5;
3,66395909470095E-5;
1,73942899692552E-5;
7,90671444242174E-6;
5,89594366922033E-6;
3,89589323592376E-6;
-3,19574092358808E-6;
-1,38830323632288E-5;
-2,22750473142197E-5;
-2,41709961096501E-5;
-2,1300617231367E-5;
-1,98507475185263E-5;
-2,45390643969085E-5;
-3,34707711930761E-5;
-3,84842564782726E-5;
-3,11339927139084E-5;
-9,69539330030267E-6;
1,84439272362268E-5;
4,10877693887047E-5;
4,90863596173666E-5;
4,19038839835128E-5;
2,69668371374226E-5;
1,37176304172042E-5;
7,17769910692635E-6;
5,75569552022727E-6;
4,32530680069223E-6;
-5,82780873711194E-7;
-7,93208222787318E-6;
-1,37323618684783E-5;
-1,51697412291766E-5;
-1,34206789941466E-5;
-1,26087905718181E-5;
-1,58402935624353E-5;
-2,184259920527E-5;
-2,52677542069138E-5;
-2,06509266582608E-5;
-6,93184706334428E-6;
1,10970749225145E-5;
2,56459260972171E-5;
3,09533588105246E-5;
2,67378968765359E-5;
1,76752209031267E-5;
9,61721124483081E-6;
5,62503824880968E-6;
4,70673769096858E-6;
3,76832111020633E-6;
7,57688079325837E-7;
-3,68811341275158E-6;
-7,22786833985701E-6;
-8,25004262979802E-6;
-7,45159474130805E-6;
-7,16958537856367E-6;
-9,11606722336665E-6;
-1,25574511772901E-5;
-1,45789136623804E-5;
-1,22912338443307E-5;
-5,20745101551517E-6;
4,12047155562875E-6;
1,17038336835849E-5;
1,4702473362903E-5;
1,30538218510681E-5;
9,06458733049673E-6;
5,49658235366527E-6;
3,72502283472E-6;
3,27309799541577E-6;
2,79236602674859E-6;
1,44684227372438E-6;
-4,69826506392825E-7;
-2,03088404506611E-6;
-2,65522546123035E-6;
-2,62897530750318E-6;
-2,76001264252163E-6;
-3,56819688940851E-6;
-4,78139020587523E-6;
-5,56408881223321E-6;
-5,22628410011382E-6;
-3,76980951744153E-6;
-1,83548804307608E-6;
-1,72161858603625E-7;
8,67976039134542E-7;
1,40862091801896E-6;
1,74159504300788E-6;
2,00240381591387E-6;
2,13442811740645E-6;
2,09816485327068E-6;
2,02552287702688E-6;
2,11083691941937E-6;
2,35636498391087E-6;
2,49133956560881E-6;
2,22536733236006E-6;
1,61984267854856E-6;
1,15862283924549E-6;
1,32785927671625E-6;
2,00994654271468E-6;
2,28742845350579E-6;
9,98081282452895E-7;
-2,27082907547273E-6;
-6,55219528429065E-6;
-9,87167944065204E-6;
-1,04920219450977E-5;
-8,13316773536622E-6;
-4,19253758472847E-6;
-7,34637834148716E-7;
9,8557352456175E-7;
1,29446741933546E-6;
1,56096725020072E-6;
2,83935500936945E-6;
4,88830866397484E-6;
6,43849941173249E-6;
6,47372274835595E-6;
5,34490850634876E-6;
4,61023543842052E-6;
5,59148763431277E-6;
7,84700944212333E-6;
9,00495294077778E-6;
6,36812860602935E-6;
-8,15926670785724E-7;
-1,02492460215708E-5;
-1,77062059118598E-5;
-1,97239129592253E-5;
-1,58932590041306E-5;
-9,00389612171287E-6;
-2,93168956433113E-6;
8,28554247208621E-8;
6,66893195336863E-7;
1,20475208093889E-6;
3,45557982181501E-6;
6,97799579825574E-6;
9,68508306499177E-6;
9,96725811487323E-6;
8,41223732091653E-6;
7,45495352983061E-6;
9,09807814777666E-6;
1,26355458105873E-5;
1,45120568547888E-5;
1,07832255328085E-5;
4,21343844760737E-7;
-1,31959576402738E-5;
-2,40193918212492E-5;
-2,71900092099115E-5;
-2,2194454928753E-5;
-1,29459083313385E-5;
-4,78008961927903E-6;
-7,30693145379189E-7;
7,13615149567574E-8;
8,25585096890845E-7;
3,85594596434426E-6;
8,56029010167159E-6;
1,21973966461878E-5;
1,26837278026659E-5;
1,07961938631327E-5;
9,66838912824921E-6;
1,18444455926375E-5;
1,64076003205104E-5;
1,88630026355339E-5;
1,42780217904622E-5;
1,40768962798369E-6;
-1,55165794568427E-5;
-2,90061943725371E-5;
-3,31023086243342E-5;
-2,72096673631549E-5;
-1,61238552043599E-5;
-6,32511866874932E-6;
-1,46783596387366E-6;
-4,93756081210373E-7;
4,3242547599745E-7;
4,07407554931309E-6;
9,70345341623976E-6;
1,40711903283477E-5;
1,47266331590964E-5;
1,25933149354405E-5;
1,13443109953072E-5;
1,39406485068452E-5;
1,93028543902691E-5;
2,22143074144188E-5;
1,69852347936806E-5;
2,20516228270582E-6;
-1,72420979640601E-5;
-3,27712318164732E-5;
-3,7587361260178E-5;
-3,10333084739359E-5;
-1,85725181476994E-5;
-7,54924957364136E-6;
-2,08515362737433E-6;
-9,79660859616818E-7;
7,89803295388753E-8;
4,18218849006455E-6;
1,05079084389804E-5;
1,54283270245679E-5;
1,62204520627707E-5;
1,39167185911724E-5;
1,25886339646791E-5;
1,55038103081019E-5;
2,14625823523661E-5;
2,47193135017086E-5;
1,90315700101654E-5;
2,86917303872863E-6;
-1,840961943727E-5;
-3,54254013539362E-5;
-4,07803169728888E-5;
-3,37729685194754E-5;
-2,0345467272898E-5;
-8,45878182995387E-6;
-2,56661407717807E-6;
-1,36731601156447E-6;
-2,12944762837164E-7;
4,21801900719516E-6;
1,10367365174476E-5;
1,63510053363004E-5;
1,72488048659827E-5;
1,48383584406354E-5;
1,34657748048573E-5;
1,66084511287639E-5;
2,29838450630455E-5;
2,64863344452358E-5;
2,05000581715224E-5;
3,41529928675872E-6;
-1,90910078923058E-5;
-3,71101957590559E-5;
-4,28453151574417E-5;
-3,55663180485382E-5;
-2,15287621143994E-5;
-9,09440438165417E-6;
-2,93097413265592E-6;
-1,67167642471072E-6;
-4,54630587987334E-7;
4,18643901594108E-6;
1,13199106934522E-5;
1,68885051249652E-5;
1,7863669810079E-5;
1,54006163726224E-5;
1,40124348765743E-5;
1,73022208827114E-5;
2,39369575617187E-5;
2,7597758221818E-5;
2,14508344015265E-5;
3,84179594776939E-6;
-1,93686792690315E-5;
-3,79720252898764E-5;
-4,3948737681345E-5;
-3,65536842232972E-5;
-2,22131210703179E-5;
-9,50306950629963E-6;
-3,20335876998745E-6;
-1,91303256317024E-6;
-6,616855966318E-7;
4,08816787897298E-6;
1,13828117272078E-5;
1,7085407130701E-5;
1,81132639301028E-5;
1,56438384746364E-5;
1,42646908879065E-5;
1,76323697542902E-5;
2,43912201572662E-5;
2,81350041767287E-5;
2,19454037723931E-5;
4,15328442105617E-6;
-1,93124870847366E-5;
-3,81397945938163E-5;
-4,42376703846146E-5;
-3,68576005202075E-5;
-2,2474665584412E-5;
-9,71993649991023E-6;
-3,39836570555472E-6;
-2,10121886874957E-6;
-8,39365819909467E-7;
3,93328538890145E-6;
1,12585386182143E-5;
1,69927327133897E-5;
1,80520988129905E-5;
1,56153138535187E-5;
1,42658938297516E-5;
1,76525764889695E-5;
2,44206567321739E-5;
2,81832309747307E-5;
2,20504167567506E-5;
4,36370534598089E-6;
-1,89774975711044E-5;
-3,77234033497049E-5;
-4,38391859949865E-5;
-3,65829246207034E-5;
-2,23758849937771E-5;
-9,77013297998159E-6;
-3,52254095814763E-6;
-2,2387468852854E-6;
-9,86310910817511E-7;
3,73691175159004E-6;
1,09830373576849E-5;
1,66625866554577E-5;
1,77351580935677E-5;
1,53630749148848E-5;
1,40601455612014E-5;
1,74160839041136E-5;
2,40968566935232E-5;
2,78239401304299E-5;
2,18301096003248E-5;
4,48866357584253E-6;
-1,84116929654173E-5;
-3,68214691324918E-5;
-4,28680888489097E-5;
-3,58245873446233E-5;
-2,19733752941541E-5;
-9,67646471981591E-6;
-3,58201507135146E-6;
-2,32832979065009E-6;
-1,10195856835112E-6;
3,51193760690062E-6;
1,05880044425013E-5;
1,61412243229505E-5;
1,7211178887662E-5;
1,49293893706821E-5;
1,36860047391991E-5;
1,69696760014443E-5;
2,34832189847565E-5;
2,71294780377356E-5;
2,13410633201739E-5;
4,5404629724719E-6;
-1,76606704255968E-5;
-3,55257518527781E-5;
-4,14310118016429E-5;
-3,4671369355476E-5;
-2,13212783979355E-5;
-9,4624999895218E-6;
-3,58527978176176E-6;
-2,37537542537559E-6;
-1,18872983151182E-6;
3,26713961250652E-6;
1,00992910969685E-5;
1,54677517047857E-5;
1,65216110680188E-5;
1,43499700671422E-5;
1,31759407590996E-5;
1,63533615967908E-5;
2,26348778293402E-5;
2,61631960426897E-5;
2,06325536775233E-5;
4,52854948916659E-6;
-1,67671161733306E-5;
-3,392051675191E-5;
-3,96256527945724E-5;
-3,32049101132814E-5;
-2,0470049247839E-5;
-9,15115483892308E-6;
-3,54160959165032E-6;
-2,38628175772106E-6;
-1,2502314951231E-6;
3,0090827798917E-6;
9,53891856758178E-6;
1,46762289926605E-5;
1,57027664351103E-5;
1,36561338789642E-5;
1,25585132557082E-5;
1,56025918391096E-5;
2,16009759291253E-5;
2,49817447048486E-5;
1,97487692667988E-5;
4,4616073462004E-6;
-1,57689009084887E-5;
-3,20808049704033E-5;
-3,75390862261357E-5;
-3,14980068293132E-5;
-1,94646838391678E-5;
-8,76284106844783E-6;
-3,4592178066743E-6;
-2,36664481901502E-6;
-1,28951835884321E-6;
2,7438319434816E-6;
8,92678204440931E-6;
1,37973422223688E-5;
1,47874248932932E-5;
1,28762977783539E-5;
1,18597546425988E-5;
1,47495983439219E-5;
2,04259752740443E-5;
2,36363230513169E-5;
1,87299245016693E-5;
4,34839510705842E-6;
-1,46985453414469E-5;
-3,00721400165509E-5;
-3,52476115285399E-5;
-2,96144284996695E-5;
-1,83444430614428E-5;
-8,31513864831598E-6;
-3,34493029506691E-6;
-2,32099920998616E-6;
-1,30888768840611E-6;
2,47713754775234E-6;
8,2808432503634E-6;
1,28585918708087E-5;
1,38049549409872E-5;
1,20360205336205E-5;
1,11031541131203E-5;
1,38233421640614E-5;
1,91496234115585E-5;
2,21726396781402E-5;
1,76121017048378E-5;
4,19735953271832E-6;
-1,35839066891549E-5;
-2,79514450063193E-5;
-3,28177324750998E-5;
-2,76098315721203E-5;
-1,71436179754315E-5;
-7,82342400879786E-6;
-3,20474942354535E-6;
-2,25336266338757E-6;
-1,31042201538751E-6;
2,21394035163985E-6;
7,61671373449684E-6;
1,18839381661039E-5;
1,27809803389891E-5;
1,1157625874605E-5;
1,03092483355576E-5;
1,28491549749813E-5;
1,78066836411713E-5;
2,06306885692608E-5;
1,64269496582932E-5;
4,01612049483993E-6;
-1,24489600795547E-5;
-2,5768041973702E-5;
-3,03072138953597E-5;
-2,55326820105696E-5;
-1,58922295890953E-5;
-7,30137148478815E-6;
-3,04425614526577E-6;
-2,16761155162108E-6;
-1,29632209471634E-6;
1,95812399868051E-6;
6,94752775553779E-6;
1,08937664966401E-5;
1,17373620477691E-5;
1,02601697440944E-5;
9,49559658585116E-6;
1,18487785934286E-5;
1,6427074033341E-5;
1,90449463449397E-5;
1,52018202183797E-5;
3,81138103669768E-6;
-1,13141924617651E-5;
-2,35642590249854E-5;
-2,77657309188972E-5;
-2,34247754780749E-5;
-1,46163278088548E-5;
-6,7610604880124E-6;
-2,86860698858326E-6;
-2,06743807595961E-6;
-1,26883652514211E-6;
1,71266237267869E-6;
6,28419219025807E-6;
9,90521770419999E-6;
1,06925548010791E-5;
9,35976772556379E-6;
8,67709027455275E-6;
1,0840710349604E-5;
1,50363080299414E-5;
1,74448768136645E-5;
1,39601697481972E-5;
3,58908694685667E-6;
-1,01967504081987E-5;
-2,13758437720773E-5;
-2,52353507994619E-5;
-2,13215930863478E-5;
-1,33381374296966E-5;
-6,21293511377288E-6;
-2,68240362197276E-6;
-1,95620406370979E-6;
-1,23009865921121E-6;
1,47984566320677E-6;
5,63571669275638E-6;
8,9325963337162E-6;
9,66202130915576E-6;
8,46996738406335E-6;
7,86628959035761E-6;
9,84058932893895E-6;
1,36559700105529E-5;
1,58554289132749E-5;
1,27219687606009E-5;
3,35457441136308E-6;
-9,11064217364377E-6;
-1,92324174317907E-5;
-2,27510719056047E-5;
-1,92527392411898E-5;
-1,2076276590499E-5;
-5,66583789347512E-6;
-2,48964618483695E-6;
-1,8368793294518E-6;
-1,18204838932083E-6;
1,26141682542848E-6;
5,00944143254348E-6;
7,98767155864423E-6;
8,65853170930619E-6;
7,6019973491679E-6;
7,07365058568897E-6;
8,86145496367942E-6;
1,23040487638333E-5;
1,42974193693049E-5;
1,15039860821812E-5;
3,11258952638982E-6;
-8,06704533964869E-6;
-1,71580464965121E-5;
-2,03414701287146E-5;
-1,72424688237364E-5;
-1,08460928636494E-5;
-5,12716715280873E-6;
-2,29378677031243E-6;
-1,71207994413297E-6;
-1,12646334739723E-6;
1,05861016133693E-6;
4,41117766343553E-6;
7,07988704640278E-6;
7,69238736536694E-6;
6,76495285329001E-6;
6,30768410242614E-6;
7,91394858710082E-6;
1,09952356480062E-5;
1,27878809971699E-5;
1,0320036222857E-5;
2,86728829337102E-6;
-7,07463695068267E-6;
-1,51718378493754E-5;
-1,80293739262143E-5;
-1,53102495777815E-5;
-9,65999526012258E-6;
-4,60302809069774E-6;
-2,09780998560636E-6;
-1,58412666433461E-6;
-1,0649903264809E-6;
8,72186187972154E-7;
3,84534600232551E-6;
6,21657993696445E-6;
6,77164860130109E-6;
5,96598765412417E-6;
5,57512436870317E-6;
7,0065267185836E-6;
9,74122338356677E-6;
1,1340403085533E-5;
9,18123593444219E-6;
2,62224459882941E-6;
-6,13989859007955E-6;
-1,32884855192538E-5;
-1,58324794293765E-5;
-1,34712694761446E-5;
-8,52777803136586E-6;
-4,09837210265984E-6;
-1,9042618155499E-6;
-1,4550545508663E-6;
-9,99142401963602E-7;
7,02494363754022E-7;
3,31512740890351E-6;
5,40320874508497E-6;
5,90237999505004E-6;
5,21052020179041E-6;
4,88111470374011E-6;
6,14569246640009E-6;
8,5510251749693E-6;
9,9654918311887E-6;
8,09627925520917E-6;
2,3804942104515E-6;
-5,26737991655321E-6;
-1,15187747555746E-5;
-1,37639317655017E-5;
-1,17369117403607E-5;
-7,45688797691683E-6;
-3,61709814010545E-6;
-1,71528324095386E-6;
-1,32663411813801E-6;
-9,30298435873805E-7;
5,49542253217042E-7;
2,82263669971059E-6;
4,64359514071479E-6;
5,08889319987779E-6;
4,50245059016063E-6;
4,22940822987955E-6;
5,33622481144555E-6;
7,43128535541595E-6;
8,67093522579652E-6;
7,07172019125537E-6;
2,14459149143724E-6;
-4,45993709822608E-6;
-9,87005835935245E-6;
-1,18328620564419E-5;
-1,01151947990644E-5;
-6,45269434340925E-6;
-3,16216515402783E-6;
-1,53263634010676E-6;
-1,20036935041109E-6;
-8,59687017653231E-7;
4,13062298497217E-7;
2,36907021752164E-6;
3,94014087873114E-6;
4,33398421327221E-6;
3,84435735352668E-6;
3,62253906763582E-6;
4,58139953557826E-6;
6,38657743494606E-6;
7,46213068212202E-6;
6,11222186030874E-6;
1,91664238958659E-6;
-3,71897004310452E-6;
-8,34669915623712E-6;
-1,00449059969384E-5;
-8,61120532727687E-6;
-5,51874280787593E-6;
-2,73569060817648E-6;
-1,35772954951274E-6;
-1,07751861048862E-6;
-7,88395817386387E-7;
2,92560702590749E-7;
1,95484040563509E-6;
3,29402353670204E-6;
3,63912884362568E-6;
3,2376682789536E-6;
3,06198528707958E-6;
3,88318090733794E-6;
5,41966561905441E-6;
6,34239220451625E-6;
5,22079541148888E-6;
1,69834907625842E-6;
-3,04464242362575E-6;
-6,95051108085415E-6;
-8,4027033703669E-6;
-7,22750353171478E-6;
-4,65700448918677E-6;
-2,33906165518564E-6;
-1,19166291771276E-6;
-9,59122090856372E-7;
-7,17375623641849E-7;
1,87364429964099E-7;
1,5796952753902E-6;
2,7053798679096E-6;
3,00468708052407E-6;
2,68283456696434E-6;
2,54831560005416E-6;
3,24240688664183E-6;
4,5317631684218E-6;
5,31323475238624E-6;
4,39901442601287E-6;
1,49103820363026E-6;
-2,43608838605433E-6;
-5,68113915629216E-6;
-6,9063436001242E-6;
-5,96450018989818E-6;
-3,86810225803155E-6;
-1,97303720916733E-6;
-1,03525632900418E-6;
-8,4601036933293E-7;
-6,47452142394201E-7;
9,66577531172139E-8;
1,24283735491217E-6;
2,17347507353511E-6;
2,43007081090663E-6;
2,17947624330411E-6;
2,08133063711961E-6;
2,65895352994975E-6;
3,72275728144576E-6;
4,37465004471528E-6;
3,64722986072111E-6;
1,29570555290071E-6;
-1,89159286629888E-6;
-4,5364317921483E-6;
-5,55377999635177E-6;
-4,82079458488554E-6;
-3,15152073263904E-6;
-1,63782789602972E-6;
-8,89084778101355E-7;
-7,38835868624647E-7;
-5,79324300611949E-7;
1,95230382047087E-8;
9,43014128391656E-7;
1,69685017157687E-6;
1,91391027646108E-6;
1,72652337195652E-6;
1,66018726270295E-6;
2,13189681621529E-6;
2,99142806728064E-6;
3,52534276618776E-6;
2,96475584288384E-6;
1,11304843240631E-6;
-1,40876228053721E-6;
-3,51276010870924E-6;
-4,34121228267801E-6;
-3,7934970466469E-6;
-2,50579612228585E-6;
-1,33318725167847E-6;
-7,53502219864354E-7;
-6,38074411022413E-7;
-5,13579542508114E-7;
-4,50329215581243E-8;
6,78628982867044E-7;
1,27347385401316E-6;
1,45420350634725E-6;
1,32235030694363E-6;
1,28351636220844E-6;
1,65965424677915E-6;
2,33565030161242E-6;
2,76296273983345E-6;
2,35004761276549E-6;
9,43499869126745E-7;
-9,8466749458788E-7;
-2,60530944567147E-6;
-3,26342512242821E-6;
-2,87850522565696E-6;
-1,92869177927522E-6;
-1,05848333521192E-6;
-6,2867115546168E-7;
-5,44063455993254E-7;
-4,50695295737009E-7;
-9,80364408566643E-8;
4,47809245196986E-7;
9,00859582132817E-7;
1,04845138681866E-6;
9,64883972362762E-7;
9,49533141189279E-7;
1,24011642232344E-6;
1,75255999472968E-6;
2,08430649989705E-6;
1,80086082952393E-6;
7,87267387453444E-7;
-6,15980763256645E-7;
-1,80835519441345E-6;
-2,31409159033667E-6;
-2,07076240873999E-6;
-1,41735025744225E-6;
-8,12769396332959E-7;
-5,14595210442383E-7;
-4,57000620992394E-7;
-3,91050008711578E-7;
-1,40540614214364E-7;
2,48484893335029E-7;
5,76177060014578E-7;
6,93768700615851E-7;
6,51708687801126E-7;
6,56123269043652E-7;
8,70757625093195E-7;
1,23872476329151E-6;
1,48550201751209E-6;
1,31439112731405E-6;
6,44357448638042E-7;
-2,99085345418912E-7;
-1,11548245657583E-6;
-1,48605221408159E-6;
-1,3644890671022E-6;
-9,6844161702548E-7;
-5,9484679523252E-7;
-4,11131632133096E-7;
-3,76970533978737E-7;
-3,34930973000733E-7;
-1,73590366198393E-7;
7,84555735339449E-8;
2,96353033575782E-7;
3,86995614680604E-7;
3,80161052262753E-7;
4,00931644709466E-7;
5,48745790106939E-7;
7,90279635965549E-7;
9,62167542395526E-7;
8,87409234052777E-7;
5,14607746236633E-7;
-3,01886258324698E-8;
-5,19808170650871E-7;
-7,71555526543842E-7;
-7,53379433651532E-7;
-5,782799003212E-7;
-4,03324502563913E-7;
-3,18026225965234E-7;
-3,03955550819913E-7;
-2,82545196976006E-7;
-1,98216392533912E-7;
-6,45601553912324E-8;
5,81561435702103E-8;
1,2479001789827E-7;
1,47402643728649E-7;
1,81432722955758E-7;
2,71027767044593E-7;
4,03047763867386E-7;
5,09558224812457E-7;
5,16369851664418E-7;
3,97711862447033E-7;
1,9460145694348E-7;
-1,4142094018478E-8;
-1,62456827750363E-7;
-2,30779336536521E-7;
-2,42939899286095E-7;
-2,36664729812626E-7;
-2,34925608894633E-7;
-2,37854858483393E-7;
-2,34022310937799E-7;
-2,15412994584743E-7;
-1,8287459626178E-7;
-1,41731299704759E-7;
-9,63018050166416E-8;
-4,95048860284614E-8;
-5,00156323186744E-9;
3,44103856440657E-8;
7,26592531247625E-8;
1,22691319676241E-7;
1,9751047344644E-7;
2,93247685453867E-7;
3,79196943199702E-7;
4,08842747938469E-7;
3,49586778226938E-7;
2,10159892890643E-7;
4,16534910072065E-8;
-9,32292950217783E-8;
-1,6140028450183E-7;
-1,78492867270627E-7;
-1,89429058009984E-7;
-2,26132343359664E-7;
-2,78787065864194E-7;
-3,06647439890897E-7;
-2,79768290590046E-7;
-2,13543014212527E-7;
-1,61053984877182E-7;
-1,64372335803909E-7;
-2,05360179736139E-7;
-2,03544424668517E-7;
-7,30578730869176E-8;
2,0069691190874E-7;
5,27468620022279E-7;
7,5648696322786E-7;
7,72967256547956E-7;
5,76352935375032E-7;
2,79640690038738E-7;
2,86814502600611E-8;
-9,69612392970021E-8;
-1,25635670772622E-7;
-1,4877156178809E-7;
-2,31276264020915E-7;
-3,54561059311332E-7;
-4,39899285840618E-7;
-4,29077092121359E-7;
-3,47685068045108E-7;
-2,89404659509707E-7;
-3,28596727511207E-7;
-4,35510595863764E-7;
-4,74294772730162E-7;
-2,99276604210584E-7;
1,19464960517928E-7;
6,43192955045695E-7;
1,03603513430063E-6;
1,11599799108824E-6;
8,74666042546285E-7;
4,75155630508688E-7;
1,30794720684353E-7;
-4,10753151706139E-8;
-7,90008251635683E-8;
-1,1200708947315E-7;
-2,31686371494263E-7;
-4,12385483010381E-7;
-5,44718866482577E-7;
-5,47632311804086E-7;
-4,54856152079355E-7;
-3,92702622128766E-7;
-4,61509187772034E-7;
-6,22248449751581E-7;
-6,9466675254762E-7;
-4,85079401116325E-7;
4,89043707395297E-8;
7,30013305068305E-7;
1,25454367554714E-6;
1,386804820131E-6;
1,11183328447975E-6;
6,3227493072387E-7;
2,14839161381645E-7;
6,82514821477986E-9;
-3,82671111946998E-8;
-7,90540330947034E-8;
-2,28141377439018E-7;
-4,54357664711262E-7;
-6,24228738534941E-7;
-6,38727567646619E-7;
-5,37896130921714E-7;
-4,73526131759276E-7;
-5,66269918180876E-7;
-7,6992382279861E-7;
-8,6965396814429E-7;
-6,3433318904875E-7;
-1,16749931481366E-8;
7,91406387453142E-7;
1,41880870569561E-6;
1,59323644461561E-6;
1,29437258947594E-6;
7,54960618152585E-7;
2,82522107352023E-7;
4,73211105399506E-8;
-3,08748217418611E-9;
-4,97872550055495E-8;
-2,21360507292492E-7;
-4,8246952775778E-7;
-6,81411216587922E-7;
-7,05526300870953E-7;
-5,99532407018091E-7;
-5,34360784700897E-7;
-6,45941428420665E-7;
-8,82744669159991E-7;
-1,0040891379622E-6;
-7,50799301364532E-7;
-6,29888746113227E-8;
0,00933426470226871;
0,0226312651344054;
0,0163744800720468;
0,00943452470854976;
0,0121702388115724;
0,00702650283357674;
0,00563489813758181;
0,00458273695939567;
0,000840476031624615;
0,00103218038253969;
-0,00119093808761035;
-0,0019926717493516;
-0,00280788795956646;
-0,0045543236811773;
-0,00488790257709405;
-0,00585660415164856;
-0,00594218200799424;
-0,00618359092716056;
-0,00699441476369204;
-0,0079208093082548;
-0,00934803715697727;
-0,0102412785494366;
-0,0105166568039677;
-0,0101070029015054;
-0,00920675256018412;
-0,00842992142199128;
-0,0078303256927557;
-0,00745741940225539;
-0,00704805497094283;
-0,00641887768421532;
-0,00567595810261007;
-0,00495922718960033;
-0,00445385945660625;
-0,00409143623788572;
-0,0036644312806338;
-0,00302730897733084;
-0,0022292522523754;
-0,00157399866698711;
-0,00136197612947955;
-0,00166538629593149;
-0,00222487062117928;
-0,00258541268013273;
-0,00240486303197633;
-0,00165560963525698;
-0,000623780379909543;
0,000317073383159411;
0,000963793832968996;
0,00137594173409528;
0,00176514925390739;
0,00227827417481614;
0,00287321012839566;
0,00337746270420861;
0,00366415306534258;
0,00378374437912689;
0,00392412767248377;
0,00423268523305217;
0,0046530519023208;
0,00492792029990398;
0,00478445733985385;
0,00416188731935073;
0,00329923929118064;
0,00260286235586908;
0,00238596586187267;
0,00267293272447475;
0,00321014545535647;
0,00366581742260229;
0,00385891534622181;
0,00384603425068094;
0,00381733876107499;
0,00390601499857717;
0,00407589752351053;
0,00417387929887125;
0,00408836120547186;
0,00386525687297384;
0,00367332759177894;
0,00364474962820778;
0,00372982107530523;
0,00370003102191278;
0,00331299047574255;
0,00251536477232829;
0,00152038872843928;
0,000689728816476169;
0,000301829269135625;
0,000378090909326383;
0,000693013671549748;
0,000951863656659048;
0,00099391460392588;
0,000869286178042436;
0,000746351868878838;
0,000742776467696276;
0,000826059885223244;
0,00086018995803032;
0,000746001937065627;
0,000523704697978914;
0,000342024952560787;
0,000317154336993153;
0,000404495387915489;
0,000401639090483019;
9,41581012450309E-5;
-0,000565386785883006;
-0,0107228219789284;
-0,024689402376057;
-0,0187044839710464;
-0,0116207908317257;
-0,0139962708404981;
-0,00853548971848821;
-0,00701175367370289;
-0,00596891036775899;
-0,0022302817266708;
-0,00231741637438332;
8,93104748645496E-5;
0,00103393506914068;
0,00186399199783742;
0,00353194837919383;
0,0038233239994654;
0,00488711417699747;
0,00516552518498897;
0,00552025550710988;
0,00617740210413636;
0,00664155610096547;
0,0074614063291683;
0,0078791415622567;
0,00802339839130976;
0,00784205406900627;
0,00735556952684914;
0,00695148467831943;
0,00656009027855055;
0,00626855112262792;
0,00594151756867036;
0,00548452832159043;
0,00497811901705831;
0,00445812592458841;
0,00403391583782217;
0,0036672038877411;
0,00326277226940517;
0,00276250947031944;
0,00218126385971544;
0,00166938360518752;
0,00136529607776258;
0,00130553780970742;
0,00137218657716116;
0,00134951967662994;
0,00107872765001653;
0,000545048454320145;
-0,000115422126006177;
-0,000724164117105256;
-0,00118417291307788;
-0,00152232567628626;
-0,001840171778089;
-0,00220805987327976;
-0,0026057233948047;
-0,00294987689093393;
-0,00317845399621421;
-0,00331583406943196;
-0,00345347863145324;
-0,00366378751844671;
-0,00391968733551362;
-0,00409489940496432;
-0,0040547699531038;
-0,00376860855774011;
-0,0033543512399702;
-0,00301398873703368;
-0,00290437965286444;
-0,00303901259668935;
-0,00329203767748392;
-0,00349752172732683;
-0,00356448795234938;
-0,00352152346891571;
-0,00346513839178171;
-0,0034635012700256;
-0,00349890692246495;
-0,00349374720832431;
-0,00339114588702201;
-0,00321476178268465;
-0,00305168337567081;
-0,00297068117706076;
-0,00294678492255771;
-0,00286199164687906;
-0,00259025199151459;
-0,00210331593584783;
-0,00151221551704904;
-0,00100657123582329;
-0,000733445336780524;
-0,000705256384920033;
-0,000803906651921006;
-0,000873815089936756;
-0,000829659698512194;
-0,00069799694667772;
-0,000568777936233215;
-0,000505334624581536;
-0,000490655061775262;
-0,000451780062438894;
-0,000335151445795198;
-0,000162369484485656;
-1,41386827376813E-5;
4,60335014390938E-5;
4,20772953929171E-5;
8,45628169744542E-5;
0,000291438974069672;
0,000689509751508915;
0,00117598379075258;
0,0015751060295295;
0,00175087583294395;
0,00169254641789476;
0,00151060103105751;
0,00135019982005874;
0,00129113831188945;
0,00130933385404157;
0,00132193319886647;
0,00127082871332015;
0,00117239669601503;
0,00109479140101339;
0,00108811332354586;
0,00113283719431824;
0,00115476372630766;
0,001095651420462;
0,00097811514861346;
0,00090477057191056;
0,000984914690401338;
0,00124355837086672;
0,00158606339066307;
0,0018505542874959;
0,00191195267087919;
0,00176073478777084;
0,00149906287701449;
0,0012609134704959;
0,00111993079369755;
0,00105406732774489;
0,000987210976544316;
0,000866056196717435;
0,000705790478933803;
0,000569137277505541;
0,000502154254383547;
0,000486910171907991;
0,000455296546034707;
0,000353893427981918;
0,000203462318480085;
9,80600418260682E-5;
0,000137756223711203;
0,000345305115185369;
0,000633874127672541;
0,000855162068720093;
0,000894660794687012;
0,000743635713775013;
0,000495449774197964;
0,000272443918626264;
0,000141731446493938;
8,29867984821283E-5;
2,65542258438275E-5;
-7,63554628461146E-5;
-0,000212028336455397;
-0,000323434612147016;
-0,000368788628601426;
-0,000364632800397244;
-0,000373182460228649;
-0,000443225167224303;
-0,000556010813840853;
-0,000626147328853408;
-0,000562855698950324;
-0,000345700945780435;
-5,38140405693107E-5;
0,000177932193397511;
0,000245463116176234;
0,000140772127906004;
-5,15364601833623E-5;
-0,000220655059862477;
-0,000305914785851549;
-0,000325899402385609;
-0,00034383663494241;
-0,000404004740560448;
-0,000494087021339858;
-0,000562598680491346;
-0,000571877531973532;
-0,000536998676328239;
-0,000514273096874649;
-0,000547828441559016;
-0,000620786354981641;
-0,000656151121238098;
-0,000572132837654137;
-0,000350426218751817;
-6,24616359410477E-5;
0,000170186936290145;
0,000253789014067383;
0,000181168653653143;
2,8484074184545E-5;
-0,000104599319495695;
-0,000163565487464447;
-0,000165151195510213;
-0,000166170527430158;
-0,000206369570956629;
-0,000274665185016297;
-0,000324844881168728;
-0,000323129324536487;
-0,0002830358617995;
-0,000255011193804505;
-0,000278541134124374;
-0,000338458503804248;
-0,000365811023902246;
-0,000287418291841058;
-8,69267516304603E-5;
0,000171802499175426;
0,000380167939549909;
0,00045452712054442;
0,000388570693725255;
0,000250349995313669;
0,000128825711283414;
7,26370393237645E-5;
6,68936114003968E-5;
6,1024253450752E-5;
1,96978835463444E-5;
-4,71537722730739E-5;
-9,83619622146145E-5;
-0,000103851371778301;
-7,56092805808086E-5;
-5,84186876205722E-5;
-8,72889928058356E-5;
-0,000148689115620785;
-0,00018138356849664;
-0,000120445100256242;
4,86192298573384E-5;
0,000269212979173956;
0,000445162715946794;
0,000502472162325078;
0,000435636228998167;
0,000304921890376092;
0,000189028515365459;
0,000130958291739676;
0,000117565944242473;
0,000104218616480007;
5,97698414897375E-5;
-6,98032997786482E-6;
-5,97056645889466E-5;
-7,18919715356248E-5;
-5,40990942407851E-5;
-4,57500557907574E-5;
-7,76314595834368E-5;
-0,000137808986046362;
-0,000172423245323467;
-0,000124424116901297;
1,88853047946829E-5;
0,000207778187147133;
0,00035784285200519;
0,000404192910515604;
0,000342040315416173;
0,000224229644940804;
0,000119700292826963;
6,60839422503309E-5;
5,18573901167968E-5;
3,79753410934145E-5;
-2,78429561009934E-6;
-6,27244251659906E-5;
-0,000110124719875656;
-0,00012186068590294;
-0,000107168675179714;
-0,000100438459964316;
-0,000128499860108212;
-0,000180950000488721;
-0,000210902997680683;
-0,000168745286053506;
-4,34827482273162E-5;
0,000121612291157702;
0,000253178958040106;
0,00029487891557351;
0,00024257792667548;
0,000142129288158772;
5,32942394412304E-5;
8,65590898942715E-6;
-1,79161924821611E-6;
-1,18581602600383E-5;
-4,50930561652511E-5;
-9,48388992574655E-5;
-0,000133693350683714;
-0,000141706000139598;
-0,000126872838213473;
-0,00011887355459055;
-0,000140837912810901;
-0,000183794804312431;
-0,000207371829259434;
-0,000168894326257085;
-5,89477033692133E-5;
8,52296847937328E-5;
0,000200593125485022;
0,000238778650941021;
0,000196263241027496;
0,000112389703407265;
3,83783891692392E-5;
2,12264801799421E-6;
-4,96047195013488E-6;
-1,18010639180356E-5;
-3,8525440487851E-5;
-7,94346819771735E-5;
-0,000111128819772095;
-0,000116594070274482;
-0,000102663419324493;
-9,46356563503293E-5;
-0,000112200140543053;
-0,000147705489485321;
-0,000166806773824682;
-0,000133245826765351;
-3,90570790060271E-5;
8,41196604939007E-5;
0,000182795280127882;
0,000215987996003793;
0,000180744327291842;
0,000110395100353324;
4,82774923100241E-5;
1,79629376096393E-5;
1,21909032718797E-5;
6,54120329873458E-6;
-1,59497755242463E-5;
-5,04620578417816E-5;
-7,72788787903018E-5;
-8,20853774519597E-5;
-7,0637091690097E-5;
-6,41950244391849E-5;
-7,92796239626846E-5;
-0,00010945107173044;
-0,000125903143785196;
-9,82698993469425E-5;
-1,99108114425423E-5;
8,26811813437342E-5;
0,000164791801052394;
0,000192213373478472;
0,000162513311525891;
0,000103508930585101;
5,13126055870029E-5;
2,55377569036638E-5;
2,01363892893187E-5;
1,48170073641593E-5;
-4,49116811630622E-6;
-3,37738856635952E-5;
-5,66832532902016E-5;
-6,13714372832343E-5;
-5,26097160084005E-5;
-4,79726376522926E-5;
-6,10902202485584E-5;
-8,6631362375172E-5;
-0,000100844537551427;
-7,87372535882394E-5;
-1,48763068433766E-5;
6,89348496901603E-5;
0,000135972051072515;
0,00015819112082854;
0,000133628869568534;
8,50829525878427E-5;
4,20933204623621E-5;
2,06739889290133E-5;
1,58769044884553E-5;
1,11577347084772E-5;
-4,93151902221816E-6;
-2,91114356887723E-5;
-4,80930468635296E-5;
-5,22675355022487E-5;
-4,55157297634071E-5;
-4,20743469788869E-5;
-5,29587687082193E-5;
-7,38451489535318E-5;
-8,55590232236327E-5;
-6,7970043276551E-5;
-1,67369097858028E-5;
5,05754491097373E-5;
0,000104460753117051;
0,000122438743626391;
0,000102966718380392;
6,43096640117402E-5;
3,00771228696065E-5;
1,30367280153958E-5;
9,2310520875974E-6;
5,49040360870652E-6;
-7,27315883090742E-6;
-2,64436929880045E-5;
-4,14860777071147E-5;
-4,48058965461103E-5;
-3,9483513551098E-5;
-3,67563573232922E-5;
-4,52921397924717E-5;
-6,16730160300186E-5;
-7,0833921258887E-5;
-5,70068531228839E-5;
-1,68286118906402E-5;
3,59371061470833E-5;
7,82528561556689E-5;
9,2621939215999E-5;
7,78772107456799E-5;
4,82261818435775E-5;
2,19729207624582E-5;
8,98266661006342E-6;
6,18423614011124E-6;
3,42342340570549E-6;
-6,28017378953219E-6;
-2,09032463395741E-5;
-3,23679184849034E-5;
-3,48757503701419E-5;
-3,07923289116546E-5;
-2,86813403679339E-5;
-3,51190084884376E-5;
-4,74944434204E-5;
-5,44000649585404E-5;
-4,39479487411112E-5;
-1,36429278907061E-5;
2,61321770576099E-5;
5,80889850816835E-5;
6,91574166790497E-5;
5,85038129755312E-5;
3,67354844637925E-5;
1,74514696470848E-5;
7,94492035145424E-6;
5,93098085904583E-6;
3,92695955208349E-6;
-3,18157007335467E-6;
-1,38958048718913E-5;
-2,2311131981225E-5;
-2,42162284044191E-5;
-2,13439926046336E-5;
-1,98955485319397E-5;
-2,46003196731603E-5;
-3,35598263825236E-5;
-3,85929336334952E-5;
-3,12322973406275E-5;
-9,74649929448847E-6;
1,8461361048577E-5;
4,11660500440735E-5;
4,91937514921712E-5;
4,2004151446427E-5;
2,70390374568917E-5;
1,37627598839291E-5;
7,20962066807457E-6;
5,78558807881005E-6;
4,35243808905469E-6;
-5,6790315543432E-7;
-7,93694007699262E-6;
-1,37546441995284E-5;
-1,51995317892311E-5;
-1,34501915789472E-5;
-1,26403324485767E-5;
-1,58845426409373E-5;
-2,19077300461194E-5;
-2,53482152705931E-5;
-2,07256820639904E-5;
-6,97472155818029E-6;
1,11018406096425E-5;
2,56940944109282E-5;
3,10238808463739E-5;
2,6806144529179E-5;
1,77265271889209E-5;
9,65157999373184E-6;
5,65121744543049E-6;
4,73187044626016E-6;
3,79174268019996E-6;
7,72921186564975E-7;
-3,68629349753157E-6;
-7,23828820800072E-6;
-8,26648128983303E-6;
-7,46907522285796E-6;
-7,18956759380825E-6;
-9,14542918965006E-6;
-1,26015939514676E-5;
-1,4634565505382E-5;
-1,23451615839646E-5;
-5,24278121796218E-6;
4,11459036813805E-6;
1,17261190539457E-5;
1,47411180136982E-5;
1,30942687172549E-5;
9,09764451278341E-6;
5,52142254802122E-6;
3,74599002496704E-6;
3,29385824179171E-6;
2,81232001244733E-6;
1,46213139183329E-6;
-4,62462245605166E-7;
-2,03123702772555E-6;
-2,66025612089992E-6;
-2,63613284038681E-6;
-2,77002585006436E-6;
-3,58466265240416E-6;
-4,807309043646E-6;
-5,59814088407724E-6;
-5,26196352152824E-6;
-3,79827826148774E-6;
-1,85016156184058E-6;
-1,7184457080596E-7;
8,79382210416545E-7;
1,42520567921015E-6;
1,75888051087216E-6;
2,01888729958553E-6;
2,15070567465433E-6;
2,11493736463218E-6;
2,04225875424604E-6;
2,12592610232178E-6;
2,36824386421153E-6;
2,49940509065578E-6;
2,22994887102153E-6;
1,62142707195692E-6;
1,15710371531709E-6;
1,3224365464309E-6;
1,99967714588741E-6;
2,27197634251291E-6;
9,78226842642092E-7;
-2,29310303376163E-6;
0,00932686006040586;
0,0226198400883686;
0,0163622337010921;
0,00942495937244562;
0,0121652030663922;
0,00702544192093883;
0,00563581479482198;
0,00458401768842771;
0,000842074832324212;
0,00103524640776368;
-0,00118553571969888;
-0,00198549917723791;
-0,00280065065956014;
-0,00454832753601086;
-0,0048827091477802;
-0,00585030530947726;
-0,00593336726769492;
-0,00617348300161045;
-0,00698721482420083;
-0,00792153620468963;
-0,00935916464026794;
-0,0102606280707361;
-0,0105382539021321;
-0,010124436919296;
-0,00921667609031041;
-0,00843322549288067;
-0,00783034292461816;
-0,00745679467056036;
-0,00704683745695557;
-0,00641520738871273;
-0,00566845741377175;
-0,00494878165449114;
-0,00444309512206825;
-0,0040823403265095;
-0,00365635940483461;
-0,00301745768367267;
-0,00221558292296031;
-0,00155830338318788;
-0,00135028803426801;
-0,00166483604055872;
-0,00223895304490636;
-0,00261112645093044;
-0,00243399841408276;
-0,00167941352653453;
-0,000637696852969051;
0,000311887328539999;
0,000962937973553192;
0,00137594728670159;
0,00176596595477028;
0,00228233126654891;
0,00288229237335575;
0,00339043132132625;
0,00367765017827441;
0,0037952414133336;
0,00393443230418022;
0,00424531052359703;
0,00467053391006792;
0,00494801705371001;
0,00479968890865603;
0,0041634561135981;
0,00328284279241718;
0,00257214397513202;
0,00235088607607517;
0,00264407935806913;
0,00319302220541514;
0,00365906375454474;
0,00385730276056404;
0,00384545541456155;
0,0038177438718381;
0,00391027552330342;
0,00408611438718247;
0,00418871927490006;
0,00410390291440967;
0,00387855516780803;
0,00368531512130919;
0,00365948307304722;
0,00375021706538392;
0,00372350395268396;
0,00333095677627132;
0,0025177562820915;
0,00150228548677435;
0,000655255662788204;
0,000262266336940014;
0,000345408949999288;
0,000673431868208709;
0,000943872837439527;
0,000991670036234041;
0,000868206143580875;
0,000746388096174138;
0,000747129712227114;
0,000837066275867121;
0,000876373638324825;
0,000763026907471238;
0,000538319572607424;
0,00035525334158011;
0,000333449586850503;
0,000427051207029526;
0,000427620027839945;
0,000114180097291743;
-0,000562312255972788;
-0,0107420640425459;
-0,0247264961158266;
-0,0187472095207234;
-0,0116561927850692;
-0,0140176194633736;
-0,00854439486464502;
-0,0070144900051576;
-0,00597038976789355;
-0,00223055009929286;
-0,00231304302056129;
0,000100825664017417;
0,00105101900466487;
0,00188202467827247;
0,003547468996519;
0,00383741737101738;
0,00490450157540108;
0,00518958675103518;
0,00554798807971625;
0,00619888656812554;
0,00664519022151434;
0,00744151942055798;
0,00784041561546698;
0,00797866153206881;
0,00780489876302067;
0,00733305708197422;
0,00694194609774813;
0,00655698311814476;
0,00626675885581035;
0,00594099736306237;
0,00548885435897121;
0,00498989340176882;
0,00447571775696423;
0,00405253460528746;
0,00368326350432038;
0,00327739304021499;
0,00278056899478264;
0,00220625015119604;
0,00169819700915588;
0,00138771246137525;
0,0013096070067714;
0,00135206453584148;
0,00130999960525962;
0,00103295981551107;
0,00050696222590469;
-0,000138588547986146;
-0,000734103331480696;
-0,00118755559253456;
-0,00152436496546625;
-0,00184090688502318;
-0,00220384759387148;
-0,00259391302096384;
-0,00293212332375425;
-0,00315962079062414;
-0,00329956030909162;
-0,00343863053825543;
-0,00364542684844665;
-0,00389428555416309;
-0,00406559166817827;
-0,0040318883737913;
-0,00376422355511746;
-0,00337437019248112;
-0,00305359722722372;
-0,00295034932885132;
-0,00307733334114689;
-0,00331542655102414;
-0,00350766497533604;
-0,00356806590534398;
-0,00352375411942174;
-0,00346605695348377;
-0,00345945889779988;
-0,00348724977478827;
-0,00347612560730419;
-0,00337241381947774;
-0,00319855007144606;
-0,0030368633988446;
-0,00295233505631085;
-0,00292140063475242;
-0,00283268832014661;
-0,00256730319207485;
-0,00209871987541344;
-0,00153184965494946;
-0,00104567541033399;
-0,000778918451477901;
-0,000743223203278101;
-0,000827150907919953;
-0,000883991845231093;
-0,00083335965906924;
-0,000700366136457667;
-0,000569847370322625;
-0,000501503016668499;
-0,00047930362729871;
-0,000434530765633454;
-0,00031677973500382;
-0,00014644676807779;
4,42972324582089E-7;
6,41040528357355E-5;
6,70846884666613E-5;
0,000113446803516071;
0,000314123127570856;
0,000694228278098002;
0,00115696697345198;
0,00153699758525836;
0,00170647966054819;
0,00165542428720596;
0,00148781011910524;
0,00134013643831477;
0,00128738307659448;
0,00130687591802436;
0,00132074582205359;
0,00127442172679053;
0,00118332229145226;
0,00111147540742002;
0,0011059153988255;
0,00114828730189239;
0,00116893641678859;
0,00111323342632708;
0,00100245139349039;
0,000932894681201442;
0,0010070605860684;
0,00124832357168292;
0,00156784974034358;
0,00181383889449063;
0,00186910437909581;
0,00172485692674574;
0,00147697836498345;
0,0012510860184981;
0,00111617816007906;
0,00105156475422271;
0,000985935965587807;
0,000869391656067923;
0,000716196526089177;
0,000585103054954468;
0,000519219898060763;
0,000501740689241869;
0,000468922966411065;
0,000370815018593578;
0,000226889834520929;
0,000125148883864851;
0,000159140991598629;
0,000350051115489335;
0,00061660591644291;
0,000820150769117578;
0,000853731204078283;
0,000709317983344054;
0,000474272923200213;
0,000262951370662865;
0,000138029683612953;
8,04770279822575E-5;
2,52180817202719E-5;
-7,32898798467574E-5;
-0,000202213051014795;
-0,000308305142941572;
-0,000352589008678578;
-0,00035053674594835;
-0,000360210308286942;
-0,000427099456847256;
-0,000533679140192862;
-0,000600310940481001;
-0,000542409453419877;
-0,000341030919176984;
-7,00331546626298E-5;
0,0001448592885881;
0,000206733908304199;
0,000108255813539672;
-7,16505367344587E-5;
-0,000229734724869848;
-0,000309525922591098;
-0,000328384769141079;
-0,000345210646400408;
-0,000401215251920876;
-0,000484913430529768;
-0,000548392241916968;
-0,000556640007652906;
-0,000523722877561072;
-0,000502036542555339;
-0,000532601036632912;
-0,000599692042826837;
-0,000631731841920247;
-0,000552761191940784;
-0,000345879801675285;
-7,7561119321966E-5;
0,00013921978240373;
0,000217463839769878;
0,000150629771833791;
9,54764984964337E-6;
-0,000113206201985598;
-0,000167053335337487;
-0,000167585307483806;
-0,000167561604205676;
-0,000203856623715627;
-0,000266165948093108;
-0,000311620150414157;
-0,000308919980251998;
-0,000270639989210637;
-0,000243567542814562;
-0,000264284814614247;
-0,000318702362104935;
-0,000342926670488808;
-0,000269220293651892;
-8,25427881044926E-5;
0,000157864843919424;
0,000351415805701879;
0,000420741694017201;
0,000360128356531945;
0,000232670987839321;
0,000120735701087902;
6,92989027535348E-5;
6,45333846757805E-5;
5,96346708797241E-5;
2,19387818553371E-5;
-3,9345692730577E-5;
-8,61532083779517E-5;
-9,07101702123354E-5;
-6,4130236196021E-5;
-4,78042725603787E-5;
-7,40506422817634E-5;
-0,00013033639962631;
-0,000160111027452588;
-0,000103487356987995;
5,2809816582234E-5;
0,000256455005203705;
0,00041868461663111;
0,000471303271848128;
0,000409360059344433;
0,000288549365698476;
0,000181485432319246;
0,000127790501827396;
0,000115298180905446;
0,000102846743510369;
6,17470524464203E-5;
1,33101225050538E-7;
-4,85264322741083E-5;
-5,98366168099598E-5;
-4,35543593051577E-5;
-3,5983297381412E-5;
-6,54357626840847E-5;
-0,000120894383380842;
-0,000152804154888797;
-0,000108745227902908;
2,28585636238794E-5;
0,000196196992797657;
0,000333654744963384;
0,000375666756151991;
0,000317957337944764;
0,000209186074019784;
0,000112721804452637;
6,31017912073529E-5;
4,96968159430001E-5;
3,66350120299707E-5;
-1,05946973890864E-6;
-5,62980994419338E-5;
-9,99711538699683E-5;
-0,000110890122697785;
-9,75593315694245E-5;
-9,15226118726888E-5;
-0,000117352638135692;
-0,000165482167714131;
-0,000192948921470384;
-0,000154359860141692;
-3,9744588291635E-5;
0,000111187639352558;
0,000231260512642742;
0,000268978935904239;
0,000220679055710782;
0,000128414491981679;
4,68873339931965E-5;
5,86994026136785E-6;
-3,83377309928057E-6;
-1,31553597809308E-5;
-4,36070607545797E-5;
-8,90830428823623E-5;
-0,000124547104658651;
-0,000131803494191262;
-0,000118186218200209;
-0,000110799097815954;
-0,000130729074524237;
-0,000169760425164972;
-0,000191068903394033;
-0,00015579657969848;
-5,54568793235685E-5;
7,59272224575717E-5;
0,000180894013146398;
0,000215452784339498;
0,000176509329046957;
9,99845562167079E-5;
3,25410087617033E-5;
-4,60730019989289E-7;
-6,87606534215688E-6;
-1,30455933039908E-5;
-3,72630278988716E-5;
-7,4325282782933E-5;
-0,000102959664254468;
-0,000107729967704641;
-9,48754832519186E-5;
-8,73824711868607E-5;
-0,000103106353059324;
-0,000135072963466186;
-0,000152119965989642;
-0,000121412890246852;
-3,58209078543266E-5;
7,58938097568484E-5;
0,000165240859296963;
0,000195155263534742;
0,000163071653761057;
9,92649048921955E-5;
4,30000357941625E-5;
1,55849951182993E-5;
1,0407289910625E-5;
5,35701105193967E-6;
-1,48945182467121E-5;
-4,59692803362343E-5;
-7,00470770858891E-5;
-7,42196362357427E-5;
-6,37146137830568E-5;
-5,77343813616538E-5;
-7,11667731999043E-5;
-9,81739064160538E-5;
-0,000112780141316464;
-8,76648552169872E-5;
-1,69323144394449E-5;
7,54776959059567E-5;
0,000149288212759225;
0,000173769789760784;
0,000146838499094417;
9,36064204135208E-5;
4,65792538736856E-5;
2,33650262616294E-5;
1,84877745675244E-5;
1,36990956463689E-5;
-3,62593661632484E-6;
-2,98635021533726E-5;
-5,0341723173616E-5;
-5,44559228637243E-5;
-4,65122796540112E-5;
-4,22690269166799E-5;
-5,39156648189141E-5;
-7,66512595560743E-5;
-8,92192892688803E-5;
-6,93119138924494E-5;
-1,21548125471323E-5;
6,26930541403835E-5;
0,000122410721672008;
0,000142014932518456;
0,000119853270900807;
7,63509940803666E-5;
3,78832334029475E-5;
1,8703625707888E-5;
1,43641913350882E-5;
1,01104578674039E-5;
-4,23889667809666E-6;
-2,57460788148338E-5;
-4,25892733520722E-5;
-4,62480653897059E-5;
-4,01974999352556E-5;
-3,70870984081509E-5;
-4,66733329392415E-5;
-6,50947493105704E-5;
-7,53549021282774E-5;
-5,96674378922129E-5;
-1,42686151518345E-5;
4,52302069516003E-5;
9,27223954814874E-5;
0,000108395101232319;
9,09803128136979E-5;
5,66836497625553E-5;
2,63655147203977E-5;
1,1263692905849E-5;
7,85332128926561E-6;
4,51668373909934E-6;
-6,73578236322289E-6;
-2,35839467636586E-5;
-3,67637858728688E-5;
-3,96240244807105E-5;
-3,48947906800318E-5;
-3,24410718474336E-5;
-3,98418806546883E-5;
-5,40783200548455E-5;
-6,19665093411878E-5;
-4,97634301828071E-5;
-1,46070876817009E-5;
3,14205442328984E-5;
6,82109756312293E-5;
8,0566992400785E-5;
6,75620454988748E-5;
4,16361665107528E-5;
1,87320312539826E-5;
7,40011935626648E-6;
4,93901631456225E-6;
2,52490009517341E-6;
-5,88101167193052E-6;
-1,8508581203072E-5;
-2,83685243446415E-5;
-3,04703186971946E-5;
-2,68809001511604E-5;
-2,49911323880945E-5;
-3,04467564236402E-5;
-4,09769402411516E-5;
-4,67796033762216E-5;
-3,76955100403327E-5;
-1,16595811040185E-5;
2,23751645107582E-5;
4,96129192717437E-5;
5,89418759446749E-5;
4,97369953435449E-5;
3,11080472206341E-5;
1,46514273810628E-5;
6,54458264368824E-6;
4,81450377218733E-6;
3,1041444881002E-6;
-2,90414529530237E-6;
-1,19253677999667E-5;
-1,89749813153035E-5;
-2,05247063232779E-5;
-1,80562954451549E-5;
-1,67821207805843E-5;
-2,0647016538538E-5;
-2,80383378974177E-5;
-3,21264569838725E-5;
-2,58996973509388E-5;
-7,99100090773252E-6;
1,5394759008432E-5;
3,4123574842689E-5;
4,06659518385256E-5;
3,46604289225447E-5;
2,22988905589001E-5;
1,13723257393192E-5;
5,98210300006469E-6;
4,79302931663712E-6;
3,60485657008229E-6;
-3,96473178136851E-7;
-6,35022840592614E-6;
-1,1022074980745E-5;
-1,21591562817308E-5;
-1,0732320429279E-5;
-1,00549086490596E-5;
-1,25903938531373E-5;
-1,72999952612594E-5;
-1,99413790217742E-5;
-1,62402936793987E-5;
-5,43538944700706E-6;
8,6575474503822E-6;
1,99536128153633E-5;
2,40323672593339E-5;
2,07600913895567E-5;
1,37978937517307E-5;
7,63880280094291E-6;
4,58629991819186E-6;
3,85755147607077E-6;
3,1180748085526E-6;
8,53228157293406E-7;
-2,44370853350252E-6;
-5,05050924135338E-6;
-5,81521676562108E-6;
-5,26762080817328E-6;
-5,08367103567297E-6;
-6,4508807973994E-6;
-8,82562572887965E-6;
-1,01932138474527E-5;
-8,63412624360231E-6;
-3,90692601328546E-6;
2,22639793952674E-6;
7,15849227955435E-6;
9,13681641739994E-6;
8,22212739483175E-6;
5,90541218989282E-6;
3,85419067608863E-6;
2,83288457309995E-6;
2,53144324671099E-6;
2,21052271888176E-6;
1,46521229244759E-6;
4,74240796002559E-7;
-3,3106051978304E-7;
-7,37586043751386E-7;
-8,98879205419816E-7;
-1,09613033336733E-6;
-1,43121177230481E-6;
-1,78250856990849E-6;
-2,02960577500488E-6;
-2,25325316410962E-6;
-2,65251688584049E-6;
-3,24589198691261E-6;
-3,69180529174457E-6;
-3,48262125541693E-6;
-2,39360179104925E-6;
-7,70430420389496E-7;
6,65393215246891E-7;
1,37827500507869E-6;
1,45760673912175E-6;
1,50968952119342E-6;
2,0646384083516E-6;
3,03559978260986E-6;
3,7669822744717E-6;
3,68238882993424E-6;
2,94494037358745E-6;
2,44503696635529E-6;
2,99156869402182E-6;
4,35158891661831E-6;
5,05779939064422E-6;
3,35494148383465E-6;
-1,32362673825673E-6;
-7,53777883234583E-6;
-1,24820802705096E-5;
-1,37626115240487E-5;
-1,1018452602011E-5;
-6,12617102793087E-6;
-1,79626355763236E-6;
3,54628161894981E-7;
7,482399965287E-7;
1,10827584528637E-6;
2,74016034600902E-6;
5,33634057824926E-6;
7,34082117391011E-6;
7,52418626662668E-6;
6,31180778499218E-6;
5,56195522974511E-6;
6,8347353526724E-6;
9,60425352551887E-6;
1,10951103488206E-5;
8,17447873892932E-6;
-2,54638698867572E-8;
-1,08655232924835E-5;
-1,95180775769763E-5;
-2,20432053617E-5;
-1,79690751043236E-5;
-1,0425042308436E-5;
-3,74698879114019E-6;
-4,33664247874452E-7;
2,08028297000629E-7;
8,11948716272503E-7;
3,31390430561239E-6;
7,22638170249734E-6;
1,02621102567634E-5;
1,06623356896347E-5;
9,0653199223387E-6;
8,1126368407719E-6;
9,97114943891538E-6;
1,38777907118094E-5;
1,60020196298381E-5;
1,21019177150113E-5;
1,06842225900301E-6;
-1,34948193666767E-5;
-2,51370233837471E-5;
-2,86795452386625E-5;
-2,35624776144932E-5;
-1,391712827262E-5;
-5,37691470278103E-6;
-1,14342721357943E-6;
-3,0719476603225E-7;
4,89131065925394E-7;
3,68125894258716E-6;
8,63837835281817E-6;
1,24940754792616E-5;
1,30714278437554E-5;
1,11771718566181E-5;
1,00703327044493E-5;
1,23947857735224E-5;
1,72003714865758E-5;
1,98284022799604E-5;
1,51686742808808E-5;
1,92458120520762E-6;
-1,55461109556729E-5;
-2,95269746251698E-5;
-3,38758565904054E-5;
-2,79652548988834E-5;
-1,67040216262851E-5;
-6,72992991113986E-6;
-1,78717132488891E-6;
-7,99040040488954E-7;
1,48574866754228E-7;
3,87481043874833E-6;
9,63830768632837E-6;
1,41292299390861E-5;
1,48516077556363E-5;
1,2741056772594E-5;
1,15262837592914E-5;
1,42126451760549E-5;
1,97074985407154E-5;
2,27260205603467E-5;
1,75039133470009E-5;
2,60475636079544E-6;
-1,70464906409293E-5;
-3,27853483381556E-5;
-3,77505361267201E-5;
-3,12651566106126E-5;
-1,88165710209092E-5;
-7,78696859062506E-6;
-2,32112165834297E-6;
-1,21860684620225E-6;
-1,56146662125729E-7;
3,96578377810443E-6;
1,03242764182335E-5;
1,52861102333549E-5;
1,61238979618985E-5;
1,38671480543672E-5;
1,25837687672096E-5;
1,55386505440738E-5;
2,15360629402986E-5;
2,48432255487771E-5;
1,92305705906287E-5;
3,16393885489352E-6;
-1,80291379174167E-5;
-3,50157003320879E-5;
-4,04303719586264E-5;
-3,3562907181677E-5;
-2,03042607904225E-5;
-8,55268451083214E-6;
-2,72881923877109E-6;
-1,54668645304935E-6;
-4,03289968957644E-7;
3,99095721579176E-6;
1,07570564411418E-5;
1,60435735586139E-5;
1,6968425070365E-5;
1,46244108433495E-5;
1,33045169530148E-5;
1,64440514942338E-5;
2,27786442256436E-5;
2,62832104074842E-5;
2,04277836451889E-5;
3,61718529830123E-6;
-1,8562043991012E-5;
-3,63521666071221E-5;
-4,20710928139551E-5;
-3,49892508458764E-5;
-2,12490049723109E-5;
-9,06606917454324E-6;
-3,02852777433021E-6;
-1,79799551520307E-6;
-6,04150663803285E-7;
3,95429923537973E-6;
1,0964359785778E-5;
1,64475817266362E-5;
1,74336881503327E-5;
1,50522508547631E-5;
1,37225437796439E-5;
1,6973211964596E-5;
2,35010492971313E-5;
2,71232051328722E-5;
2,11517353164062E-5;
3,96215740404167E-6;
-1,87238351972548E-5;
-3,69338982334332E-5;
-4,28307523820446E-5;
-3,56776316588795E-5;
-2,17373771632268E-5;
-9,37234011578121E-6;
-3,24483828278454E-6;
-1,99254394863766E-6;
-7,74288874144941E-7;
3,85568852667591E-6;
1,09693710099937E-5;
1,65394777837452E-5;
1,75644965110811E-5;
1,51880796451847E-5;
1,38712722325253E-5;
1,71701366490961E-5;
2,37681149144535E-5;
2,7439515482545E-5;
2,14599904868298E-5;
4,20282278758246E-6;
-1,85807182388976E-5;
-3,6882730458648E-5;
-4,28482948196824E-5;
-3,57438387788817E-5;
-2,18414154473721E-5;
-9,50492384101523E-6;
-3,39178136558813E-6;
-2,13984433530779E-6;
-9,18875575047097E-7;
3,70442184737608E-6;
1,08030849283859E-5;
1,63671570097756E-5;
1,74120580946784E-5;
1,50763431643984E-5;
1,37914715727133E-5;
1,70853277433896E-5;
2,3649501462139E-5;
2,73122943070904E-5;
2,14153267909027E-5;
4,35243484715948E-6;
-1,81842751426067E-5;
-3,63017518337609E-5;
-4,22429296331696E-5;
-3,52861975521315E-5;
-2,16196396015222E-5;
-9,48724381315611E-6;
-3,47531832619061E-6;
-2,24205615729101E-6;
-1,03643011391045E-6;
3,51490074051312E-6;
1,04994563861721E-5;
1,59797345785801E-5;
1,7028190396113E-5;
1,47623381105345E-5;
1,35247482408009E-5;
1,67689648281034E-5;
2,32125842426455E-5;
2,68181980291539E-5;
2,10782075378845E-5;
4,42588188219219E-6;
-1,75791989372296E-5;
-3,52830921544495E-5;
-4,11219390913532E-5;
-3,43933798258925E-5;
-2,11248249013916E-5;
-9,34043566527659E-6;
-3,50098566238093E-6;
-2,30152938961538E-6;
-1,12624017472981E-6;
3,29936600889294E-6;
1,00883046955832E-5;
1,54206358143107E-5;
1,64586278633466E-5;
1,4285735733272E-5;
1,31072895293963E-5;
1,62649072175008E-5;
2,25167309295339E-5;
2,60249333207269E-5;
2,05015908262958E-5;
4,43473716592316E-6;
-1,68080045975373E-5;
-3,39123769377151E-5;
-3,95848379583274E-5;
-3,31482181921838E-5;
-2,04074640560813E-5;
-9,08646443713241E-6;
-3,47668003845205E-6;
-2,32328587249643E-6;
-1,19054732366136E-6;
3,06601201091799E-6;
9,59373484463348E-6;
1,47263124938975E-5;
1,57419913407573E-5;
1,36797947016127E-5;
1,25693229356606E-5;
1,56103886444914E-5;
2,16132508309097E-5;
2,49914503418443E-5;
1,97312953204385E-5;
4,38771853351356E-6;
-1,59105216211056E-5;
-3,2268136968925E-5;
-3,77226374997143E-5;
-3,16267692510481E-5;
-1,95145814346764E-5;
-8,74671737377776E-6;
-3,41109371723947E-6;
-2,31333721566131E-6;
-1,23276900538868E-6;
2,82087700308632E-6;
9,03615510652139E-6;
1,39283588318917E-5;
1,49119625628464E-5;
1,29735452661368E-5;
1,19373032919602E-5;
1,4838261344311E-5;
2,05477013062353E-5;
2,37702606725121E-5;
1,88082504782546E-5;
4,29278782679749E-6;
-1,49219880116466E-5;
-3,04200870787939E-5;
-3,56161971554733E-5;
-2,98966115197891E-5;
-1,84879451107657E-5;
-8,34015078723666E-6;
-3,31186314192271E-6;
-2,27689316524777E-6;
-1,2557529949333E-6;
2,56956979615768E-6;
8,43398724382059E-6;
1,30551854183966E-5;
1,39988786204817E-5;
1,21932797408828E-5;
1,1235311771147E-5;
1,39783336814949E-5;
1,93611962632144E-5;
2,24086966451727E-5;
1,77696131371699E-5;
4,15799706213878E-6;
-1,38725273714706E-5;
-2,84288443576775E-5;
-3,33360654449527E-5;
-2,80166872022966E-5;
-1,73638264670356E-5;
-7,88299074009766E-6;
-3,18526721135652E-6;
-2,21810336672951E-6;
-1,26158012282687E-6;
2,31744143652571E-6;
7,80385113706163E-6;
1,21322118822761E-5;
1,30298810859946E-5;
1,13626109742947E-5;
1,04850364853754E-5;
1,30573294579015E-5;
1,80903935724483E-5;
2,09488930876478E-5;
1,66486247959731E-5;
3,99111265285375E-6;
-1,27878214532458E-5;
-2,63468552954042E-5;
-3,0943488345075E-5;
-2,60382289625494E-5;
-1,6173762953641E-5;
-7,38934291436351E-6;
-3,03678012560801E-6;
-2,14061550498076E-6;
-1,25211498993044E-6;
2,06908631910575E-6;
7,16015296711763E-6;
1,11815111279236E-5;
1,20285543573294E-5;
1,05020803596429E-5;
9,70537087197657E-6;
1,20985349108213E-5;
1,67672213762852E-5;
1,94275619701976E-5;
1,54743205455052E-5;
3,79909795002039E-6;
-1,16898983586565E-5;
-2,42193848933642E-5;
-2,84914522532654E-5;
-2,40056647584436E-5;
-1,49452525886965E-5;
-6,871713226727E-6;
-2,87148224308972E-6;
-2,04794449163535E-6;
-1,22933559217036E-6;
1,82809869190909E-6;
6,51495093260322E-6;
1,02217692391407E-5;
1,10149251583059E-5;
9,62913661212976E-6;
8,91238109109173E-6;
1,1121823840167E-5;
1,54190154303008E-5;
1,78761917594725E-5;
1,4271653007743E-5;
3,58803351505382E-6;
-1,05975073775222E-5;
-2,20851203761374E-5;
-2,60253267009131E-5;
-2,19571482244011E-5;
-1,37020629780775E-5;
-6,34110788496421E-6;
-2,69405928111015E-6;
-1,94343735468712E-6;
-1,19526936032531E-6;
1,5972075217817E-6;
5,87819501983194E-6;
9,26861051418473E-6;
1,00058094482446E-5;
8,75845650110989E-6;
8,11961675129245E-6;
1,01440190815489E-5;
1,40689641254776E-5;
1,63215375094466E-5;
1,30619078022557E-5;
3,36328048719714E-6;
-9,52627413651205E-6;
-1,99765588587538E-5;
-2,35833253523901E-5;
-1,99248966600331E-5;
-1,2464359220483E-5;
-5,80699561169874E-6;
-2,50867627563218E-6;
-1,830128167178E-6;
-1,15183668976764E-6;
1,37850366705493E-6;
5,25806603456421E-6;
8,33500037575514E-6;
9,01520736163295E-6;
7,90230112892422E-6;
7,33843873580903E-6;
9,17925380092261E-6;
1,27365646284944E-5;
1,4786124628167E-5;
1,18630936989222E-5;
3,12962220366596E-6;
-8,4888697260393E-6;
-1,79204527196357E-5;
-2,11970365346719E-5;
-1,79356115275855E-5;
-1,12489269355751E-5;
-5,27734021008107E-6;
-2,31892519472978E-6;
-1,71067897181909E-6;
-1,10076580457023E-6;
1,17357430462639E-6;
4,66117803926722E-6;
7,43153396796252E-6;
8,05461166360102E-6;
7,07076727810288E-6;
6,57824515847274E-6;
8,23923752330529E-6;
1,14379530660959E-5;
1,32886138615792E-5;
1,06902336337201E-5;
2,89130093708393E-6;
-7,495323340035E-6;
-1,59383646010698E-5;
-1,8892042919272E-5;
-1,6010995086619E-5;
-1,00694864610285E-5;
-4,758750603089E-6;
-2,12788512761636E-6;
-1,58741747308118E-6;
-1,04363564971181E-6;
9,83531100680458E-7;
4,0927267606294E-6;
6,5666382770504E-6;
7,13320698826112E-6;
6,27196395916208E-6;
5,84661811368312E-6;
7,33344099299865E-6;
1,0186194508464E-5;
1,18441397852028E-5;
9,55558889996316E-6;
2,65199700831054E-6;
-6,55333259100015E-6;
-1,40472336485949E-5;
-1,66885719825892E-5;
-1,41682898322335E-5;
-8,93702928007424E-6;
-4,25663418529282E-6;
-1,93819783559851E-6;
-1,46239342998803E-6;
-9,81899549421735E-7;
8,0904282588363E-7;
3,55660762211403E-6;
5,74678119074337E-6;
6,25809802498394E-6;
5,51219218033849E-6;
5,14948732672234E-6;
6,46930332027248E-6;
8,99156131749078E-6;
1,04646296882688E-5;
8,46891331243592E-6;
2,41485506814135E-6;
-5,66855539744616E-6;
-1,22598985699677E-5;
-1,46020835753288E-5;
-1,24207608954576E-5;
-7,86011077605756E-6;
-3,77532366392589E-6;
-1,75210348556831E-6;
-1,33740374121907E-6;
-9,16891670347636E-7;
6,50399726803113E-7;
3,0555691077794E-6;
4,97668289993595E-6;
5,43452976340811E-6;
4,79614491339581E-6;
4,49130643797018E-6;
5,65244870211402E-6;
7,86184291539801E-6;
9,15915964435248E-6;
7,43772504637503E-6;
2,18252491515398E-6;
-4,84486142130747E-6;
-1,05855794892534E-5;
-1,26438253806063E-5;
-1,07781562734676E-5;
-6,84512063663247E-6;
-3,31818661632995E-6;
-1,57146627793482E-6;
-1,21398760780228E-6;
-8,49821704172621E-7;
5,07567053817394E-7;
2,59136909489358E-6;
4,25955495419772E-6;
4,66613326548111E-6;
4,12710806064717E-6;
3,87524632959574E-6;
4,88691560558026E-6;
6,80264359808017E-6;
7,9342953065875E-6;
6,46755822204265E-6;
1,9572056502986E-6;
-4,08455691667747E-6;
-9,03033001865376E-6;
-1,08213400662953E-5;
-9,24712041663401E-6;
-5,89653480606898E-6;
-2,88771491859896E-6;
-1,39779928681172E-6;
-1,09345024925302E-6;
-7,81758719261739E-7;
3,80266978457987E-7;
2,16492220254045E-6;
3,59729601830808E-6;
3,9551397409332E-6;
3,50715356261696E-6;
3,30335378563217E-6;
4,17535742579623E-6;
5,81766312899784E-6;
6,79440021987802E-6;
5,56221391654404E-6;
1,74069359870127E-6;
-3,38860685686127E-6;
-7,59745905971901E-6;
-9,13896815980338E-6;
-7,83160461328399E-6;
-5,01715000446416E-6;
-2,48563719883246E-6;
-1,2322959603427E-6;
-9,76868044536091E-7;
-7,13648947309414E-7;
2,68005340906355E-7;
1,77642354563941E-6;
2,99068834900496E-6;
3,30257681285897E-6;
2,93730163177451E-6;
2,77671071300558E-6;
3,51922553769389E-6;
4,90894788183959E-6;
5,74194077177093E-6;
4,72398088712483E-6;
1,53440816576192E-6;
-2,75684748889406E-6;
-6,28793449609844E-6;
-7,59829888111083E-6;
-6,53325147719055E-6;
-4,20832482025881E-6;
-2,11301172302803E-6;
-1,07586638668094E-6;
-8,65114860194756E-7;
-6,46309730435166E-7;
1,70128242639267E-7;
1,42546225510298E-6;
2,43955866139817E-6;
2,70844634304689E-6;
2,4176771525822E-6;
2,29556973309133E-6;
2,91894340296727E-6;
4,07712284725232E-6;
4,77774084520428E-6;
3,95384476334336E-6;
1,33943658249614E-6;
-2,18817250018006E-6;
-5,10076009995442E-6;
-6,19860586196535E-6;
-5,35174513329866E-6;
-3,47019516238669E-6;
-1,77032183650244E-6;
-9,29166456819947E-7;
-7,5888236652802E-7;
-5,80445335072981E-7;
8,58478562271844E-8;
1,11112574173628E-6;
1,9429437925409E-6;
2,17189249892464E-6;
1,94765005596971E-6;
1,85948234424319E-6;
2,37406353106163E-6;
3,32161878103021E-6;
3,90124070708674E-6;
3,2516761179359E-6;
1,15656124843723E-6;
-1,68070988063249E-6;
-4,03330549386783E-6;
-4,93723105451515E-6;
-4,28513570665978E-6;
-2,80186491093741E-6;
-1,45756207318597E-6;
-7,9262750013712E-7;
-6,58692769093853E-7;
-5,16652131632865E-7;
1,42851826472668E-8;
8,32098804122471E-7;
1,49922630489778E-6;
1,69135479046306E-6;
1,52597315053288E-6;
1,46742527485984E-6;
1,88342390869346E-6;
2,6408726719997E-6;
3,11072949835587E-6;
2,6164203724899E-6;
9,8629902001107E-7;
-1,23197450567513E-6;
-3,08161700192164E-6;
-3,80994166910177E-6;
-3,33013537841239E-6;
-2,20159006023072E-6;
-1,17431164981107E-6;
-6,66489896580658E-7;
-5,64921770136401E-7;
-4,55416483645522E-7;
-4,55023879099896E-8;
5,86751244586885E-7;
1,10628151597767E-6;
1,26470984051797E-6;
1,15089800480518E-6;
1,1179030038004E-6;
1,44526415973968E-6;
2,03250309532831E-6;
2,4035520797192E-6;
2,04625573150159E-6;
8,2893234114519E-7;
-8,39009388103209E-7;
-2,24068811278602E-6;
-2,81124401946049E-6;
-2,48237704972695E-6;
-1,66693397887483E-6;
-9,19808648799209E-7;
-5,50819141207707E-7;
-4,77810192031281E-7;
-3,97135661714895E-7;
-9,44938970978195E-8;
3,73213183219941E-7;
7,61574450391578E-7;
8,89386773189956E-7;
8,20281876956506E-7;
8,09051931219763E-7;
1,05736593947693E-6;
1,49348781789072E-6;
1,77630161119736E-6;
1,53873857829584E-6;
6,84537091797081E-7;
-4,98504758355298E-7;
-1,50470929815179E-6;
-1,93467300643626E-6;
-1,73665701015929E-6;
-1,19492248849567E-6;
-6,93017067194519E-7;
-4,45536170123522E-7;
-3,97478023955198E-7;
-3,42114236280117E-7;
-1,33682038812128E-7;
1,89446596915281E-7;
4,62278752305448E-7;
5,62489437015156E-7;
5,31688367846787E-7;
5,38722633235439E-7;
7,17146048298185E-7;
1,02030291138446E-6;
1,22498697661045E-6;
1,09094318395287E-6;
5,53018906600204E-7;
-2,06909871405426E-7;
-8,67284084320436E-7;
-1,17304337690127E-6;
-1,08714568395014E-6;
-7,82162795069535E-7;
-4,92675760730246E-7;
-3,50440385228015E-7;
-3,23948497408916E-7;
-2,90576164056961E-7;
-1,64055915404172E-7;
3,32943194337643E-8;
2,05357954469136E-7;
2,80881741764244E-7;
2,82461102175635E-7;
3,04559811394482E-7;
4,21758005379057E-7;
6,09053751632666E-7;
7,45184457079998E-7;
6,99576959419105E-7;
4,34133200903509E-7;
3,94793257448889E-8;
-3,21612916888423E-7;
-5,18670737999838E-7;
-5,27575416159141E-7;
-4,24969244135845E-7;
-3,17360960985034E-7;
-2,6522929519805E-7;
-2,57153273011776E-7;
-2,426758952284E-7;
-1,86585863559369E-7;
-9,74539858179998E-8;
-1,23502005467507E-8;
4,12792610039112E-8;
6,98069032729893E-8;
1,0406640134673E-7;
1,68173109568434E-7;
2,55593289967171E-7;
3,32169875334952E-7;
3,61084518289352E-7;
3,27510753560719E-7;
2,44431090709264E-7;
1,39330608117541E-7;
3,64359703877344E-8;
-5,13950938947937E-8;
-1,19460394687535E-7;
-1,65528878410208E-7;
-1,89517711009708E-7;
-1,96951147541796E-7;
-1,9849706891509E-7;
-2,02206605672923E-7;
-2,05031485921526E-7;
-1,94071272059155E-7;
-1,59683246387257E-7;
-1,09146146871791E-7;
-6,53323387993257E-8;
-4,67424188837869E-8;
-4,43763385752348E-8;
-1,89679769831486E-8;
7,1736501469417E-8;
2,32683620825491E-7;
4,11716658907372E-7;
5,22667106495609E-7;
5,00404767426149E-7;
3,48082785918144E-7;
1,3836203792683E-7;
-3,55532601933129E-8;
-1,22854037131404E-7;
-1,43136303805984E-7;
-1,58071866535289E-7;
-2,11815388861162E-7;
-2,91649008292468E-7;
-3,43029534420836E-7;
-3,25384490016052E-7;
-2,57289198656589E-7;
-2,06243576732505E-7;
-2,26173817400981E-7;
-2,95224974298876E-7;
-3,13223186026891E-7;
-1,72280212843082E-7;
1,49102159449868E-7;
5,45049471630099E-7;
8,35488913538901E-7;
8,8136197502226E-7;
6,77562525557834E-7;
3,52521427778384E-7;
7,42363527533896E-8;
-6,47372095862829E-8;
-9,54561750113241E-8;
-1,21377625657034E-7;
-2,16253653086503E-7;
-3,59469161148722E-7;
-4,62407657986289E-7;
-4,59166478061319E-7;
-3,77490489648506E-7;
-3,21262191204872E-7;
-3,73295289725722E-7;
-5,01313155056003E-7;
-5,55593970174055E-7;
-3,7480811290708E-7;
7,6157356746306E-8;
6,48040942279787E-7;
1,08476144351007E-6;
1,18731734321095E-6;
9,4367305943642E-7;
5,27020941928534E-7;
1,65521395197083E-7;
-1,46332881198254E-8;
-5,36144043896893E-8;
-8,83505263179031E-8;
-2,16311153380231E-7;
-4,10581853353249E-7;
-5,55299443590599E-7;
-5,64295158633978E-7;
-4,72563417381025E-7;
-4,12933338109E-7;
-4,91231434358818E-7;
-6,6693692338105E-7;
-7,51004300608322E-7;
-5,3965563383179E-7;
1,3192172166668E-8;
7,24163559805429E-7;
1,27723988343311E-6;
1,4260612106338E-6;
1,15287742376301E-6;
6,65780209609776E-7;
2,39979898616239E-7;
2,80203528979287E-8;
-1,72873175270339E-8;
-5,88915022608689E-8;
-2,12716850656739E-7;
-4,4698201676627E-7;
-6,24685832682596E-7;
-6,43918696034807E-7;
-5,45219928892384E-7;
-4,83727292775471E-7;
-5,83018032737977E-7;
-7,96274898575533E-7;
-9,04255548008979E-7;
-6,70544036509221E-7;
-4,04761127685446E-8;
7,76715743050607E-7;
1,41940687660995E-6;
1,60509024225324E-6;
1,31140630977087E-6;
7,72594420376636E-7;
2,99249655838338E-7;
6,37926702005143E-8;
1,38760680484854E-8;
-3,28665987042917E-8;
-2,06139659773021E-7;
-4,70555595726912E-7;
-6,7340143694442E-7;
-7,0104659840439E-7;
-5,98061571914377E-7;
-5,36014793194736E-7;
-6,51575088049315E-7;
-8,93346305004829E-7;
-1,01996925735369E-6;
-7,71078012533826E-7;
-8,55493022689471E-8;
8,08811057809204E-7;
1,51742368915919E-6;
1,73154894221537E-6;
1,42521627084621E-6;
8,5110474744538E-7;
3,44923608989514E-7;
9,32632868954888E-8;
4,02384096322897E-8;
-1,01222808105248E-8;
-1,97185520135512E-7;
-4,83072855681338E-7;
-7,04125630066697E-7;
-7,38523190720552E-7;
-6,33552184642676E-7;
-5,72050779560375E-7;
-6,99681226905197E-7;
-9,61980605334531E-7;
-1,10255645378736E-6;
-8,44709695489042E-7;
-1,22734088112165E-7;
8,23351617463799E-7;
1,57708318507258E-6;
1,81217624756734E-6;
1,49993402705084E-6;
9,04762085057249E-7;
3,78527452355927E-7;
1,16998657026876E-7;
6,21678954130837E-8;
9,51897180954811E-9;
-1,8639940530581E-7;
-4,86176708868233E-7;
-7,19359906272002E-7;
-7,59017806674565E-7;
-6,54005194924725E-7;
-5,93952560471823E-7;
-7,2995924356985E-7;
-1,00579518558629E-6;
-1,15618467392388E-6;
-8,94714639704179E-7;
-1,5273439452255E-7;
8,23025714247011E-7;
1,60379965035304E-6;
1,85327987918271E-6;
1,54083774673307E-6;
9,36820619349936E-7;
4,01515717823402E-7;
1,35563071208895E-7;
8,00383976385323E-8;
2,62464147704467E-8;
-1,74261904988744E-7;
-4,8138079963052E-7;
-7,21424864800334E-7;
-7,65008741464595E-7;
-6,61577959714513E-7;
-6,03700786385349E-7;
-7,44863808572152E-7;
-1,0281788342844E-6;
-1,18476043272222E-6;
-9,24173965418879E-7;
-1,76238981504996E-7;
8,10301585978413E-7;
1,60257813428372E-6;
1,86071233607279E-6;
1,55283625321363E-6;
9,50312942021905E-7;
4,15254684864809E-7;
1,49494860477408E-7;
9,42200472490644E-8;
4,02589638927516E-8;
-1,61203867330583E-7;
-4,70066698569649E-7;
-7,12456822604344E-7;
-7,58785842991831E-7;
-6,58263389334834E-7;
-6,03133363335406E-7;
-7,46669241022711E-7;
-1,03227410137765E-6;
-1,1919200599893E-6;
-9,3596576563382E-7;
-1,939191668468E-7;
7,87424058658959E-7;
1,57801609658946E-6;
1,83986239309538E-6;
1,5404570534501E-6;
9,48046412499949E-7;
4,21025138888759E-7;
1,59318096774097E-7;
1,05076690478065E-7;
5,17666006148719E-8;
-1,47591703198303E-7;
-4,53487592000085E-7;
-6,94400625842178E-7;
-7,4243762612266E-7;
-6,45884787147824E-7;
-5,93931159906695E-7;
-7,37470477839121E-7;
-1,0209776776162E-6;
-1,18101254369763E-6;
-9,32752381282797E-7;
-2,06419022862121E-7;
7,56421528784443E-7;
1,53430115975897E-6;
1,7956473744173E-6;
1,50784182700073E-6;
9,32602411102941E-7;
4,20013176960638E-7;
1,65528347071908E-7;
1,12959652571597E-7;
6,09754177125518E-8;
-1,33744175249124E-7;
-4,32767319359238E-7;
-6,69019478734608E-7;
-7,17863027499622E-7;
-6,26103410001052E-7;
-5,77633949241202E-7;
-7,19184367466381E-7;
-9,96938646005335E-7;
-1,15510349898001E-6;
-9,16981871972433E-7;
-2,14354782268195E-7;
7,19107673919563E-7;
1,47521169522026E-6;
1,73252552754729E-6;
1,45875391835386E-6;
9,06331006851059E-7;
4,13312018986547E-7;
1,68592192782065E-7;
1,18207636669348E-7;
6,80957084070525E-8;
-1,19932537570911E-7;
-4,08905257567439E-7;
-6,37891717332584E-7;
-6,86770739296673E-7;
-6,00416091204203E-7;
-5,55630481537941E-7;
-6,93542790332998E-7;
-9,62560765602885E-7;
-1,11698168785568E-6;
-8,90883121070351E-7;
-2,18311056621743E-7;
6,77091168868802E-7;
1,40413853991291E-6;
1,6544985910351E-6;
1,39658002831937E-6;
8,71356180239146E-7;
4,01919195440831E-7;
1,68952172801077E-7;
1,21141722150926E-7;
7,33330001847967E-8;
-1,06376900440371E-7;
-3,82786123814668E-7;
-6,02425023840727E-7;
-6,50682651413592E-7;
-5,70161076047862E-7;
-5,29164928305291E-7;
-6,62105400582708E-7;
-9,20003728548794E-7;
-1,06915456366994E-6;
-8,5647836505321E-7;
-2,18829302228566E-7;
6,31787899776633E-7;
1,32408529501029E-6;
1,56513635201659E-6;
1,32434678801069E-6;
8,29586958818092E-7;
3,86740484574835E-7;
1,67012489471998E-7;
1,22070583027798E-7;
7,68899658525617E-8;
-9,32636151912312E-8;
-3,55179380311349E-7;
-5,63858268871167E-7;
-6,10949411129597E-7;
-5,36525709513678E-7;
-4,9934574778785E-7;
-6,26261908406327E-7;
-8,71198548484925E-7;
-1,01386560951097E-6;
-8,15576323930418E-7;
-2,16423628896101E-7;
5,84425916116793E-7;
1,23770354991253E-6;
1,46758691116571E-6;
1,24473262644397E-6;
7,8271654804413E-7;
3,68588811399892E-7;
1,63150878093265E-7;
1,21273490895885E-7;
7,89578165884324E-8;
-8,0735418332222E-8;
-3,26749868256227E-7;
-5,23270997125445E-7;
-5,68749828069561E-7;
-5,00551087591193E-7;
-4,6714893312311E-7;
-5,87238948850918E-7;
-8,17847499327625E-7;
-9,53101955322788E-7;
-7,6979192331189E-7;
-2,11561808946341E-7;
5,36061631196276E-7;
1,14729703872865E-6;
1,36460656232235E-6;
1,16008597405545E-6;
7,32239738454632E-7;
3,48189423110567E-7;
1,57712215216566E-7;
1,19024772570676E-7;
7,97241964889424E-8;
-6,89049832197984E-8;
-2,980648450875E-7;
-4,8159815966537E-7;
-5,25105172261244E-7;
-4,63143832576857E-7;
-4,33428173029271E-7;
-5,46111618843496E-7;
-7,61450190899534E-7;
-8,88609951902543E-7;
-7,20548224052209E-7;
-2,04677912340718E-7;
4,8759286097317E-7;
1,05485373080677E-6;
1,25857945229629E-6;
1,07244975355945E-6;
6,79459833321357E-7;
3,26183154485444E-7;
1,51008520491191E-7;
1,15563200222875E-7;
7,93644493834575E-8;
-5,78531868821387E-8;
-2,69604351589598E-7;
-4,39635663142332E-7;
-4,80896095451178E-7;
-4,25085505733553E-7;
-3,9891752459343E-7;
-5,0381129801769E-7;
-7,03302084759661E-7;
-8,21902947762021E-7;
-6,69089329339247E-7;
-1,96165898539547E-7;
4,3976970926204E-7;
9,62064927687539E-7;
1,15154576203093E-6;
9,83574892270505E-7;
6,25503752089132E-7;
3,03133662543861E-7;
1,43322077830007E-7;
1,11116844182346E-7;
7,80458888326791E-8;
-4,76360918621903E-8;
-2,41762317131094E-7;
-3,98051883967675E-7;
-4,36862078365833E-7;
-3,87035579996639E-7;
-3,6424435449328E-7;
-4,61133729587241E-7;
-6,4451526037132E-7;
-7,54285375297384E-7;
-6,16490119569743E-7;
-1,86380427691832E-7;
3,93208866755593E-7;
8,7034954466885E-7;
1,04522517059359E-6;
8,94946712639049E-7;
5,71332397166687E-7;
2,79526809374502E-7;
1,34904133145653E-7;
1,05887378170547E-7;
7,59209217021194E-8;
-3,82853271650205E-8;
-2,14858587677514E-7;
-3,5740300342882E-7;
-3,93622455991953E-7;
-3,49548048074327E-7;
-3,29937605531696E-7;
-4,18752638745412E-7;
-5,86032637206418E-7;
-6,86863990692836E-7;
-5,63670239029319E-7;
-1,75642070489637E-7;
3,48404444463778E-7;
7,80880909730902E-7;
9,41050114697836E-7;
8,07804122709875E-7;
5,17752677427636E-7;
2,55779251039402E-7;
1,25979828944524E-7;
1,00060958246441E-7;
7,31324421263139E-8;
-2,98143599387286E-8;
-1,89147161927298E-7;
-3,18136321382955E-7;
-3,51681214745803E-7;
-3,13079011159758E-7;
-2,96432611513685E-7;
-3,77226730413743E-7;
-5,28638963674252E-7;
-6,20564090954766E-7;
-5,11405589826984E-7;
-1,64231761957519E-7;
3,05744716290364E-7;
6,94603920989055E-7;
8,40184877298154E-7;
7,23164659208709E-7;
4,65438907826774E-7;
2,32246815733887E-7;
1,16743321529138E-7;
9,38023126294067E-8;
6,98120997457466E-8;
-2,22185120180199E-8;
-1,64818643209201E-7;
-2,80607155549854E-7;
-3,11442045563083E-7;
-2,77992779209347E-7;
-2,64084665130796E-7;
-3,37015145018109E-7;
-4,72977104923557E-7;
-5,56145224433649E-7;
-4,60341492500781E-7;
-1,52401014634347E-7;
2,65519842933821E-7;
6,1226109713815E-7;
7,43556457460536E-7;
6,41843374661895E-7;
4,14927840289307E-7;
2,09219717450914E-7;
1,07367131539347E-7;
8,72580285821456E-8;
6,60784436328096E-8;
-1,54832786654326E-8;
-1,42016248849012E-7;
-2,4508496371526E-7;
-2,73215875294936E-7;
-2,44576773822832E-7;
-2,33173580168007E-7;
-2,98479916533401E-7;
-4,19561213545282E-7;
-4,94217111071021E-7;
-4,10998153124731E-7;
-1,40367696142469E-7;
2,27933147496159E-7;
5,34418829247449E-7;
6,51880973410294E-7;
5,64476274544181E-7;
3,66654621971364E-7;
1,86941326371975E-7;
9,79958760931543E-8;
8,05536030326443E-8;
6,20386786104844E-8;
-9,57484072923346E-9;
-1,20831410072599E-7;
-2,11769336614415E-7;
-2,37235783937457E-7;
-2,13044753275549E-7;
-2,03912877473734E-7;
-2,6190442366997E-7;
-3,68791523395241E-7;
-4,3525896101223E-7;
-3,63794145150958E-7;
-1,28319503170163E-7;
1,93118325801075E-7;
4,61483546330305E-7;
5,65681415576286E-7;
4,91535878083438E-7;
3,20944003672001E-7;
1,65601581365569E-7;
8,87551430148584E-8;
7,38018268792756E-8;
5,77898893586018E-8;
-4,45977283587244E-9;
-1,01318642357453E-7;
-1,80788310804136E-7;
-2,03662632977989E-7;
-1,83550685225053E-7;
-1,76458059294385E-7;
-2,27493899458637E-7;
-3,20964024301822E-7;
-3,79627972198987E-7;
-3,19046168071627E-7;
-1,16415087659905E-7;
1,61142622358106E-7;
3,9372205529194E-7;
4,85320320161696E-7;
4,23358364604584E-7;
2,78037556488051E-7;
1,45347820689721E-7;
7,97465076258369E-8;
6,70990489183811E-8;
5,34153312671422E-8;
-9,3223604821217E-11;
-8,34968678532467E-8;
-1,52219511621255E-7;
-1,72596392977035E-7;
-1,56191140801363E-7;
-1,50911312307134E-7;
-1,95392811722212E-7;
-2,76284880146802E-7;
-3,27576542830827E-7;
-2,76991575097559E-7;
-1,0478878971674E-7;
1,32020628503229E-7;
3,31279655473766E-7;
4,11011061117445E-7;
3,60151270399903E-7;
2,38093873727149E-7;
1,26291617275385E-7;
7,10550003103528E-8;
6,05233012007071E-8;
4,89913680912299E-8;
3,57678695490492E-9;
-6,73582095788741E-8;
-1,26089017492688E-7;
-1,44079229386013E-7;
-1,31017870855131E-7;
-1,2733346855235E-7;
-1,65686019231279E-7;
-2,34884130341082E-7;
-2,79267140479424E-7;
-2,37786448515631E-7;
-9,3550448124643E-8;
1,05721212113004E-7;
2,74205537999417E-7;
3,42851038532531E-7;
3,0202147751131E-7;
2,01204467162002E-7;
1,08507702472178E-7;
6,27490763013261E-8;
5,41425839992893E-8;
4,45808881444624E-8;
6,6000228207403E-9;
-5,28679828161125E-8;
-1,02383941198822E-7;
-1,18116666500283E-7;
-1,08041008955749E-7;
-1,05746420222342E-7;
-1,38415284286422E-7;
-1,96823133358816E-7;
-2,34782796667067E-7;
-2,01525149639418E-7;
-8,2790243616226E-8;
8,21719533701127E-8;
2,2245613206014E-7;
2,80825869657138E-7;
2,48981248580687E-7;
1,67402493315963E-7;
9,20398757538646E-8;
5,48799990327347E-8;
4,80116078169234E-8;
4,02388478929412E-8;
9,03365945566601E-9;
-3,99731491838121E-8;
-8,10563857561613E-8;
-9,46686914025449E-8;
-8,7237895442947E-8;
-8,61368207890672E-8;
-1,13573416377593E-7;
-1,62105391573879E-7;
-1,94137355507488E-7;
-1,68244627364613E-7;
-7,25757355775267E-8;
6,12779327872262E-8;
1,75919253032012E-7;
2,24837647264766E-7;
2,00971973556203E-7;
1,36673840807048E-7;
7,69097838075814E-8;
4,74844620337556E-8;
4,21728855808299E-8;
3,60128317414829E-8;
1,09316450064759E-8;
-2,8606123100176E-8;
-6,20321256667928E-8;
-7,36691666647947E-8;
-6,85568786752825E-8;
-6,84698816554712E-8;
-9,11266738222869E-8;
-1,30683827785233E-7;
-1,57287689424023E-7;
-1,37933203262116E-7;
-6,29572607604424E-8;
4,29139801355166E-8;
1,34424380146403E-7;
1,74714046304038E-7;
1,5786408099712E-7;
1,08958559397168E-7;
6,31158078694551E-8;
4,05906337758951E-8;
3,66594441956455E-8;
3,19387239086974E-8;
1,23503644676429E-8;
-1,86852850417804E-8;
-4,52163433064927E-8;
-5,50265845684664E-8;
-5,1923007625293E-8;
-5,26821338459114E-8;
-7,10072338616171E-8;
-1,02475930254419E-7;
-1,24147040713567E-7;
-1,10541942308558E-7;
-5,39720141701721E-8;
2,693851231656E-8;
9,77565771748847E-8;
1,30232134688628E-7;
1,19488487092654E-7;
8,4167780010252E-8;
5,06367422957128E-8;
3,42133359293791E-8;
3,1494890577456E-8;
2,80488853892666E-8;
1,33436418982842E-8;
-1,01241831477917E-8;
-3,04933080613726E-8;
-3,86279018479745E-8;
-3,72473067495783E-8;
-3,86985355705633E-8;
-5,31277225850475E-8;
-7,73650680286827E-8;
-9,45873917523803E-8;
-8,59874776263141E-8;
-4,56422667542403E-8;
1,32005522268207E-8;
6,56610346061014E-8;
9,11117868558786E-8;
8,56258544542557E-8;
6,2181299193572E-8;
3,94391338327027E-8;
2,83592566743733E-8;
2,66939386169764E-8;
2,43652069844699E-8;
1,39619232935353E-8;
-2,82676076238326E-9;
-1,77386566758953E-8;
-2,43475139732666E-8;
-2,44238153112504E-8;
-2,64288142146689E-8;
-3,73817505211133E-8;
-5,52095247309626E-8;
-6,84507633986442E-8;
-6,41583167176364E-8;
-3,79786938809563E-8;
1,53569548948017E-9;
3,78618833433734E-8;
5,70521724081296E-8;
5,60347161390727E-8;
4,28613422303253E-8;
2,94730152669538E-8;
2,3023822352723E-8;
2,22656357295513E-8;
2,09069222357985E-8;
1,42561404305759E-8;
3,30541480356352E-9;
-6,81652015623367E-9;
-1,2047275781222E-8;
-1,33364806385077E-8;
-1,57707342059843E-8;
-2,36502464668005E-8;
-3,58464414135941E-8;
-4,55562830773551E-8;
-4,49256856936732E-8;
-3,09785354845508E-8;
-8,2212039146387E-9;
1,40620866803257E-8;
2,77222129470052E-8;
3,04466255474824E-8;
2,60514138786919E-8;
2,06829114398111E-8;
1,82022751378392E-8;
1,82128688998709E-8;
1,76861111183904E-8;
1,42755366488114E-8;
8,37230328948691E-9;
2,41000724013612E-9;
-1,58407619039826E-9;
-3,86341672376868E-9;
-6,61658685138214E-9;
-1,18028602882628E-8;
-1,91010241044856E-8;
-2,57062459974757E-8;
-2,81439632101035E-8;
-2,4635967980931E-8;
-1,62384631831734E-8;
-6,04358607249004E-9;
2,7750370294511E-9;
8,58008010157552E-9;
1,15877572666553E-8;
1,30044579750009E-8;
1,38792117734717E-8;
1,45312518035328E-8;
1,47083341199298E-8;
1,40609182715116E-8;
1,24722417947688E-8;
1,0084971929396E-8;
7,18906321888167E-9;
4,1189171206618E-9;
1,14369308120409E-9;
-1,70685594786288E-9;
-4,79039053516676E-9;
-8,69155734450274E-9;
-1,36541714704409E-8;
-1,89342701324223E-8;
-2,26839993544442E-8;
-2,27649854066714E-8;
-1,81405823446752E-8;
-9,85406437822522E-9;
-7,01743668528929E-10;
6,36798536862474E-9;
1,00355728068071E-8;
1,12153228545778E-8;
1,19786594691826E-8;
1,36547024819815E-8;
1,57033663642851E-8;
1,63474374484056E-8;
1,44190888797865E-8;
1,07372717146571E-8;
7,62691995782162E-9;
6,77987481936108E-9;
7,27493003868439E-9;
5,70195101075426E-9;
-1,29526385325886E-9;
-1,3850874504354E-8;
-2,77162410584408E-8;
-3,64088884266582E-8;
-3,53784656837221E-8;
-2,51489329395953E-8;
-1,09944827557227E-8;
6,99708395527857E-10;
6,64884340795162E-9;
8,2526915357916E-9;
9,49572403819774E-9;
1,30927319438565E-8;
1,81608259148421E-8;
2,13384079743936E-8;
2,02531479073635E-8;
1,61191376383586E-8;
1,29457489355905E-8;
1,37940559246358E-8;
1,7286462541071E-8;
1,76948437397788E-8;
9,10325859391929E-9;
-9,35921714636436E-9;
-3,14979575908412E-8;
-4,72843467387019E-8;
-4,92876449293888E-8;
-3,75912062491296E-8;
-1,94657905082357E-8;
-4,07547126294001E-9;
3,69620004300057E-9;
5,62919754196514E-9;
7,25432538862604E-9;
1,24101616445935E-8;
1,99346762675968E-8;
2,51914271732732E-8;
2,48345601848278E-8;
2,03869646693284E-8;
1,72112915549096E-8;
1,94726620039541E-8;
2,54326624577293E-8;
2,75020442205006E-8;
1,77073700875149E-8;
-5,4287252782835E-9;
-3,41753987952597E-8;
-5,56796774530673E-8;
-6,02084063164986E-8;
-4,74670708629522E-8;
-2,62883058666913E-8;
-8,03240516235652E-9;
1,14830012637187E-9;
3,327895143711E-9;
5,25138497110686E-9;
1,16364932101777E-8;
2,11112173226086E-8;
2,80385827625987E-8;
2,82999274125555E-8;
2,36594037386632E-8;
2,05344929862209E-8;
2,39523982198566E-8;
3,1898269751903E-8;
3,53382930111978E-8;
2,46859757069325E-8;
-2,02650370182633E-9;
-3,58917561065682E-8;
-6,18820085700893E-8;
-6,84709669240072E-8;
-5,50511196949939E-8;
-3,16331915191366E-8;
-1,12461162900789E-8;
-1,02084003917823E-9;
1,33110764868228E-9;
3,47468601951229E-9;
1,07987816309894E-8;
2,17719740609271E-8;
3,00001067524646E-8;
3,07819521901943E-8;
2,60525468176566E-8;
2,30194600707716E-8;
2,73627251698623E-8;
3,6863285206426E-8;
4,14074399164895E-8;
3,01990105420698E-8;
8,83880925065895E-10;
-3,67794882852917E-8;
-6,61569900501832E-8;
-7,43873030200337E-8;
-6,06054784880532E-8;
-3,56603549699889E-8;
-1,37913332818375E-8;
-2,84199324720479E-9;
-3,79471757861336E-10;
1,9162695757554E-9;
9,92051009738574E-9;
2,19913773668699E-8;
3,119331592123E-8;
3,240500604208E-8;
2,76754010620682E-8;
2,47682582862883E-8;
2,98273601007036E-8;
4,04992679344547E-8;
4,59112920032564E-8;
3,44052088042744E-8;
3,3390523049912E-9;
-3,6961046761725E-8;
-6,87586229939019E-8;
-7,82553060492325E-8;
-6,43799871563986E-8;
-3,85248707062767E-8;
-1,57364477389756E-8;
-4,34329878498036E-9;
-1,8262812759937E-9;
5,64430476450556E-10;
9,02162771556155E-9;
2,18388980665379E-8;
3,17285345667968E-8;
3,32850557357503E-8;
2,86274797683323E-8;
2,58720057057257E-8;
3,14629275682688E-8;
4,29685424042493E-8;
4,90356193582362E-8;
3,74547059528313E-8;
5,3736571299421E-9;
-3,65546036912391E-8;
-6,99230479890295E-8;
-8,03525193287877E-8;
-6,66115072064842E-8;
-4,03761387719495E-8;
-1,71523117348875E-8;
-5,55456587697461E-9;
-3,02853135194453E-9;
-5,95176881745379E-10;
8,12024627080058E-9;
2,13801108270844E-8;
3,17042433454788E-8;
3,35319800390703E-8;
2,90058875464219E-8;
2,64218636322054E-8;
3,23825594087143E-8;
4,44246219030139E-8;
5,09593029239714E-8;
3,94890210482812E-8;
7,02630494187536E-9;
-3,56593367915459E-8;
-6,98683648477194E-8;
-8,09382187613352E-8;
-6,75158948360928E-8;
-4,1349924483136E-8;
-1,81034792248164E-8;
-6,50215578499151E-9;
-4,00786991869652E-9;
-1,57559665259137E-9;
7,23128236931414E-9;
2,06695178228732E-8;
3,12119060112758E-8;
3,32456158552884E-8;
2,88988884007318E-8;
2,65002662188934E-8;
3,26890136526179E-8;
4,5011564883471E-8;
5,18496957427832E-8;
4,06432315636023E-8;
8,33291004293671E-9;
-3,43710708264848E-8;
-6,87956182276487E-8;
-8,0249161701168E-8;
-6,72973264521159E-8;
-4,1575178005331E-8;
-1,86473530145303E-8;
-7,2157484063096E-9;
-4,78636723563051E-9;
-2,38805364451875E-9;
6,36739052852272E-9;
1,97632852976111E-8;
3,03385052823005E-8;
3,25171561658123E-8;
2,83877817182247E-8;
2,61813317622101E-8;
3,24745375529614E-8;
4,48600174520479E-8;
5,18598925684289E-8;
4,10417665221722E-8;
9,32915023371056E-9;
-3,27750594264989E-8;
-6,68874941562308E-8;
-7,85043380373413E-8;
-6,61416884613561E-8;
-4,11683694580302E-8;
-1,88448660072804E-8;
-7,72163832581596E-9;
-5,38083297390496E-9;
-3,04842341672369E-9;
5,53744196171113E-9;
1,87051678922905E-8;
2,91569732690415E-8;
3,14286157437917E-8;
2,75435292200654E-8;
2,55346770500525E-8;
3,18287792953901E-8;
4,40919118935626E-8;
5,11318313788426E-8;
4,07999546167004E-8;
1,00482884767405E-8;
-3,09445592273769E-8;
-6,43069845214984E-8;
-7,59018078332267E-8;
-6,42186964151902E-8;
-4,02376081756425E-8;
-1,87453077919131E-8;
-8,045125686481E-9;
-5,81452120719278E-9;
-3,57006875504271E-9;
4,74907504489968E-9;
1,75371771670136E-8;
2,77375217754667E-8;
3,00570916374037E-8;
2,64361341105142E-8;
2,46225695349127E-8;
3,08296581860318E-8;
4,28182783187408E-8;
