-1,69480006597057E-13;
1,40284786723135E-14;
8,98355231218232E-13;
-1,47230231406709E-13;
2,46375544063551E-13;
1,13763867909401E-12;
6,55806439260078E-13;
8,45042474034414E-13;
4,75909191059546E-14;
-1,68175120642206E-13;
7,15149974333154E-13;
1,61348365050865E-13;
-1,25685208469275E-13;
1,46354365232052E-14;
1,17149052187999E-13;
1,03563839686157E-13;
5,64835080397391E-14;
2,43135527024511E-13;
4,04848770175434E-13;
1,33718589173453E-12;
9,85650094044734E-13;
2,08316323573255E-13;
6,92177663173867E-13;
5,8910106242822E-13;
7,40196682808805E-13;
8,00390703853422E-13;
1,08404759392615E-12;
1,12625523416858E-12;
4,68847708667338E-13;
4,11042853160902E-13;
-6,49997919537145E-13;
1,02446217657567E-13;
1,17870356773885E-12;
-3,74976023520382E-13;
-1,38118364527368E-13;
4,22023897545012E-13;
6,55348739081063E-13;
1,2242608439487E-12;
6,7394813651942E-13;
4,87395930247014E-13;
3,22589981242544E-13;
-1,93632323619832E-13;
-3,48827592079973E-13;
1,73426017165728E-13;
4,69251812762164E-13;
2,82341368811149E-13;
7,27618684544772E-13;
7,78945370383038E-13;
3,51925055166201E-13;
-1,49128633336349E-13;
-1,16627404836097E-13;
5,21212101989627E-13;
1,00538802141979E-13;
3,44531822476444E-13;
7,97279901495185E-13;
4,94416027660581E-14;
2,60036509456643E-13;
7,01508720581184E-13;
5,16339551359254E-13;
4,97071389183728E-13;
2,99537508457968E-13;
-1,35828195936784E-13;
-5,07576402491443E-14;
3,30000745701107E-13;
2,37630883886275E-13;
2,83574546942019E-13;
8,88658897926853E-13;
7,38466511387015E-13;
-2,4382509098115E-14;
-7,68459877193672E-14;
2,31036774869215E-13;
6,25463951817495E-13;
3,72579606680293E-13;
1,21618706660182E-13;
5,81663723020648E-13;
-3,01100298450316E-13;
-8,00608431230574E-13;
8,20541635234615E-13;
8,13970637554983E-13;
-3,72165696079854E-14;
8,60178957601115E-13;
4,89505439485836E-13;
2,59597927864247E-13;
1,02646976223835E-12;
5,3754086691511E-14;
-3,56930575142317E-13;
-7,61228565822011E-14;
3,72711086510806E-13;
1,28638060985598E-12;
1,8072293096844E-13;
-3,90727780834609E-14;
1,16865170972668E-12;
2,86980137285943E-13;
6,91752849203813E-13;
1,02541105323216E-12;
-7,85255849245936E-14;
3,55518969667504E-13;
1,16380817295535E-13;
5,058923462552E-13;
1,02963975262777E-12;
-1,5841396068155E-13;
1,848641634857E-13;
5,44467007907339E-13;
1,22030697514386E-13;
1,0042082833443E-12;
1,10472011771251E-12;
2,62201479408545E-13;
3,85865422407674E-13;
6,34855864666947E-13;
5,51425337224586E-13;
2,75257165530745E-14;
-4,1794714788927E-13;
-3,63844626234734E-14;
1,45432973310072E-13;
5,13657665066866E-13;
1,05985956860667E-12;
4,03576638925622E-13;
-6,13708942110097E-13;
-4,07846593976342E-15;
1,13057155167225E-12;
6,38804311690142E-13;
2,90053437302512E-13;
5,4188932914444E-13;
5,38724939506032E-13;
8,37489452486297E-13;
-7,91825906769681E-14;
-8,51163099193925E-13;
6,60921981614242E-13;
7,70160163569456E-13;
-3,27692058503082E-13;
2,92343119611625E-13;
1,30600845095299E-13;
-1,84620350545918E-13;
3,76180034229017E-13;
3,67440790155543E-13;
5,95542209478753E-13;
4,12009378457557E-13;
5,06033700477995E-13;
5,32795709817897E-13;
-9,23308425930853E-14;
3,31152809332767E-13;
2,15671782963216E-15;
-4,23830504131546E-13;
-5,94154090148215E-14;
1,7679351630622E-13;
7,66915529049058E-13;
1,02011858789599E-13;
-3,35352578161806E-13;
3,41104502290594E-13;
1,43868494622605E-13;
3,18671144434665E-13;
1,73532015239761E-13;
-6,4262243325067E-13;
2,57468948478652E-13;
4,26180978489146E-13;
-5,28979033002089E-13;
4,85859220546941E-14;
3,34842223001131E-13;
5,94258417944512E-13;
1,15077595660573E-12;
5,81805424713389E-13;
6,17142054260102E-13;
7,65187191354888E-13;
-2,30598066982071E-13;
3,67653274021682E-13;
9,65997369681694E-13;
1,91037162340066E-13;
6,18629025040011E-13;
3,2138676119227E-13;
1,44585656621812E-13;
6,92113838553449E-13;
1,35335829360456E-13;
1,98055068474966E-13;
5,63239079874278E-13;
9,09338316730639E-13;
8,08153828944204E-13;
2,19134758692711E-13;
3,72245319428659E-13;
1,13268848117343E-13;
4,07489910272991E-13;
1,42240014775694E-12;
1,46701413941776E-12;
7,2157537750095E-13;
-2,10049625783716E-13;
3,71655044346142E-13;
1,0423108122415E-12;
3,42308661559622E-13;
3,38314863445917E-13;
2,41823252732024E-13;
-5,65509630466035E-14;
5,67035139464143E-13;
5,85012076170501E-13;
7,00614635678704E-13;
8,28776879222815E-13;
4,19925062598323E-13;
1,1083712951398E-12;
7,46172122372896E-13;
-2,23416362761289E-13;
4,65444568654322E-13;
9,65926106789137E-13;
6,23966580685793E-13;
1,35022837558637E-13;
1,37967772211119E-13;
6,47632442048624E-13;
7,22612758789873E-13;
5,98449217317382E-13;
6,27669450195508E-13;
-2,32440224257196E-14;
2,31010598426049E-13;
8,99495315548384E-13;
-2,61984155481322E-13;
-1,75089216028697E-13;
1,10565915853193E-12;
7,82674419656394E-13;
-2,68685237575925E-13;
-5,1861160654015E-13;
3,59221994047871E-13;
3,0285592204274E-13;
-2,73818624804069E-14;
5,42273790556649E-13;
1,15916799514934E-13;
6,50209739335305E-13;
1,23561987788679E-12;
-7,43482229081354E-14;
1,78129010348834E-13;
8,38185348561734E-13;
4,52249105976998E-13;
2,92183478132094E-13;
1,84767242796548E-13;
1,78652702612395E-13;
6,48899881100702E-13;
1,48547393529896E-12;
1,1974323548446E-12;
9,07567929008179E-13;
7,94726778406394E-13;
-7,75148318058263E-14;
7,29536314628077E-13;
1,63051554627316E-12;
4,47060629380352E-13;
-5,82363724226211E-14;
-8,56446878322589E-15;
-7,36256060326718E-13;
-5,29830276716611E-14;
7,30842689370488E-13;
2,24236105452573E-13;
3,64062687515978E-13;
1,88193078022117E-13;
-3,22626907187539E-13;
-2,63638124969998E-13;
2,1786880658505E-13;
4,14102580526251E-13;
-1,09897475995861E-14;
9,55778572919541E-13;
1,24239543879022E-12;
6,30426071697054E-14;
9,00777905572159E-13;
8,45697037474065E-13;
-5,27702521272487E-13;
3,17382793798288E-13;
4,45584111114934E-13;
-2,68482788996737E-13;
2,58719336241803E-13;
1,36026692331891E-13;
8,84900121834637E-14;
1,51910318473731E-13;
-2,56052332361532E-13;
6,7108814519231E-13;
7,6882456136405E-13;
-6,23357505369982E-14;
3,21974355417171E-13;
2,78677484745916E-13;
7,61139302877036E-14;
6,20382314543273E-14;
2,99368467342952E-13;
6,77178575587976E-13;
4,1117246945287E-14;
-2,82447926096495E-13;
3,89208235833898E-13;
3,96076577514437E-13;
-1,66732081190459E-13;
4,36852158044604E-13;
6,86479024699129E-13;
7,10525721215514E-13;
1,22740328647924E-12;
6,32391506590113E-13;
8,13100736853781E-13;
7,20870867426882E-13;
-1,47726967762867E-14;
7,26060910523938E-13;
4,94467510786634E-13;
2,87883518967355E-13;
8,49224986579311E-13;
-1,18237311301155E-13;
-1,20304172566001E-13;
1,0749697205262E-12;
9,5658035688032E-13;
3,73089498507396E-13;
-3,31733964970167E-13;
-7,05134810415434E-13;
-1,92551699338011E-13;
1,46628818450844E-13;
3,41000520933429E-13;
8,25245652982193E-13;
6,56152363810458E-13;
-1,47773754467086E-13;
2,37808773317393E-13;
9,18705600965587E-13;
7,90199140660477E-13;
4,43226623362058E-13;
3,73104183856951E-13;
5,63357692451323E-13;
-1,87202782545174E-13;
4,4123802836229E-13;
9,7684470938814E-13;
-1,29932425204155E-13;
7,21803086453745E-13;
7,27108334873581E-13;
-1,04736063107957E-13;
3,19224601477648E-13;
7,92597508819254E-13;
7,37395114235904E-13;
1,53217541822975E-13;
6,20345186300383E-13;
2,37295259446088E-13;
-6,7921314998881E-14;
2,97802200406151E-13;
-3,46424872366775E-13;
4,70963444781772E-13;
8,02226805102098E-13;
3,0000977527542E-14;
7,36856350838374E-13;
9,42392400339908E-13;
3,14204595028619E-14;
1,87430071623913E-13;
4,07710959072E-13;
-7,44364225909108E-14;
2,8883806675426E-13;
7,80627968305059E-13;
2,79102528351905E-13;
1,49268539727159E-13;
3,45707673803356E-13;
2,26190339266576E-13;
5,48446406927885E-13;
-2,46851880482829E-13;
1,44593904682559E-13;
1,18536827226221E-12;
-3,69957008937437E-13;
-3,16969059904648E-13;
4,9689467128038E-14;
-3,55276543281755E-13;
6,06052767438153E-13;
9,49051631625165E-13;
-4,60050828585015E-14;
-9,09450131845924E-13;
4,02739307287458E-13;
8,19394834038202E-13;
-2,68942964468269E-13;
7,98728057634511E-14;
6,96233815460465E-13;
1,22107363328756E-12;
7,61194208876129E-13;
4,49736507417208E-13;
6,41796090426529E-13;
-2,23356732998795E-13;
-1,64504714845633E-13;
3,99600918172557E-13;
2,23433336106572E-13;
-4,17512211397296E-14;
7,95074943021E-13;
1,23579995202352E-12;
6,74736564567129E-14;
1,48016038626705E-13;
2,85123300411323E-13;
-7,27810320836997E-14;
4,0869960285106E-13;
5,24656867963941E-13;
4,66233846240473E-13;
5,88640437690127E-13;
8,798350379586E-13;
2,46175745004331E-13;
1,97154359993901E-14;
1,26317238928589E-12;
8,65100806653567E-13;
-1,92567458614482E-13;
-2,65810827685238E-13;
3,51115963015788E-13;
7,98357400359931E-13;
-1,68823542236985E-13;
-2,89867645753605E-13;
8,36475605188299E-13;
6,5308597829708E-13;
-1,77717282757852E-13;
-1,96109334928679E-13;
-1,27188982807485E-13;
5,52613626359058E-13;
9,88813860109717E-13;
4,22786872753625E-13;
7,57553375300729E-13;
5,49366662334876E-13;
-2,07764127964964E-13;
3,26027366467123E-13;
5,95922496875139E-13;
3,6812553224897E-13;
7,42950706941555E-13;
9,93413879766842E-13;
4,96910716888166E-13;
-2,71580639927636E-13;
-1,93483994273348E-13;
4,98508837413621E-13;
6,69016372971011E-13;
1,01595465796539E-12;
1,06844465821486E-12;
3,41766098309263E-13;
4,00716430623138E-15;
-2,573260420142E-13;
-5,07680507544083E-14;
1,21227217752432E-13;
-4,84771697203874E-13;
-1,59438430117914E-13;
-7,74652084193174E-14;
-2,94794712378996E-13;
5,49014465225729E-13;
2,93828503479177E-13;
-6,90215263712641E-13;
2,1204287792101E-13;
1,24349268075031E-12;
5,47919155202396E-13;
4,61882251934364E-13;
3,32387497512378E-13;
1,4048298801273E-13;
9,46824156541907E-13;
9,00580525712827E-14;
1,74728881025374E-13;
1,22696650537585E-12;
-9,83871938544204E-14;
1,42282583230872E-13;
1,05706104980039E-12;
1,09018780791208E-13;
-6,47169931483531E-14;
2,34155027937292E-13;
7,66289056607326E-13;
3,91088741414857E-13;
-4,56805035607147E-13;
1,04208860247695E-12;
1,63704482458388E-12;
8,03220198527543E-13;
9,49420170982416E-13;
6,49409184118854E-13;
6,66263563274475E-13;
4,88658783859668E-13;
-1,70004011645185E-13;
6,03178770187431E-13;
5,09808480326615E-13;
-1,4362951466324E-13;
-3,38024542559341E-15;
-1,24000163026849E-13;
2,56530871648343E-13;
1,66650053722075E-13;
3,64115087922727E-13;
1,21790084296639E-12;
4,77659024277812E-13;
7,96276187122087E-14;
5,73040790048963E-13;
5,44869158409632E-13;
2,37521158105999E-13;
9,68514230518739E-14;
9,24068247076776E-13;
5,29231287580027E-13;
1,51894981590523E-13;
1,11418746991026E-12;
8,02162426710637E-14;
3,27157454452675E-13;
4,38171618515386E-13;
-1,14714340814103E-12;
3,94080381052788E-13;
8,6290980417683E-13;
2,8310172881999E-13;
5,49801686405962E-13;
8,96534862185597E-14;
6,56475545025152E-13;
-5,09212267386054E-14;
-3,74440686308093E-13;
2,04075382321545E-13;
-2,46307870477384E-13;
7,16448472572083E-13;
4,19016617217657E-13;
-1,39421642840076E-13;
9,01827358047757E-13;
5,87145446873037E-13;
5,83779642735264E-13;
4,36741084449438E-13;
-2,12049994137935E-13;
-4,18303209382882E-14;
-2,56004019644397E-14;
3,2621704496672E-13;
2,20815946298803E-13;
2,36450321033138E-13;
5,44344452634634E-13;
1,04425024728361E-13;
1,30877814764773E-13;
8,58107507450743E-13;
6,96530524812637E-13;
-7,80286835687358E-13;
-4,14395615409269E-14;
1,362813882932E-12;
6,05736206526876E-13;
5,55590078951623E-13;
4,47021307984396E-13;
3,68093093522438E-13;
6,51636944613118E-13;
-5,26118578482713E-13;
-3,77916517247815E-13;
4,99352261496127E-13;
-5,7833605524228E-14;
6,14744534218058E-14;
4,60450436933549E-13;
6,3100397874948E-15;
-4,35832924589331E-13;
-3,0211888743744E-14;
7,16237087224418E-13;
1,24135317305799E-12;
8,8966924903976E-13;
-1,16326761394523E-13;
8,07558508361903E-14;
3,62814727834592E-14;
-5,20135404757827E-13;
2,36153275904482E-13;
5,56370168472532E-13;
-1,28794979787054E-14;
1,45734201859909E-13;
4,29273047817362E-13;
-2,308117167304E-13;
-3,4445596241625E-14;
1,04237184468164E-12;
5,4704574500482E-13;
-2,32232373064225E-13;
-2,08948914947915E-13;
5,25446527724692E-13;
6,33613223896583E-13;
-8,73415328367866E-14;
6,81836238790859E-13;
5,85962809498138E-13;
1,26691177541682E-14;
3,79629951785656E-13;
2,9236209883403E-13;
5,61360704831842E-13;
3,3146496878265E-13;
-2,19057983110575E-13;
-4,79336430414835E-13;
2,87751115997142E-14;
4,36745148473476E-13;
1,41441626601332E-14;
7,22085682639899E-13;
4,36188110277027E-13;
3,20562624550084E-13;
1,34391274777775E-12;
8,13110635698979E-13;
1,22850205875933E-13;
-2,34712902090282E-13;
-2,02646643073371E-14;
2,19828597925013E-15;
-5,46904037247769E-13;
-2,02964763270098E-13;
3,29715605871275E-13;
4,54452269656534E-13;
8,78418791421346E-13;
9,80423228532304E-13;
2,42808057634313E-13;
4,8551719958468E-13;
6,23742411762763E-13;
-3,15090937744233E-13;
-3,76430148124319E-13;
3,74307103567364E-13;
6,78292287434965E-13;
4,9718624845512E-14;
6,60986754713816E-14;
4,31841370774241E-13;
2,45381307352599E-13;
6,78629872422616E-13;
3,93982589501621E-13;
5,39349600780774E-13;
1,32994539408168E-12;
2,97589297190258E-13;
-8,45567989011077E-14;
5,27538413485031E-13;
2,4266758818089E-13;
-2,32665191736944E-13;
3,06759929187413E-13;
1,10471262786954E-12;
6,90651515837697E-13;
4,4189782895271E-13;
5,98452230823918E-13;
4,19409784356845E-13;
5,60132949217384E-13;
7,51740517940274E-13;
3,53907900338691E-13;
1,02670954839184E-13;
5,55305455399978E-13;
6,15602208748832E-13;
6,23171077149802E-13;
4,44382866348792E-13;
1,43620066547161E-13;
4,78629813745049E-13;
1,38779839791455E-13;
-1,15593994390661E-14;
-1,30999165763819E-13;
4,51049046151432E-13;
1,31793524904107E-12;
4,80252320028124E-13;
1,45303480914989E-12;
1,23079542668328E-12;
-9,48275465808123E-13;
-2,17635424049851E-13;
2,32527847680157E-13;
1,68111377776915E-13;
6,51713334415331E-13;
7,35213415670178E-13;
1,25876046868097E-12;
8,27737918232217E-13;
4,2387887838518E-13;
4,48051693466373E-13;
4,58768385555855E-14;
1,07315586498233E-12;
6,23881481687487E-13;
-1,02195163502116E-12;
3,11705189360847E-13;
7,50731232275751E-13;
-1,36197948923945E-14;
6,04903092594097E-13;
3,60954961677065E-13;
5,94911410581846E-13;
4,03142706125943E-13;
-3,68639843092728E-13;
5,44101185463594E-13;
9,67265692834993E-14;
4,20834491915565E-13;
1,29897122952991E-12;
1,24070822780499E-13;
3,61324374418978E-13;
5,98524799478887E-13;
-1,28543520842904E-13;
1,66975790942868E-13;
7,31575183208358E-13;
6,42437873222727E-13;
1,93321962101104E-13;
2,79396762084553E-13;
-1,31737517613315E-13;
-9,98169537421411E-13;
-4,46514968291549E-13;
5,56122237458034E-13;
1,121205567877E-12;
1,11943247077858E-12;
5,66414770401556E-13;
3,40260726010478E-13;
5,14497531960207E-13;
1,07026703226062E-12;
1,00601964614833E-12;
7,87798597352268E-14;
2,83609732583865E-13;
6,17983963186807E-13;
-2,58130881576209E-14;
1,07766585798094E-13;
2,07507477036121E-13;
3,06355148013826E-13;
4,33295999540627E-13;
-1,26528743042782E-13;
6,65063014472495E-13;
1,03609900995706E-12;
1,04252373895593E-13;
4,22516736671645E-13;
7,40529071542163E-13;
6,07921471714433E-13;
6,05538515131972E-13;
3,97381541738061E-13;
2,16313165796973E-14;
2,0824723137847E-13;
4,4934961081679E-13;
-6,14749966306605E-13;
6,95427948912788E-14;
4,91491927911949E-13;
-1,85690859364424E-13;
1,05596858791741E-12;
3,61972212142639E-13;
5,23847452822908E-14;
9,61089532166318E-13;
-6,30507192727061E-14;
9,52822993496076E-14;
5,75764432961465E-13;
1,52516530401307E-13;
2,51989592440407E-13;
7,57052120462973E-13;
8,63952413933252E-13;
6,63096604390032E-14;
1,85612854337936E-13;
9,90183504726573E-13;
4,24927236702036E-13;
4,03543389798086E-14;
6,02267011304855E-13;
2,59078534109531E-13;
5,47860047912134E-13;
0,00933343404717767;
0,0226297298249301;
0,0163727372762693;
0,00943309617806671;
0,0121693917855426;
0,0070261673318387;
0,00563481713054999;
0,00458271005243531;
0,000840500090123335;
0,0010323923729918;
-0,00119043949498238;
-0,00199195265782005;
-0,00280713693527361;
-0,00455368131947942;
-0,00488732499948219;
-0,00585590070879532;
-0,00594121727308517;
-0,00618248832280221;
-0,00699357666791759;
-0,0079207035465325;
-0,00934888799323049;
-0,010242888710169;
-0,0105184993932572;
-0,0101085231421298;
-0,00920766466566722;
-0,0084302968011628;
-0,00783043416808047;
-0,00745747149714012;
-0,00704805327901797;
-0,00641867706861015;
-0,0056754536322579;
-0,00495848727207132;
-0,00445308141370897;
-0,00409076741120304;
-0,00366382586795606;
-0,00302656743714534;
-0,00222823254464681;
-0,00157282907361459;
-0,00136107645930488;
-0,00166524557404153;
-0,00222572542156485;
-0,00258706177281878;
-0,00240676232137903;
-0,00165718471587226;
-0,000624734014948071;
0,000316669698055394;
0,000963663523388408;
0,00137586886871227;
0,00176513174818483;
0,00227846193170001;
0,0028737118367156;
0,00337820905240876;
0,00366494227496216;
0,00378442559169516;
0,00392474763688506;
0,00423344806272813;
0,00465410314799606;
0,00492912948561098;
0,00478539611549465;
0,00416205590804347;
0,00329839411610701;
0,00260120493674913;
0,00238404675912989;
0,00267133447150124;
0,00320917063044012;
0,00366539555853924;
0,00385876826762337;
0,00384594464796541;
0,00381730502357594;
0,00390618887412022;
0,00407638930731288;
0,00417461995741001;
0,00408914816341713;
0,00386593851151491;
0,00367395077470864;
0,00364551935657698;
0,00373088376153141;
0,00370125625887925;
0,00331394893909063;
0,00251555483960289;
0,0015195643735694;
0,000688088782622903;
0,000299921507092624;
0,000376496335378689;
0,000692035009867789;
0,000951432382265403;
0,000993755270814285;
0,000869183490138077;
0,00074630464972265;
0,000742935836320666;
0,000826535917830361;
0,000860914881533547;
0,000746775454664218;
0,000524376747193745;
0,000342641815053525;
0,00031791880479153;
0,000405552501755935;
0,000402860404462644;
9,51196662269434E-5;
-0,000565180948901618;
-0,0107236164877889;
-0,0246910037827584;
-0,0187063544875757;
-0,0116223592942902;
-0,0139972387360016;
-0,00853592289755422;
-0,00701192127234624;
-0,00596902286075418;
-0,00223033989626009;
-0,00231727179430792;
8,97661344203286E-5;
0,00103463609708114;
0,00186474291539773;
0,00353260259844533;
0,00382392664453266;
0,00488786326944278;
0,00516656254275832;
0,00552145619944568;
0,0061783527967239;
0,00664177265162715;
0,00746064874632787;
0,00787759597660307;
0,0080215862556796;
0,00784053012509447;
0,00735462448653227;
0,0069510559328555;
0,00655991790464105;
0,00626843174520129;
0,00594145075908071;
0,00548465812325463;
0,0049785507566436;
0,00445879659200961;
0,00403463682769082;
0,00366783364141813;
0,00326335428942821;
0,00276323493142365;
0,00218226985161761;
0,00167054996158436;
0,00136622431372517;
0,00130576063870607;
0,00137147126973656;
0,00134804346782867;
0,00107699073156932;
0,000543583800376954;
-0,000116334502445816;
-0,000724583160594881;
-0,00118434704037637;
-0,00152244936069768;
-0,00184024513560756;
-0,00220794459670145;
-0,00260531817176545;
-0,00294924153634219;
-0,00317776862268346;
-0,00331523397684157;
-0,00345292230430826;
-0,00366309226939438;
-0,00391872199546654;
-0,00409377840147665;
-0,00405387358965364;
-0,00376838329951169;
-0,00335502044659263;
-0,00301538525450419;
-0,00290602835901583;
-0,00304040644709943;
-0,00329290963320878;
-0,00349792677279614;
-0,00356466125052657;
-0,00352164921063178;
-0,00346521642054152;
-0,00346340006611101;
-0,00349852997850954;
-0,00349315078191164;
-0,00339050036392173;
-0,00321419526680682;
-0,00305115661461835;
-0,00297002122068872;
-0,00294586743945501;
-0,00286092459337572;
-0,0025893949630714;
-0,00210309155320764;
-0,0015128361285935;
-0,00100788060554492;
-0,000734996238901609;
-0,000706570814162641;
-0,000804732262397655;
-0,000874202720017758;
-0,000829829987233667;
-0,000698122802844666;
-0,000568858968499824;
-0,000505246882948342;
-0,000490307440699469;
-0,000451225008938775;
-0,000334548728516063;
-0,000161839330173563;
-1,36443023311682E-5;
4,6654413851551E-5;
4,29415641798755E-5;
8,55694750684153E-5;
0,000292250953098801;
0,000689730464262654;
0,00117541312117415;
0,00157388875930753;
0,00174942933736363;
0,00169131747997844;
0,00150982607013962;
0,00134983223822327;
0,00129097283954981;
0,00130920953807744;
0,00132185063128687;
0,00127090372443623;
0,0011727145696578;
0,00109530365367213;
0,00108867139009767;
0,00113332918325745;
0,0011552238353408;
0,00109623070288239;
0,000978922468771012;
0,000905712283969163;
0,000985677447453012;
0,001243773085214;
0,0015855430323091;
0,00184943190429215;
0,00191061458673864;
0,00175959518924379;
0,00149834145315122;
0,00126056787014644;
0,00111977160156153;
0,00105394594300676;
0,000987128154492935;
0,000866119300911589;
0,00070607870339505;
0,000569606171006247;
0,000502666784538808;
0,000487363045388049;
0,000455721296399793;
0,000354429511738467;
0,000204210373603408;
9,893391210061E-5;
0,000138466950300775;
0,000345511936027168;
0,000633403626704926;
0,000854135511627704;
0,000893432897758569;
0,000742587387384798;
0,000494783541857314;
0,000272121619598914;
0,00014157969630103;
8,28694882114724E-5;
2,64722442797068E-5;
-7,63033803134536E-5;
-0,000211769231443141;
-0,000323008905371573;
-0,000368321705738515;
-0,000364219264895307;
-0,000372793466118489;
-0,000442732976948697;
-0,000555323120188104;
-0,000625342764072445;
-0,000562198637929413;
-0,000345503529529332;
-5,4235815201402E-5;
0,000177000838719548;
0,000244345290866591;
0,000139815373270089;
-5,2146902334676E-5;
-0,000220953272173668;
-0,000306058212645447;
-0,000326011716704762;
-0,00034391684738038;
-0,000403962757917456;
-0,000493856150266557;
-0,000562215373101842;
-0,000571455607473867;
-0,000536624095978209;
-0,000513919676449606;
-0,000547380098164198;
-0,000620159083119191;
-0,00065541610999211;
-0,00057153006290663;
-0,000350239367892449;
-6,28363666567679E-5;
0,00016934886279095;
0,000252779559120556;
0,000180302399639932;
2,79291270356249E-5;
-0,00010487311843724;
-0,00016369995294882;
-0,000165257795357974;
-0,000166248195829784;
-0,000206336750507132;
-0,000274461379671733;
-0,000324502687435964;
-0,000322751229833528;
-0,000282699344194122;
-0,000254692679035903;
-0,000278135969128433;
-0,000337890839469083;
-0,000365144785200075;
-0,000286869559985316;
-8,67513120966522E-5;
0,000171472697468743;
0,000379420174996099;
0,0004536230379488;
0,000387792735636295;
0,000249849502890151;
0,000128576256686716;
7,2511955986282E-5;
6,67932643139529E-5;
6,09497584809671E-5;
1,97224794550262E-5;
-4,69756490093036E-5;
-9,8059200224768E-5;
-0,000103515483017088;
-7,53095237174465E-5;
-5,81340139611995E-5;
-8,69258268852619E-5;
-0,000148179527493477;
-0,000180784471914237;
-0,000119949452573916;
4,87826876331273E-5;
0,000268925661795865;
0,000444501443721196;
0,000501669408992552;
0,000434943445411061;
0,000304474202981144;
0,000188803011991817;
0,000130842822600491;
0,000117472224714398;
0,000104147790260878;
5,97871303173791E-5;
-6,82634166393006E-6;
-5,94403412269778E-5;
-7,15963140819215E-5;
-5,38344754169445E-5;
-4,54978420181835E-5;
-7,73087015224839E-5;
-0,000137355359890092;
-0,000171888970344697;
-0,000123980004733595;
1,90364543860343E-5;
0,00020753067405425;
0,000357263612836415;
0,000403486630051244;
0,000341428864310784;
0,000223832623114747;
0,000119498071765647;
6,59781533012611E-5;
5,17705294886038E-5;
3,79085628358421E-5;
-2,77342358401634E-6;
-6,25929167846782E-5;
-0,000109894617430051;
-0,000121603013219874;
-0,000106937319041511;
-0,000100217081907798;
-0,000128215597324268;
-0,000180549766171408;
-0,000210430678148798;
-0,000168350684816351;
-4,3344026369393E-5;
0,000121401740445674;
0,000252676818864226;
0,000294263639776154;
0,000242043414690515;
0,000141780418226877;
5,31144177643749E-5;
8,55972900841955E-6;
-1,87151138589782E-6;
-1,19206165007267E-5;
-4,50877493254103E-5;
-9,47281468107354E-5;
-0,000133496090472947;
-0,000141483881644767;
-0,000126672695899951;
-0,000118681202584794;
-0,000140589989784739;
-0,000183445044297515;
-0,0002069581803506;
-0,000168546841303096;
-5,88213451758954E-5;
8,50531662525545E-5;
0,000200162827435272;
0,000238248480673206;
0,000195800877793888;
0,000112086185957028;
3,82199086366511E-5;
2,03588927395558E-6;
-5,03339374845015E-6;
-1,18590251424192E-5;
-3,85248963567698E-5;
-7,93429337698452E-5;
-0,000110961930471017;
-0,000116404944335101;
-0,000102492315148725;
-9,44703961060407E-5;
-0,00011198623017318;
-0,000147403039810715;
-0,000166448209974267;
-0,000132942786280973;
-3,89428666336667E-5;
8,39742146199043E-5;
0,000182431370160028;
0,000215536756105938;
0,000180349058239854;
0,000110133941741941;
4,81391692085666E-5;
1,78853139105204E-5;
1,21248595339814E-5;
6,4878301313443E-6;
-1,59532405051633E-5;
-5,03875604734711E-5;
-7,71398442075126E-5;
-8,19266226877959E-5;
-7,04927851900171E-5;
-6,40548442185681E-5;
-7,909728574612E-5;
-0,0001091926013396;
-0,000125595873019605;
-9,80084375612822E-5;
-1,98084062901011E-5;
8,25638677460316E-5;
0,000164488747598696;
0,000191834749327171;
0,000162179937307421;
0,000103287015511057;
5,11931590631041E-5;
2,5468903898314E-5;
2,00770577256727E-5;
1,47682424104013E-5;
-4,49794770593991E-6;
-3,37149169971494E-5;
-5,6569556035793E-5;
-6,12404120819463E-5;
-5,24899393290905E-5;
-4,78554895243019E-5;
-6,09369571356546E-5;
-8,64134527674637E-5;
-0,00010058465349238;
-7,85143772179601E-5;
-1,47852607918963E-5;
6,88427902915948E-5;
0,000135724334890557;
0,000157878769441733;
0,000133352138379704;
8,48971099259482E-5;
4,19914147064744E-5;
2,06134817407697E-5;
1,58240552872445E-5;
1,11135351684535E-5;
-4,94097394136438E-6;
-2,906632000863E-5;
-4,80022098041986E-5;
-5,21616249831497E-5;
-4,5418226995569E-5;
-4,19781827359985E-5;
-5,28320726482826E-5;
-7,3664356510155E-5;
-8,53425750970433E-5;
-6,77827009461628E-5;
-1,6656698059956E-5;
5,05058593722287E-5;
0,000104262944368835;
0,000122186394410924;
0,00010274141752025;
6,41567162197542E-5;
2,99913862577428E-5;
1,29840942227513E-5;
9,18440370869909E-6;
5,45067445182341E-6;
-7,28471206877995E-6;
-2,64108248176341E-5;
-4,14156900384834E-5;
-4,47225454815576E-5;
-3,94060737318637E-5;
-3,66791586130451E-5;
-4,51895257754924E-5;
-6,15259202290952E-5;
-7,06569797352832E-5;
-5,68519836031095E-5;
-1,67586441259137E-5;
3,58873199622049E-5;
7,80996796195983E-5;
9,24234708755813E-5;
7,76982311733745E-5;
4,81029989480268E-5;
2,19019768672836E-5;
8,93739907967191E-6;
6,1434666938922E-6;
3,38802483254654E-6;
-6,29330282116333E-6;
-2,08810969254591E-5;
-3,23156643716219E-5;
-3,48124892101518E-5;
-3,07328084969708E-5;
-2,86211419708724E-5;
-3,50380471280796E-5;
-4,7377698363784E-5;
-5,42587729399011E-5;
-4,3822522413901E-5;
-1,35825679455254E-5;
2,60996720935259E-5;
5,79753776514231E-5;
6,90069243405503E-5;
5,83662084154082E-5;
3,66390155637191E-5;
1,73939538835761E-5;
7,90649554652879E-6;
5,89574247701169E-6;
3,89571541732876E-6;
-3,19581380820484E-6;
-1,38829359532404E-5;
-2,22748034600297E-5;
-2,41706979836786E-5;
-2,13003347107886E-5;
-1,98504568849558E-5;
-2,45386679929837E-5;
-3,34701923617272E-5;
-3,84835493411724E-5;
-3,11333589099144E-5;
-9,69508189288234E-6;
1,84437694854693E-5;
4,10871974500229E-5;
4,90855949947523E-5;
4,19031791024409E-5;
2,69663406976865E-5;
1,37173350840257E-5;
7,17750119869949E-6;
5,75551142908737E-6;
4,3251429890358E-6;
-5,82855425940913E-7;
-7,93201292367465E-6;
-1,3732166244495E-5;
-1,51694968147405E-5;
-1,34204439956813E-5;
-1,26085456419795E-5;
-1,58399570788033E-5;
-2,1842105185702E-5;
-2,52671462057136E-5;
-2,06503768884026E-5;
-6,93156722949724E-6;
1,10969607710917E-5;
2,56454588145741E-5;
3,09527237435614E-5;
2,67373083940283E-5;
1,7674801260948E-5;
9,61695543800699E-6;
5,62486284195365E-6;
4,70657311408816E-6;
3,7681722789395E-6;
7,57612905571977E-7;
-3,68806734802476E-6;
-7,22771480258795E-6;
-8,24984602689904E-6;
-7,45140382391762E-6;
-7,16938434977576E-6;
-9,11578608917751E-6;
-1,25570349175659E-5;
-1,45783990505739E-5;
-1,22907618126239E-5;
-5,20719980404518E-6;
4,12039464107105E-6;
1,17034619233751E-5;
1,47019568655421E-5;
1,30533366368788E-5;
9,06423724711664E-6;
5,49636310184415E-6;
3,72486736774401E-6;
3,2729514666171E-6;
2,79223174401435E-6;
1,44676867496646E-6;
-4,69800444730746E-7;
-2,0307690862371E-6;
-2,65507122482488E-6;
-2,62882297460585E-6;
-2,75984980739201E-6;
-3,56796492329898E-6;
-4,78104520299295E-6;
-5,56365885405978E-6;
-5,22588425400443E-6;
-3,7695871402168E-6;
-1,83553078601559E-6;
-1,72447424108814E-7;
8,67566304584339E-7;
1,40823010674651E-6;
1,74130731142839E-6;
2,00221852670871E-6;
2,13429285408772E-6;
2,09803428359099E-6;
2,02540022168972E-6;
2,11076385868459E-6;
2,35637399978493E-6;
2,49142125692257E-6;
2,22548275873592E-6;
1,61996000390165E-6;
1,15875086112254E-6;
1,32804458003529E-6;
2,01022642846977E-6;
2,28778053382881E-6;
9,98413408512867E-7;
-2,27063376957139E-6;
-6,5522103590466E-6;
-9,87189124274698E-6;
-1,04923380092002E-5;
-8,13347423320064E-6;
-4,19276614863793E-6;
-7,34790378883602E-7;
9,85456148532349E-7;
1,29435336590609E-6;
1,56085965362893E-6;
2,83928527203179E-6;
4,88830357166111E-6;
6,4385532417104E-6;
6,47380503808156E-6;
5,34499453411206E-6;
4,61033253432692E-6;
5,59163261956451E-6;
7,84723172815978E-6;
9,00523658279728E-6;
6,36840222317705E-6;
-8,15755787611828E-7;
-1,02492375747372E-5;
-1,77063515944881E-5;
-1,97241439112893E-5;
-1,58934913087197E-5;
-9,00407616204029E-6;
-2,93181554970842E-6;
8,27550293523027E-8;
6,66794774232792E-7;
1,20465620225344E-6;
3,45551163374683E-6;
6,97797746896959E-6;
9,68511227773632E-6;
9,96731089297163E-6;
8,41229467029145E-6;
7,4550232749566E-6;
9,09818744567108E-6;
1,26357168442241E-5;
1,45122775146355E-5;
1,07834442074408E-5;
4,21490805538899E-7;
-1,3195929638477E-5;
-2,40194782631971E-5;
-2,71901656233889E-5;
-2,21946209637046E-5;
-1,29460425502769E-5;
-4,78018923693596E-6;
-7,307766812486E-7;
7,12761381619308E-8;
8,25501328940458E-7;
3,85588322393935E-6;
8,56026187830783E-6;
1,21974037076879E-5;
1,26837556488034E-5;
1,07962280603469E-5;
9,66843531870626E-6;
1,18445234583144E-5;
1,64077247677741E-5;
1,88631665419323E-5;
1,42781901244024E-5;
1,4078146254223E-6;
-1,55165344556407E-5;
-2,90062334445091E-5;
-3,31024021799698E-5;
-2,72097741407435E-5;
-1,61239482334768E-5;
-6,32519553149063E-6;
-1,46790540908617E-6;
-4,93827652254034E-7;
4,32353561121324E-7;
4,07401722102772E-6;
9,70341841097287E-6;
1,40711787566774E-5;
1,4726637261085E-5;
1,25933297382074E-5;
1,13443371280868E-5;
1,39406969729264E-5;
1,93029397460409E-5;
2,22144240094162E-5;
1,69853609168391E-5;
2,20526658798816E-6;
-1,72420416615401E-5;
-3,27712281151285E-5;
-3,75873996813417E-5;
-3,1033366357709E-5;
-1,85725774401539E-5;
-7,54930687409899E-6;
-2,0852094413935E-6;
-9,7971916759694E-7;
7,89199747070625E-8;
4,18213428671092E-6;
1,05078666216183E-5;
1,54283001770568E-5;
1,62204385262927E-5;
1,39167158752696E-5;
1,25886422363269E-5;
1,55038349082341E-5;
2,14626308947041E-5;
2,47193862557713E-5;
1,90316577504161E-5;
2,86925778255999E-6;
-1,84095531250979E-5;
-3,54253622518128E-5;
-4,0780308632835E-5;
-3,37729831741664E-5;
-2,03454961143222E-5;
-8,45882021091366E-6;
-2,56665887683655E-6;
-1,36736420804583E-6;
-2,12993704596175E-7;
4,21796870289955E-6;
1,10366894223583E-5;
1,63509677366496E-5;
1,72487775249149E-5;
1,48383403323019E-5;
1,34657662279478E-5;
1,66084555865644E-5;
2,29838640492057E-5;
2,64863702625078E-5;
2,05001126257756E-5;
3,41536635396028E-6;
-1,90909354035049E-5;
-3,71101289105722E-5;
-4,2845268041068E-5;
-3,55662970960722E-5;
-2,15287670379753E-5;
-9,09442775508975E-6;
-2,93100679332362E-6;
-1,67171469047942E-6;
-4,54672423013981E-7;
4,1863927325282E-6;
1,13198614121222E-5;
1,68884589664929E-5;
1,78636297970096E-5;
1,54005865507055E-5;
1,40124155082805E-5;
1,73022077107279E-5;
2,39369512112324E-5;
2,75977633005472E-5;
2,14508602987539E-5;
3,84184948429769E-6;
-1,93686007747988E-5;
-3,79719352740372E-5;
-4,39486576571321E-5;
-3,65536323290202E-5;
-2,22131035285069E-5;
-9,50307909339078E-6;
-3,20338292784482E-6;
-1,9130620669538E-6;
-6,61719712455786E-7;
4,08812588209201E-6;
1,13827606195212E-5;
1,70853518034171E-5;
1,8113214559623E-5;
1,56437986547252E-5;
1,42646606506034E-5;
1,76323440688707E-5;
2,43911926344342E-5;
2,81349825693844E-5;
2,19454042367351E-5;
4,15332373295826E-6;
-1,93124054134319E-5;
-3,8139687179815E-5;
-4,42375649177685E-5;
-3,68575246552698E-5;
-2,24746300871981E-5;
-9,71993387615172E-6;
-3,39838113220818E-6;
-2,10124133249354E-6;
-8,39392121510121E-7;
3,93324935537699E-6;
1,12584866022202E-5;
1,69926727538029E-5;
1,80520423596524E-5;
1,56152682512907E-5;
1,4265857511853E-5;
1,76525373239959E-5;
2,44206103092984E-5;
2,818318716557E-5;
2,20503974316396E-5;
4,363733864258E-6;
-1,89774142185429E-5;
-3,77232823721384E-5;
-4,38390620751144E-5;
-3,65828300382428E-5;
-2,23758356755281E-5;
-9,77012282464193E-6;
-3,5225488534794E-6;
-2,23875979373603E-6;
-9,86330710894612E-7;
3,73687920356404E-6;
1,09829874005127E-5;
1,66625236080956E-5;
1,7735095883681E-5;
1,53630220766309E-5;
1,40601005449063E-5;
1,74160359550104E-5;
2,40967968797989E-5;
2,78238784871408E-5;
2,18300724763965E-5;
4,48868103510993E-6;
-1,84116101613296E-5;
-3,6821339674324E-5;
-4,28679498163166E-5;
-3,58244787857707E-5;
-2,19733156835981E-5;
-9,67644532270033E-6;
-3,58201604008551E-6;
-2,32833718118564E-6;
-1,10197255209053E-6;
3,51190852078852E-6;
1,05879545196514E-5;
1,61411594295216E-5;
1,72111135083274E-5;
1,49293335229906E-5;
1,36859559741129E-5;
1,69696221858913E-5;
2,34831494814506E-5;
2,71294025742623E-5;
2,13410137764616E-5;
4,54047153450116E-6;
-1,7660589363845E-5;
-3,55256147802015E-5;
-4,1430861912995E-5;
-3,46712493211428E-5;
-2,13212089240035E-5;
-9,46247417583599E-6;
-3,58527577472935E-6;
-2,37537780272863E-6;
-1,18873868147492E-6;
3,26711467077442E-6;
1,00992433159966E-5;
1,54676861696837E-5;
1,65215437461723E-5;
1,43499131326788E-5;
1,31758900140276E-5;
1,6353301727776E-5;
2,26347992920797E-5;
2,61631094443113E-5;
2,06324915315801E-5;
4,52855029269098E-6;
-1,67670371802944E-5;
-3,39203777000306E-5;
-3,96254959056831E-5;
-3,32047832782875E-5;
-2,0469974762904E-5;
-9,1511247497459E-6;
-3,54160336572676E-6;
-2,38628107296454E-6;
-1,25023548708716E-6;
3,00906183971303E-6;
9,53887253086308E-6;
1,46761636385783E-5;
1,57026984746538E-5;
1,36560750656926E-5;
1,25584604808501E-5;
1,56025295461457E-5;
2,16008925252015E-5;
2,49816509608463E-5;
1,97486990963626E-5;
4,46160165726814E-6;
-1,57688252582159E-5;
-3,20806668120473E-5;
-3,75389280027988E-5;
-3,14978760911575E-5;
-1,94646043426653E-5;
-8,76280672224652E-6;
-3,45920804558254E-6;
-2,36664085259781E-6;
-1,28951886135564E-6;
2,74381416121152E-6;
8,92673777949682E-6;
1,37972771132016E-5;
1,47873556561884E-5;
1,28762381158721E-5;
1,18597010144992E-5;
1,47495332581177E-5;
2,04258882430366E-5;
2,36362244587258E-5;
1,87298493189421E-5;
4,34838484474003E-6;
-1,46984737087512E-5;
-3,00720032183117E-5;
-3,5247452546938E-5;
-2,9614294764688E-5;
-1,83443603106848E-5;
-8,31510216514509E-6;
-3,34491656659818E-6;
-2,32099061414918E-6;
-1,30888462804462E-6;
2,47712350021764E-6;
8,28080209580268E-6;
1,28585288782887E-5;
1,38048889815566E-5;
1,20359634903527E-5;
1,11031002892456E-5;
1,38232760905811E-5;
1,91495339435581E-5;
2,21725368476367E-5;
1,76120212410064E-5;
4,19734346398715E-6;
-1,35838392842742E-5;
-2,79513109806624E-5;
-3,28175758585212E-5;
-2,76096994735634E-5;
-1,7143533967043E-5;
-7,82338510228374E-6;
-3,20473440733252E-6;
-2,2533513509257E-6;
-1,31041669912875E-6;
2,21392751339865E-6;
7,61667558242154E-6;
1,18838786276097E-5;
1,27809165064832E-5;
1,1157569569288E-5;
1,03091947247443E-5;
1,28490899078787E-5;
1,78065947635454E-5;
2,06305848247984E-5;
1,64268681969267E-5;
4,01610114977112E-6;
-1,2448897595774E-5;
-2,57679119197869E-5;
-3,03070613876178E-5;
-2,55325519064232E-5;
-1,5892145741236E-5;
-7,30133134873921E-6;
-3,0442376974745E-6;
-2,16759773087361E-6;
-1,29631378278457E-6;
1,95811561661343E-6;
6,9474931289799E-6;
1,08937105318554E-5;
1,17373006029863E-5;
1,02601143884655E-5;
9,49554506691607E-6;
1,18487137350432E-5;
1,6426985560627E-5;
1,90448453219392E-5;
1,52017374070725E-5;
3,81135811768003E-6;
-1,13141344852158E-5;
-2,35641362778349E-5;
-2,77655839005891E-5;
-2,3424648659743E-5;
-1,46162468047631E-5;
-6,76102151734248E-6;
-2,86858820376579E-6;
-2,06742314706174E-6;
-1,26882754779774E-6;
1,71265488526952E-6;
6,28416039538979E-6;
9,90516434542527E-6;
1,06924969855498E-5;
9,3597166857495E-6;
8,67704037524871E-6;
1,08406479222437E-5;
1,50362230651573E-5;
1,7444777834405E-5;
1,39600877079129E-5;
3,58906266437847E-6;
-1,01966970889055E-5;
-2,13757277483681E-5;
-2,52352105271166E-5;
-2,13214725395194E-5;
-1,33380588086958E-5;
-6,21289462693313E-6;
-2,68238386754063E-6;
-1,95618839049427E-6;
-1,23008745006685E-6;
1,47984082753045E-6;
5,6356879731559E-6;
8,9325467621387E-6;
9,66196610202901E-6;
8,46991878749612E-6;
7,86624281239002E-6;
9,84053051377618E-6;
1,36558875313356E-5;
1,58553304507722E-5;
1,27218881901415E-5;
3,35454860215108E-6;
-9,11059465542627E-6;
-1,92323085806623E-5;
-2,2750938723446E-5;
-1,92526225996333E-5;
-1,207620195547E-5;
-5,66580046869095E-6;
-2,48962623597189E-6;
-1,83686378699945E-6;
-1,18203616422673E-6;
1,2614135506762E-6;
5,00941435363448E-6;
7,98762620327711E-6;
8,65848030282959E-6;
7,60195142263022E-6;
7,07360696107334E-6;
8,86139766819871E-6;
1,23039692250259E-5;
1,42973269240637E-5;
1,15039083574714E-5;
3,1125630985259E-6;
-8,06700109803216E-6;
-1,71579449538744E-5;
-2,03413455905473E-5;
-1,72423597152997E-5;
-1,08460209013709E-5;
-5,12712978505272E-6;
-2,29376867278142E-6;
-1,7120639368992E-6;
-1,12645018105136E-6;
1,05860751480633E-6;
4,41115457715597E-6;
7,07984554494616E-6;
7,69233970862765E-6;
6,76491030070334E-6;
6,30764251477431E-6;
7,91389602327615E-6;
1,09951617212421E-5;
1,27877925855253E-5;
1,03199618635139E-5;
2,86726212796993E-6;
-7,0745977589811E-6;
-1,51717447690392E-5;
-1,80292585711278E-5;
-1,53101479404675E-5;
-9,65992788103277E-6;
-4,60299240746643E-6;
-2,0977904181841E-6;
-1,58410997681532E-6;
-1,06497666325931E-6;
8,72186365943359E-7;
3,84532493812876E-6;
6,21654236288913E-6;
6,77160619247431E-6;
5,96594852809835E-6;
5,57508579622559E-6;
7,00647725925589E-6;
9,74115430071903E-6;
1,13403197877753E-5;
9,18116475871491E-6;
2,62221713994732E-6;
-6,1398653127636E-6;
-1,32884002547542E-5;
-1,58323738917026E-5;
-1,34711758592901E-5;
-8,52771540588923E-6;
-4,09833878247753E-6;
-1,90424192692068E-6;
-1,45503769092687E-6;
-9,99129838800363E-7;
7,02494553341657E-7;
3,31510949853318E-6;
5,4031749090565E-6;
5,90234099398552E-6;
5,21048452953963E-6;
4,88107910851889E-6;
6,14564700308899E-6;
8,55096098507049E-6;
9,96541399578743E-6;
8,09621287797711E-6;
2,38046858292625E-6;
-5,26735057754367E-6;
-1,1518698203401E-5;
-1,37638359784062E-5;
-1,1736827128941E-5;
-7,45683010150537E-6;
-3,61706649644531E-6;
-1,71526488729481E-6;
-1,32661805659326E-6;
-9,30285690407268E-7;
5,49544147280739E-7;
2,82262182986085E-6;
4,64356530703507E-6;
5,0888578206677E-6;
4,5024186388992E-6;
4,22937694889873E-6;
5,33618247548285E-6;
7,43122545915392E-6;
8,6708637959991E-6;
7,07165817466556E-6;
2,14456571891947E-6;
-4,45991153901671E-6;
-9,86998822020942E-6;
-1,18327739116732E-5;
-1,01151167617782E-5;
-6,45264072380724E-6;
-3,16213524931359E-6;
-1,53261851402251E-6;
-1,2003533679653E-6;
-8,596734795814E-7;
4,1306550442998E-7;
2,3690572003773E-6;
3,94011356057336E-6;
4,33395206210252E-6;
3,84432839464306E-6;
3,62250994496589E-6;
4,58136043176284E-6;
6,38652178221601E-6;
7,46206369092373E-6;
6,11216414957073E-6;
1,91661835647692E-6;
-3,71894812004676E-6;
-8,34663761040062E-6;
-1,0044827073785E-5;
-8,6111352025805E-6;
-5,51869511401198E-6;
-2,73566280020551E-6;
-1,35771260045491E-6;
-1,07750504819702E-6;
-7,88384090554463E-7;
2,92564379753271E-7;
1,95482945602006E-6;
3,29399997171591E-6;
3,63910112953898E-6;
3,23764191829628E-6;
3,06195851989719E-6;
3,88314677757337E-6;
5,41961658123731E-6;
6,34233180738702E-6;
5,22074215080789E-6;
1,69832442385513E-6;
-3,04462481989176E-6;
-6,95045545735007E-6;
-8,40263263247848E-6;
-7,22744057086479E-6;
-4,65696124903233E-6;
-2,33903693873873E-6;
-1,19164653117445E-6;
-9,59108644363597E-7;
-7,17364334859368E-7;
1,8736966204598E-7;
1,57968708185666E-6;
2,70535981077544E-6;
3,00466306362672E-6;
2,68281165488086E-6;
2,54829332266578E-6;
3,24237708200854E-6;
4,5317187165513E-6;
5,31318092249923E-6;
4,39896601580407E-6;
1,49101531295362E-6;
-2,43607269189316E-6;
-5,68109107466277E-6;
-6,90628068122618E-6;
-5,9644427567901E-6;
-3,86806309922416E-6;
-1,97301436932753E-6;
-1,03524241254819E-6;
-8,45998307230018E-7;
-6,47439454144944E-7;
9,66631248965987E-8;
1,24282866140739E-6;
2,17345640236629E-6;
2,43004948309655E-6;
2,17945644018744E-6;
2,08131092217749E-6;
2,65892596075289E-6;
3,72271597284393E-6;
4,37460113748658E-6;
3,64718699377667E-6;
1,29568470759287E-6;
-1,89158078715868E-6;
-4,53639082322325E-6;
-5,55372523187691E-6;
-4,8207447696916E-6;
-3,15148664199859E-6;
-1,63780788523197E-6;
-8,89071529095037E-7;
-7,3882314160028E-7;
-5,79313696818459E-7;
1,95269643493523E-8;
9,4300903883208E-7;
1,69683521785746E-6;
1,91389152931861E-6;
1,72650702065245E-6;
1,66016928227535E-6;
2,13187160028522E-6;
2,99139188864118E-6;
3,52529824365563E-6;
2,96471708413192E-6;
1,1130294134685E-6;
-1,40875285741182E-6;
-3,51272398161351E-6;
-4,34116418848746E-6;
-3,79345305135381E-6;
-2,50576611549931E-6;
-1,3331696603791E-6;
-7,53489025045625E-7;
-6,38062779697568E-7;
-5,13569548023365E-7;
-4,50281038692705E-8;
6,78624124965449E-7;
1,27346224458579E-6;
1,45418881902417E-6;
1,32233516122697E-6;
1,28350126191401E-6;
1,65963294313748E-6;
2,33561861410372E-6;
2,76292444912194E-6;
2,35001296295898E-6;
9,43482088307868E-7;
-9,84660420201419E-7;
-2,60528050984782E-6;
-3,26338498609539E-6;
-2,87846744574853E-6;
-1,92866456311625E-6;
-1,05846609874174E-6;
-6,28660524729661E-7;
-5,44053402435816E-7;
-4,50684799111346E-7;
-9,8031982017913E-8;
4,47805345096835E-7;
9,00849411472058E-7;
1,04843804417342E-6;
9,6487054890133E-7;
9,49519198583883E-7;
1,24009738699476E-6;
1,75253260623122E-6;
2,08427345717851E-6;
1,80083005956402E-6;
7,87250866676931E-7;
-6,15974732843236E-7;
-1,80832968600609E-6;
-2,31405719303015E-6;
-2,07073096588947E-6;
-1,41732755532459E-6;
-8,12754237939827E-7;
-5,14584821993006E-7;
-4,5699112438998E-7;
-3,91041169758765E-7;
-1,40536329789147E-7;
2,48483488458911E-7;
5,76169812098687E-7;
6,93757382050388E-7;
6,51697771398748E-7;
6,56112051555802E-7;
8,70741681201428E-7;
1,23870202522245E-6;
1,48547395939046E-6;
1,31436425265282E-6;
6,44342315149832E-7;
-2,9908180768417E-7;
-1,11546268645294E-6;
-1,48602449607872E-6;
-1,3644625096768E-6;
-9,68421841013071E-7;
-5,9483433695516E-7;
-4,11122399514152E-7;
-3,76961378265092E-7;
-3,34923550651638E-7;
-1,73586077434917E-7;
7,84543043523992E-8;
2,96346814501497E-7;
3,86988114959293E-7;
3,80152037720605E-7;
4,00922107020463E-7;
5,48733250265699E-7;
7,9025890033651E-7;
9,6214246575813E-7;
8,87387320136387E-7;
5,14594722337721E-7;
-3,01869998542074E-8;
-5,19791384872157E-7;
-7,71530944573174E-7;
-7,53356182798559E-7;
-5,78263075485817E-7;
-4,03313139276809E-7;
-3,18017943940909E-7;
-3,03948366361457E-7;
-2,82537749808999E-7;
-1,98211471324045E-7;
-6,45601018328487E-8;
5,81513934044776E-8;
1,24783088177344E-7;
1,47396722343856E-7;
1,81425455748741E-7;
2,71016487068277E-7;
4,03031695075781E-7;
5,09537852001265E-7;
5,16349918094672E-7;
3,97698734941577E-7;
1,94600966602408E-7;
-1,41299577419811E-8;
-1,62438335635572E-7;
-2,30760807198022E-7;
-2,42926636747186E-7;
-2,36655632580856E-7;
-2,34917683616679E-7;
-2,37848691806898E-7;
-2,34016295878698E-7;
-2,15408602603467E-7;
-1,82874004532219E-7;
-1,41733674183981E-7;
-9,6306551517766E-8;
-4,95096368638812E-8;
-5,00723128678972E-9;
3,44018638683038E-8;
7,26468581027395E-8;
1,22673839335185E-7;
1,97493309786414E-7;
2,93237799890959E-7;
3,79196793476219E-7;
4,08851159082755E-7;
3,4960073840748E-7;
2,10174711891706E-7;
4,16648447920138E-8;
-9,3220585017174E-8;
-1,61393523524642E-7;
-1,7848677312248E-7;
-1,89422643842667E-7;
-2,26128644444146E-7;
-2,7878633013935E-7;
-3,06649519504444E-7;
-2,79771500939711E-7;
-2,13545754545372E-7;
-1,61058627224825E-7;
-1,643789604361E-7;
-2,05370075670555E-7;
-2,03558165486777E-7;
-7,30713791731833E-8;
2,00687805292969E-7;
5,27466950341772E-7;
7,56493046336372E-7;
7,7297789643538E-7;
5,76363915977872E-7;
2,79648532498263E-7;
2,86862890858154E-8;
-9,69564638984938E-8;
-1,25630915524723E-7;
-1,48766459930479E-7;
-2,31271655926532E-7;
-3,54559910428347E-7;
-4,39900042743693E-7;
-4,29079205878726E-7;
-3,47687685631872E-7;
-2,89407415060118E-7;
-3,28602791180127E-7;
-4,35519497932093E-7;
-4,74305897134432E-7;
-2,99287421875975E-7;
1,19457613479535E-7;
6,43189664071777E-7;
1,0360386574721E-6;
1,11600613206987E-6;
8,74674324205809E-7;
4,75162732455072E-7;
1,30799906446213E-7;
-4,10703564221387E-8;
-7,89967366520532E-8;
-1,12004344247746E-7;
-2,3168299531569E-7;
-4,12383978215432E-7;
-5,44719568141104E-7;
-5,47632422376179E-7;
-4,54856799554758E-7;
-3,92704755312929E-7;
-4,61512512475653E-7;
-6,22254209124726E-7;
-6,94674837131001E-7;
-4,85087775194709E-7;
4,88978666284779E-8;
7,3001070358886E-7;
1,25454532975816E-6;
1,38680934502244E-6;
1,11183771540051E-6;
6,3227929329783E-7;
2,14844418471527E-7;
6,82856653907988E-9;
-3,82635422855198E-8;
-7,90500429334441E-8;
-2,28139410797221E-7;
-4,54355684685839E-7;
-6,24228186509003E-7;
-6,38728406547922E-7;
-5,37896652303628E-7;
-4,73527423095081E-7;
-5,66272642672255E-7;
-7,69928503613139E-7;
-8,69659289265718E-7;
-6,34340188299999E-7;
-1,1682349748276E-8;
7,91403485457057E-7;
1,41880921728306E-6;
1,59323827555462E-6;
1,29437452085009E-6;
7,549629565512E-7;
2,82525643062195E-7;
4,73244110998386E-8;
-3,0841656992101E-9;
-4,97837522600244E-8;
-2,21356981901705E-7;
-4,82466737246333E-7;
-6,81409927756188E-7;
-7,05525734582689E-7;
-5,99532948868745E-7;
-5,34362091055723E-7;
-6,4594342456006E-7;
-8,82747710435444E-7;
-1,00409325100692E-6;
-7,50804815697069E-7;
-6,29932077564954E-8;
8,30653877142068E-7;
1,53530740960359E-6;
1,74279535618341E-6;
1,42853264443845E-6;
8,4702780732363E-7;
3,35504345115408E-7;
8,10100642296969E-8;
2,69090041052711E-8;
-2,40551962730635E-8;
-2,11986827195428E-7;
-4,98589716894791E-7;
-7,1908963479884E-7;
-7,5102349289994E-7;
-6,42359725880282E-7;
-5,77576074983434E-7;
-7,03442754145909E-7;
-9,64736128340476E-7;
-1,10260759681701E-6;
-8,38099317524712E-7;
-1,05765076663192E-7;
8,50833302261E-7;
1,61015855237207E-6;
1,84258804908942E-6;
1,52024111736283E-6;
9,12106806806275E-7;
3,75381046784005E-7;
1,08477702593952E-7;
5,20976580325346E-8;
-1,68838200219754E-9;
-2,00612010571029E-7;
-5,04466198830507E-7;
-7,39913672120415E-7;
-7,78040123718537E-7;
-6,68824392311853E-7;
-6,05411358725798E-7;
-7,41539597592629E-7;
-1,01970818334023E-6;
-1,16959422980211E-6;
-8,99671459859528E-7;
-1,40724771892222E-7;
8,54797535247406E-7;
1,64908946455435E-6;
1,89928600118981E-6;
1,57507860994914E-6;
9,53633732419618E-7;
4,03685351776536E-7;
1,30311098687129E-7;
7,28669134061882E-8;
1,75076618308693E-8;
-1,8775456638604E-7;
-5,01706146737761E-7;
-7,46345619822629E-7;
-7,89206917796014E-7;
-6,81211794349921E-7;
-6,19963589392816E-7;
-7,628278918711E-7;
-1,05124467106866E-6;
-1,20918480518438E-6;
-9,38776728406023E-7;
-1,68591788908574E-7;
8,45172153197416E-7;
1,65741485207469E-6;
1,91909862136218E-6;
1,59825112614418E-6;
9,74824245970852E-7;
4,21864163179937E-7;
1,47079491442158E-7;
8,96045222876656E-8;
3,3739981034742E-8;
-1,73872641847313E-7;
-4,91780910650999E-7;
-7,40655976457389E-7;
-7,86955112878848E-7;
-6,81635952077224E-7;
-6,23181076036307E-7;
-7,69725663196617E-7;
-1,06268355004911E-6;
-1,22523566379727E-6;
-9,58462278183926E-7;
-1,90068421113037E-7;
8,24351022880805E-7;
1,64002944651721E-6;
1,90775725060546E-6;
1,59457069374739E-6;
9,78660023224508E-7;
4,31273725306135E-7;
1,59334406366029E-7;
1,02689087944621E-7;
4,72205114501769E-8;
-1,59366380766858E-7;
-4,76030079749614E-7;
-7,24919653309637E-7;
-7,73514090421465E-7;
-6,72047016201374E-7;
-6,16860343943361E-7;
-7,64465451843574E-7;
-1,05711077523326E-6;
-1,22131119868869E-6;
-9,61563530363987E-7;
-2,05837595264644E-7;
7,94504931279171E-7;
1,60140044678472E-6;
1,87051071529761E-6;
1,5684586155752E-6;
9,67892876652135E-7;
4,33178635826602E-7;
1,67599917525644E-7;
1,12493667519971E-7;
5,8170266987237E-8;
-1,44578376543758E-7;
-4,55656795559E-7;
-7,01024523534813E-7;
-7,50914343680968E-7;
-6,54216623016518E-7;
-6,02642422550677E-7;
-7,49089138696147E-7;
-1,03735413610245E-6;
-1,20068871837401E-6;
-9,50690593234461E-7;
-2,165514507094E-7;
7,5757912062247E-7;
1,54557990876758E-6;
1,81213051130015E-6;
1,52393915273871E-6;
9,45037056795211E-7;
4,28745896620073E-7;
1,72374471109894E-7;
1,19377185723564E-7;
6,68108982713011E-8;
-1,29799774085234E-7;
-4,31736907226404E-7;
-6,70663517045626E-7;
-7,20986290069377E-7;
-6,29750620465042E-7;
-5,82017147113632E-7;
-7,25457848580141E-7;
-1,00598844056926E-6;
-1,1663530293765E-6;
-9,28232987388861E-7;
-2,2282948149091E-7;
7,15303548467305E-7;
1,47620379572262E-6;
1,73691183000771E-6;
1,4646484604516E-6;
9,1237411851334E-7;
4,19042437745393E-7;
1,74127416912191E-7;
1,23685183836124E-7;
7,33585426632054E-8;
-1,15275199543494E-7;
-4,05221213663685E-7;
-6,35351099311553E-7;
-6,85369211976764E-7;
-6,00088961201464E-7;
-5,56324620955387E-7;
-6,95246416296729E-7;
-9,65336580386831E-7;
-1,12100026833928E-6;
-8,96360428018046E-7;
-2,25257427538827E-7;
6,6920280244146E-7;
1,3965109366188E-6;
1,64869956845666E-6;
1,39384563173563E-6;
8,7195371442548E-7;
4,05044117515149E-7;
1,73296738038503E-7;
1,25742240610202E-7;
7,80308201030401E-8;
-1,01202281037763E-7;
-3,76942236914158E-7;
-5,96422439132422E-7;
-6,45518856686084E-7;
-5,66513248338132E-7;
-5,26758520594027E-7;
-6,59953975958293E-7;
-9,17479513569856E-7;
-1,06704877480746E-6;
-8,5702480560606E-7;
-2,24381399889297E-7;
6,20608637666612E-7;
1,30936419167753E-6;
1,55089569074833E-6;
1,31442361899593E-6;
8,25607823271322E-7;
3,87628196858533E-7;
1,70288144209098E-7;
1,25856750199002E-7;
8,10316830156558E-8;
-8,77407007802411E-8;
-3,47619612482266E-7;
-5,55051745561574E-7;
-6,02712598054461E-7;
-5,30150343861229E-7;
-4,94377208440732E-7;
-6,20907965568737E-7;
-8,64264697787497E-7;
-1,00665328496051E-6;
-8,11974868401083E-7;
-2,20712078151843E-7;
5,70667270717643E-7;
1,2172657879571E-6;
1,44649028084299E-6;
1,22893317628067E-6;
7,74958000143926E-7;
3,67580728474364E-7;
1,65472311486773E-7;
1,24315899030221E-7;
8,25669091527707E-8;
-7,5010381757412E-8;
-3,17871618870934E-7;
-5,12250709174341E-7;
-5,5806351175495E-7;
-4,91985749446988E-7;
-4,60106448653964E-7;
-5,79279027258966E-7;
-8,0731549561307E-7;
-9,41706517136473E-7;
-7,62754748524531E-7;
-2,14715249110082E-7;
5,20356301300649E-7;
1,1223776538494E-6;
1,33807769062589E-6;
1,1395930450102E-6;
7,21420836194547E-7;
3,45599613525849E-7;
1,59190635767985E-7;
1,21385279151323E-7;
8,28231660656783E-8;
-6,31038637446179E-8;
-2,88221623696087E-7;
-4,68889805451502E-7;
-5,12527307189458E-7;
-4,52871084752211E-7;
-4,24747838101266E-7;
-5,36080059667428E-7;
-7,48050850542373E-7;
-8,73865760447633E-7;
-7,1072164262202E-7;
-2,06819157872782E-7;
4,70498269934715E-7;
1,02655178680446E-6;
1,22788947309226E-6;
1,04832065272896E-6;
6,66229537714261E-7;
3,22297684768477E-7;
1,51749932430305E-7;
1,17310244544668E-7;
8,19816406237562E-8;
-5,20821452042001E-8;
-2,59103676142717E-7;
-4,25704497056546E-7;
-4,66919801530361E-7;
-4,13533087917358E-7;
-3,88991822006215E-7;
-4,92186562280953E-7;
-6,87688390938435E-7;
-8,04558083600082E-7;
-6,57056206138662E-7;
-1,97414226508251E-7;
4,21773416104986E-7;
9,31350183820166E-7;
1,11782000824841E-6;
9,56750347272835E-7;
6,10440118234486E-7;
2,98210580159518E-7;
1,43426073349987E-7;
1,12313958761096E-7;
8,02108542522373E-8;
-4,19822431273083E-8;
-2,30869498959408E-7;
-3,83304889257976E-7;
-4,21920868365037E-7;
-3,74577660569431E-7;
-3,53417603472911E-7;
-4,48340602042037E-7;
-6,27268160653521E-7;
-7,35005894832239E-7;
-6,02771306625864E-7;
-1,86849282622386E-7;
3,74729358085188E-7;
8,3806809133135E-7;
1,00944977848607E-6;
8,66249103317488E-7;
5,5494417910882E-7;
2,73799036976182E-7;
1,34465107944662E-7;
1,06599781209879E-7;
7,76674524918129E-8;
-3,28213886589866E-8;
-2,03803144208656E-7;
-3,42190501559723E-7;
-3,78091998392677E-7;
-3,36515682541615E-7;
-3,18512216226163E-7;
-4,0516141331592E-7;
-5,67660385526203E-7;
-6,66233382157633E-7;
-5,48727917160192E-7;
-1,75439515059302E-7;
3,29800019829635E-7;
7,47762178381689E-7;
9,04077788696731E-7;
7,77952090547602E-7;
5,00489325027191E-7;
2,49454276298923E-7;
1,25082922469361E-7;
1,00345878781049E-7;
7,44944066539432E-8;
-2,45948603690477E-8;
-1,78122281448543E-7;
-3,02760976313545E-7;
-3,35885258500606E-7;
-2,99753232054927E-7;
-2,84671287150142E-7;
-3,63162716397456E-7;
-5,09585082948873E-7;
-5,99092547555911E-7;
-4,9564256035424E-7;
-1,63456442820835E-7;
2,87314698301754E-7;
6,61269050631027E-7;
8,0274837493785E-7;
6,92777337276047E-7;
4,47684721708541E-7;
2,25503252086235E-7;
1,1546961280485E-7;
9,37199675382923E-8;
7,08252493054283E-8;
-1,72893126199588E-8;
-1,53987005468971E-7;
-2,6532094095933E-7;
-2,95655273654602E-7;
-2,64617051616953E-7;
-2,52212068472151E-7;
-3,22755555143326E-7;
-4,53622127992197E-7;
-5,34271729816144E-7;
-4,44108746896087E-7;
-1,51146532954871E-7;
2,47512597911722E-7;
5,79236205989023E-7;
7,06275539964914E-7;
6,11446155812311E-7;
3,97018589066199E-7;
2,02218947635291E-7;
1,05788132494385E-7;
8,68594627845899E-8;
6,67765885431035E-8;
-1,08716275326678E-8;
-1,31506630041779E-7;
-2,30101153550783E-7;
-2,57669498427545E-7;
-2,31352946749791E-7;
-2,21377742661108E-7;
-2,842610174506E-7;
-4,0023067835798E-7;
-4,72315827002853E-7;
-3,94598057051341E-7;
-1,38720811745916E-7;
2,10550763637076E-7;
5,02137301394113E-7;
6,15271590164041E-7;
5,34508506844956E-7;
3,4886778825947E-7;
1,7982028131432E-7;
9,61785263090291E-8;
7,98915922196222E-8;
6,24568187653427E-8;
-5,30714759966278E-9;
-1,10750788491583E-7;
-1,97257886097936E-7;
-2,22118726294303E-7;
-2,00141607240647E-7;
-1,9235120998619E-7;
-2,47921371986281E-7;
-3,49755919757141E-7;
-4,13645712025519E-7;
-3,47481805252427E-7;
-1,26356659796913E-7;
1,76517234160922E-7;
4,30296120448574E-7;
5,30166692667213E-7;
4,62360374216354E-7;
3,03516004735487E-7;
1,58478225373103E-7;
8,67578245251503E-8;
7,2922245290779E-8;
5,79609400371953E-8;
-5,44814346969044E-10;
-9,17476279883058E-8;
-1,66887414381218E-7;
-1,89124541379549E-7;
-1,7110246833867E-7;
-1,65258951371584E-7;
-2,13909849156816E-7;
-3,0244752288952E-7;
-3,58561259601193E-7;
-3,03037102919422E-7;
-1,14208286436235E-7;
1,45445161055796E-7;
3,6390511486711E-7;
4,51236670822448E-7;
3,95267316938897E-7;
2,61157373951208E-7;
1,3832250809286E-7;
7,76229473598202E-8;
6,60429733466642E-8;
5,33719468347862E-8;
3,46528401157066E-9;
-7,44954473749337E-8;
-1,39033406218706E-7;
-1,58753830061893E-7;
-1,44306152386887E-7;
-1,40179480530709E-7;
-1,82336352474506E-7;
-2,58467344105766E-7;
-3,07266768625696E-7;
-2,6145922080963E-7;
-1,0240405630434E-7;
1,17312360869051E-7;
3,0304966589314E-7;
3,7862149407535E-7;
3,33373295465231E-7;
2,2191325335359E-7;
1,19444149886831E-7;
6,8852071083578E-8;
5,9331022870206E-8;
4,87638334302617E-8;
6,77889936675858E-9;
-5,89678932788658E-8;
-1,13694703038446E-7;
-1,31022982455655E-7;
-1,19775588921474E-7;
-1,17146044736233E-7;
-1,53259997120173E-7;
-2,17906980440805E-7;
-2,59881782307431E-7;
-2,22873121443477E-7;
-9,10433758709101E-8;
9,20592970685968E-8;
2,4771496086946E-7;
3,12349728985434E-7;
2,76728796723669E-7;
1,85841328119099E-7;
1,01905048701514E-7;
6,0507491838033E-8;
5,28501027520403E-8;
4,41979944241216E-8;
9,4551853227527E-9;
-4,51134614042122E-8;
-9,0836660337875E-8;
-1,0590865465275E-7;
-9,75005920384526E-8;
-9,6162835009081E-8;
-1,26694102618483E-7;
-1,80790903852565E-7;
-2,16445428928426E-7;
-1,87338833706083E-7;
-8,0209707275204E-8;
6,95904140441756E-8;
1,97808968840541E-7;
2,52348525289059E-7;
2,25298772625459E-7;
1,52945624979358E-7;
8,57355965277057E-8;
5,26340236831653E-8;
4,66492416550317E-8;
3,97290495482719E-8;
1,15521455238863E-8;
-3,28671303181458E-8;
-7,0384904778173E-8;
-8,33491370931346E-8;
-7,74382856395427E-8;
-7,71978125244959E-8;
-1,02613323110147E-7;
-1,47094234746898E-7;
-1,76939270526657E-7;
-1,54867788778088E-7;
-6,99671760594217E-8;
4,97863240249103E-8;
1,53175614975719E-7;
1,98466641900498E-7;
1,78977425850362E-7;
1,23181321951769E-7;
7,09432080298151E-8;
4,52655767412269E-8;
4,07683854001403E-8;
3,53989661518884E-8;
1,31293740683219E-8;
-2,21489533997354E-8;
-5,22538068354452E-8;
-6,32600061247628E-8;
-5,95193891591112E-8;
-6,01973072445839E-8;
-8,09599287969982E-8;
-1,16743950472917E-7;
-1,41290099892628E-7;
-1,25425036769907E-7;
-6,03588810519443E-8;
3,25057658856159E-8;
1,13606148026831E-7;
1,50490332577094E-7;
1,37602419816773E-7;
9,64681150680646E-8;
5,75167537833613E-8;
3,84246689925952E-8;
3,52375122990033E-8;
3,12444827159026E-8;
1,42442476716524E-8;
-1,28680199666304E-8;
-3,63269710968761E-8;
-4,55302872635454E-8;
-4,36574020569705E-8;
-4,50898261333591E-8;
-6,16498250814047E-8;
-8,96318445001674E-8;
-1,09383070801554E-7;
-9,89369571239849E-8;
-5,14152793396975E-8;
1,75910132275181E-8;
7,88516042035778E-8;
1,08156497478604E-7;
1,00969872430929E-7;
7,26939380830774E-8;
4,54241300218616E-8;
3,21195480300964E-8;
3,00765203485864E-8;
2,72945933790079E-8;
1,49522860601894E-8;
-4,92695090781305E-9;
-2,24777088798371E-8;
-3,00338727404428E-8;
-2,97456671298605E-8;
-3,17848401678634E-8;
-4,45840792113974E-8;
-6,5623362284574E-8;
-8,10674932556352E-8;
-7,53039150815337E-8;
-4,31543651946238E-8;
4,87912180392492E-9;
4,86351902773412E-8;
7,11560081339295E-8;
6,8835303706604E-8;
5,17255292451741E-8;
3,46233259962685E-8;
2,6354603349627E-8;
2,52984450063985E-8;
2,35709573243489E-8;
1,53091559251631E-8;
1,7743657145859E-9;
-1,0573073292881E-8;
-1,66349139913421E-8;
-1,76715425937563E-8;
-2,01823966695411E-8;
-2,96418319086083E-8;
-4,45587390390148E-8;
-5,61657655080493E-8;
-5,43984910851522E-8;
-3,55804637030028E-8;
-5,8031101980072E-9;
2,26566598331015E-8;
3,91595973746667E-8;
4,09317050204921E-8;
3,34068669295802E-8;
2,50595366372922E-8;
2,11229211224184E-8;
2,09068083750939E-8;
2,00886573190407E-8;
1,53630682303197E-8;
7,33926710271513E-9;
-4,66836489732071E-10;
-5,184330918079E-9;
-7,3092485477491E-9;
-1,01754010641105E-8;
-1,6696191861493E-8;
-2,62616726212597E-8;
-3,44801630161163E-8;
-3,60779396717503E-8;
-2,86902894686259E-8;
-1,46297562083925E-8;
6,03315427475585E-10;
1,1815609741088E-8;
1,69755013247482E-8;
1,75729198670807E-8;
1,66689317720021E-8;
1,64135864386557E-8;
1,69028103710446E-8;
1,68580504142907E-8;
1,51625235303642E-8;
1,18701591935161E-8;
7,98403804275045E-9;
4,46666531658413E-9;
1,46762249769028E-9;
-1,64634373178545E-9;
-5,60697495303808E-9;
-1,05488304685501E-8;
-1,5803068195072E-8;
-2,01860114853807E-8;
-2,24706647423931E-8;
-2,1775555531587E-8;
-1,78446920562598E-8;
-1,12376532401188E-8;
-3,33095635511665E-9;
4,04818687932054E-9;
9,381506484569E-9;
1,22091992572137E-8;
1,32817618645361E-8;
1,38826814750815E-8;
1,47502180634844E-8;
1,54716594071884E-8;
1,49270717889921E-8;
1,24711213406794E-8;
8,79057094604543E-9;
5,51983050323824E-9;
3,76701554880075E-9;
2,77573514772701E-9;
8,70442589082929E-11;
-6,5560523670775E-9;
-1,68999104199421E-8;
-2,74083044433141E-8;
-3,30080801974677E-8;
-3,03641655403021E-8;
-2,02852467743028E-8;
-7,34692066171539E-9;
3,1249259665526E-9;
8,488441370289E-9;
1,00320001911913E-8;
1,11664451584816E-8;
1,41681693196984E-8;
1,82409804450206E-8;
2,05069924350507E-8;
1,89824164009747E-8;
1,47900196403752E-8;
1,14399176562679E-8;
1,15674626463818E-8;
1,39066176073003E-8;
1,34143189104589E-8;
4,9818324273615E-9;
-1,19562157318921E-8;
-3,16924710830607E-8;
-4,51996438129662E-8;
-4,59266091194017E-8;
-3,41891615932105E-8;
-1,67962942025798E-8;
-2,18026430286822E-9;
5,22737461074893E-9;
7,14206851754225E-9;
8,70600731083294E-9;
1,3451544561535E-8;
2,02747650137556E-8;
2,48656049147275E-8;
2,41478607411012E-8;
1,95951637679233E-8;
1,62335510677607E-8;
1,7938322733403E-8;
2,30386943981066E-8;
2,44022754433036E-8;
1,4602636242619E-8;
-7,60884568255044E-9;
-3,47885491002342E-8;
-5,47282298925052E-8;
-5,8281144971192E-8;
-4,53394019743528E-8;
-2,44766770947537E-8;
-6,60759977256673E-9;
2,39999125472942E-9;
4,59500539997728E-9;
6,49549292244191E-9;
1,26330954842378E-8;
2,1662055142898E-8;
2,81392699223246E-8;
2,81130981870836E-8;
2,33275953514002E-8;
2,0011015038152E-8;
2,3019142457508E-8;
3,03661348201632E-8;
3,32725027826523E-8;
2,24775887066725E-8;
-3,82245194794184E-9;
-3,68441689650509E-8;
-6,1890911054592E-8;
-6,77699144498596E-8;
-5,4018942414172E-8;
-3,05639046183492E-8;
-1,02380745896167E-8;
-2,43772743532091E-11;
2,37344010258932E-9;
4,52735531497288E-9;
1,17431124843001E-8;
2,24914724159229E-8;
3,04569824665394E-8;
3,10151627828197E-8;
2,61103614587757E-8;
2,28858231582761E-8;
2,69475631949647E-8;
3,60747059696548E-8;
4,02385978996054E-8;
2,87742230087348E-8;
-5,64900895731492E-10;
-3,80013148296489E-8;
-6,69701592319628E-8;
-7,47247510529494E-8;
-6,05069266012524E-8;
-3,52296119827388E-8;
-1,31460671627695E-8;
-2,07308510225391E-9;
4,5798562944878E-10;
2,79188397498556E-9;
1,08059990935771E-8;
2,28403274786484E-8;
3,19406467746292E-8;
3,29861607559534E-8;
2,80575621862705E-8;
2,49601175107792E-8;
2,98515604503633E-8;
4,03452951804306E-8;
4,55099773062136E-8;
3,36591205145064E-8;
2,20378209266228E-9;
-3,8390514548794E-8;
-7,02318071690504E-8;
-7,94553973136486E-8;
-6,50652449748141E-8;
-3,8637634217711E-8;
-1,54074653739612E-8;
-3,77853248214267E-9;
-1,17419467191686E-9;
1,27691677243078E-9;
9,84470866084274E-9;
2,27833231436781E-8;
3,27064855580315E-8;
3,41488281654353E-8;
2,92766895233854E-8;
2,63364001498014E-8;
3,1855703370304E-8;
4,33496000325952E-8;
4,92862622774272E-8;
3,72888142945413E-8;
4,51977697036311E-9;
-3,81323762575196E-8;
-7,19258085720364E-8;
-8,22577741137714E-8;
-6,79408640477762E-8;
-4,09401391000582E-8;
-1,70914393684149E-8;
-5,16771198365774E-9;
-2,54128684927269E-9;
-2,94503097139089E-11;
8,87682097940605E-9;
2,23882868846526E-8;
3,2860894860704E-8;
3,46198365603432E-8;
2,98696826898671E-8;
2,71069873472008E-8;
3,30786175382199E-8;
4,52486192398139E-8;
5,17519262205383E-8;
3,98133187874254E-8;
6,42181372392093E-9;
-3,73392976321237E-8;
-7,22851262722667E-8;
-8,34045553680848E-8;
-6,93677568402326E-8;
-4,22859549025946E-8;
-1,82683244068722E-8;
-6,2735548083615E-9;
-3,66696502162481E-9;
-1,14049329248738E-9;
7,92010954790714E-9;
2,17178948511739E-8;
3,25017312625787E-8;
3,45033409107823E-8;
2,99290473762571E-8;
2,73589986933052E-8;
3,36276543585376E-8;
4,61948391945533E-8;
5,30846013245136E-8;
4,13737933286514E-8;
7,94650326518354E-9;
-3,61118927082092E-8;
-7,15222434349794E-8;
-8,31497758764312E-8;
-6,9559226376863E-8;
-4,28087365027103E-8;
-1,9001917661608E-8;
-7,12334621202957E-9;
-4,57353318181655E-9;
-2,07042900712473E-9;
6,98994816224083E-9;
2,08282259511719E-8;
3,17196470843449E-8;
3,38992416709004E-8;
2,9541051483324E-8;
2,71740387380499E-8;
3,36047775769716E-8;
4,63278010893903E-8;
5,3449623791623E-8;
4,21029286634035E-8;
9,13269289147777E-9;
-3,45377177728345E-8;
-6,98333299968351E-8;
-8,17258063762578E-8;
-6,87139035787457E-8;
-4,26352849247238E-8;
-1,93530287092736E-8;
-7,74428138838781E-9;
-5,27997770941435E-9;
-2,83605463954849E-9;
6,09377762447044E-9;
1,97686002458463E-8;
3,0594489542458E-8;
3,28945683564388E-8;
2,8784846753847E-8;
2,66258789052442E-8;
3,31025440922604E-8;
4,57771842205233E-8;
5,29955792600774E-8;
4,21244710988379E-8;
1,00164201797092E-8;
-3,27012047634322E-8;
-6,73945053394599E-8;
-7,93442858994171E-8;
-6,70124083256207E-8;
-4,1878007196288E-8;
-1,93760901525413E-8;
-8,16423039107327E-9;
-5,80855187221212E-9;
-3,44944681568949E-9;
5,24155342400629E-9;
1,85816474209403E-8;
2,91992152342716E-8;
3,15714855192166E-8;
2,77315772236806E-8;
2,57797080381122E-8;
3,22058751963274E-8;
4,46614495770955E-8;
5,18613776847045E-8;
4,15512773474832E-8;
1,06307875187065E-8;
-3,06715480650525E-8;
-6,43631084019403E-8;
-7,61977617667602E-8;
-6,46204604867248E-8;
-4,06442143430969E-8;
-1,91237715767132E-8;
-8,40842971860339E-9;
-6,17949444527039E-9;
-3,9255566360314E-9;
4,43938867622355E-9;
1,73082090529786E-8;
2,76006137213581E-8;
2,99998458220801E-8;
2,64438522866295E-8;
2,46976130476545E-8;
3,09920544939722E-8;
4,30889156028406E-8;
5,01741957821133E-8;
4,0484670028674E-8;
1,10090861247083E-8;
-2,85112341313687E-8;
-6,0882515404408E-8;
-7,24532785121335E-8;
-6,16821467928758E-8;
-3,90287131250643E-8;
-1,8644658602889E-8;
-8,50205919470817E-9;
-6,41164920095958E-9;
-4,27979163253597E-9;
3,69228379801919E-9;
1,59812099836201E-8;
2,5853571514333E-8;
2,82446873136393E-8;
2,49808245313531E-8;
2,34342707001813E-8;
2,95289688365074E-8;
4,11529943914288E-8;
4,80458530431378E-8;
3,90219255785398E-8;
1,11815032538598E-8;
-2,62772784916508E-8;
-5,70777164071196E-8;
-6,82655098861861E-8;
-5,83289369986041E-8;
-3,71158942171268E-8;
-1,79801603267387E-8;
-8,46493933230057E-9;
-6,52188508782901E-9;
-4,52222977369239E-9;
3,00365260027951E-9;
1,46301751696437E-8;
2,40098655226597E-8;
2,63609022373495E-8;
2,33912806109092E-8;
2,20359084298296E-8;
2,78789293314012E-8;
3,89434572822836E-8;
4,5577345451889E-8;
3,72435706980806E-8;
1,1179728390228E-8;
-2,40122360188914E-8;
-5,30572584010247E-8;
-6,37682731411795E-8;
-5,46794556583461E-8;
-3,49806901475711E-8;
-1,71692189661335E-8;
-8,31809377649653E-9;
-6,52812192733582E-9;
-4,66984932861747E-9;
2,37568405918967E-9;
1,32799894433276E-8;
2,21130394587046E-8;
2,43981797236485E-8;
2,17186319858181E-8;
2,05457168862923E-8;
2,609575895779E-8;
3,6534506441743E-8;
4,28598755907851E-8;
3,5228184294561E-8;
1,10291143869873E-8;
-2,17568415761333E-8;
-4,89143427079194E-8;
-5,90761963180552E-8;
-5,08322964680538E-8;
-3,26900685889955E-8;
-1,62480932341423E-8;
-8,08089045181455E-9;
-6,44466390505352E-9;
-4,7338888992988E-9;
1,80696627029142E-9;
1,1951215932581E-8;
2,01988544818323E-8;
2,23976200172535E-8;
2,00023658215493E-8;
1,899949028122E-8;
2,42266582028057E-8;
3,39926670095792E-8;
3,99704994500345E-8;
3,30402365523082E-8;
1,07532167662213E-8;
-1,95451343957216E-8;
-4,47310528608987E-8;
-5,4288892516615E-8;
-4,68763276726822E-8;
-3,03018106611011E-8;
-1,5245786742285E-8;
-7,77254380797426E-9;
-6,28890332149832E-9;
-4,72418224966322E-9;
1,29919289115086E-9;
1,06581072539417E-8;
1,82985608125888E-8;
2,0394440601884E-8;
1,82719344757481E-8;
1,74292715199613E-8;
2,23114596558187E-8;
3,137548032625E-8;
3,69793733258058E-8;
3,07384294175295E-8;
1,03764570049838E-8;
-1,74014140662374E-8;
-4,05755119442002E-8;
-4,94929242094089E-8;
-4,28855506366471E-8;
-2,78662618056761E-8;
-1,41886668686451E-8;
-7,40464844614307E-9;
-6,07270547226704E-9;
-4,6534335252832E-9;
8,48416356115254E-10;
9,41639498622922E-9;
1,64398151182819E-8;
1,84202365045362E-8;
1,6559044531122E-8;
1,58614946535204E-8;
2,03851271394794E-8;
2,87335238145596E-8;
3,3945999926402E-8;
2,83735835968752E-8;
9,91699762304724E-9;
-1,5349579796022E-8;
-3,65047667572985E-8;
-4,47589321207033E-8;
-3,8924718274121E-8;
-2,54250758666296E-8;
-1,31008116157793E-8;
-6,99361392725009E-9;
-5,80744646640523E-9;
-4,53236988145644E-9;
4,54362559011876E-10;
8,2370932982383E-9;
1,46424888164596E-8;
1,6498241407693E-8;
1,48819752569361E-8;
1,43185928065799E-8;
1,84782140430121E-8;
2,61070326978274E-8;
3,09183162106863E-8;
2,59886977325967E-8;
9,3971880434374E-9;
-1,34019252412539E-8;
-3,25647716658852E-8;
-4,01454560021395E-8;
-3,50436839430555E-8;
-2,30160522270448E-8;
-1,2003037788806E-8;
-6,54996431926242E-9;
-5,50493644432194E-9;
-4,3674976878766E-9;
1,15589092402587E-10;
7,12688475521037E-9;
1,29212061454944E-8;
1,46466729151917E-8;
1,32617004824469E-8;
1,28184714772462E-8;
1,66150992023307E-8;
2,3533817810977E-8;
2,79402942727756E-8;
2,36207940624812E-8;
8,8300196732973E-9;
-1,15731037522372E-8;
-2,87901234716867E-8;
-3,57005161917839E-8;
-3,12878443046543E-8;
-2,066520057949E-8;
-1,09122821950441E-8;
-6,0871411049484E-9;
-5,17359297440811E-9;
-4,17037201002298E-9;
-1,74179981008622E-10;
6,0914239708344E-9;
1,1292237170317E-8;
1,28839578251614E-8;
1,1711338431676E-8;
1,13778111995471E-8;
1,48156303901108E-8;
2,10385418682397E-8;
2,50438431513028E-8;
2,12996817429292E-8;
8,23232669207932E-9;
-9,87098131357183E-9;
-2,52113454738418E-8;
-3,14616716879342E-8;
-2,76915645442558E-8;
-1,83996077644737E-8;
-9,84191023309217E-9;
-5,61347094341573E-9;
-4,82544753757508E-9;
-3,94736649360697E-9;
-4,16151801305161E-10;
5,13402807016589E-9;
9,76312683988642E-9;
1,12199113793301E-8;
1,02439406090202E-8;
1,00062095662655E-8;
1,30930396475496E-8;
1,8646889627714E-8;
2,22604016417504E-8;
1,90509325184218E-8;
7,61510935266849E-9;
-8,30012677439242E-9;
-2,18479023577969E-8;
-2,74551149550511E-8;
-2,42776341508936E-8;
-1,62361825243896E-8;
-8,80433218261126E-9;
-5,13557454067167E-9;
-4,4631170011299E-9;
-3,70453870211995E-9;
-6,1473699026755E-10;
4,25668318805692E-9;
8,33939370535652E-9;
9,66198398900287E-9;
8,86400620036552E-9;
8,71056415461202E-9;
1,14626739653678E-8;
1,63758264555475E-8;
1,96082907759876E-8;
1,68959312948995E-8;
6,99177978614651E-9;
-6,86291275073221E-9;
-1,87149004999639E-8;
-2,3703589738819E-8;
-2,10693034763862E-8;
-1,41920845477287E-8;
-7,80939389928698E-9;
-4,66234190913198E-9;
-4,09751312126344E-9;
-3,44969767996388E-9;
-7,73611233770869E-10;
3,45940636690473E-9;
7,02629076579654E-9;
8,21871597328241E-9;
7,58184842566062E-9;
7,50084786733281E-9;
9,93128363388118E-9;
1,42365235906588E-8;
1,71054757598734E-8;
1,48482311090049E-8;
6,36862695998187E-9;
-5,55875160098373E-9;
-1,58191118283896E-8;
-2,02190704083447E-8;
-1,8076968382712E-8;
-1,22728682941369E-8;
-6,86209182858969E-9;
-4,19897762148659E-9;
-3,73283057109108E-9;
-3,18629681361455E-9;
-8,9535076933797E-10;
2,73990991726413E-9;
5,82280490453897E-9;
6,89059100217074E-9;
6,39803539944601E-9;
6,37809926759831E-9;
8,5051908655594E-9;
1,22401886617558E-8;
1,4762724370887E-8;
1,29200279727375E-8;
5,75643044635539E-9;
-4,38676559517741E-9;
-1,31662254586156E-8;
-1,70087308166993E-8;
-1,53109206057058E-8;
-1,04893890527967E-8;
-5,97030850812909E-9;
-3,75028221981189E-9;
-3,37286682993574E-9;
-2,92083990027678E-9;
-9,85967732807751E-10;
2,09882124839681E-9;
4,73230928819205E-9;
5,6774353752373E-9;
5,31282582859869E-9;
5,3458574852021E-9;
7,18734803400262E-9;
1,0391549272483E-8;
1,25880193642667E-8;
1,11175663590441E-8;
5,1611892691842E-9;
-3,33926371038436E-9;
-1,07535624022039E-8;
-1,40742786052623E-8;
-1,27727186038702E-8;
-8,84484160388852E-9;
-5,13700479662372E-9;
-3,31980782199098E-9;
-3,02299158233608E-9;
-2,65578074125282E-9;
-1,04702063129443E-9;
1,53068193774947E-9;
3,74955179067167E-9;
4,57935033830706E-9;
4,32733170685551E-9;
4,40373564572042E-9;
5,97979317309733E-9;
8,69323108299412E-9;
1,05846048313268E-8;
9,44866569221675E-9;
4,58859053488738E-9;
-2,41516351598385E-9;
-8,57733463640959E-9;
-1,14134235153274E-8;
-1,04629112292927E-8;
-7,33852408545115E-9;
-4,36470166293444E-9;
-2,91169779732311E-9;
-2,6853033836816E-9;
-2,39459143453779E-9;
-1,08380986669988E-9;
1,03260214278597E-9;
2,87388703003852E-9;
3,59445982384353E-9;
3,43947649531569E-9;
3,55130309760275E-9;
4,88185785724478E-9;
7,14508906592101E-9;
8,75469017084682E-9;
7,91447468614269E-9;
4,04238101723162E-9;
-1,60706625811461E-9;
-6,63393426103169E-9;
-9,0218698796997E-9;
-8,376508021234E-9;
-5,97076184954865E-9;
-3,65470005113865E-9;
-2,52623071057459E-9;
-2,36298133034238E-9;
-2,14182489309022E-9;
-1,09674083385679E-9;
6,02668331879548E-10;
2,09797564050038E-9;
2,71782194630617E-9;
2,64637419848725E-9;
2,78496141301314E-9;
3,89269084695987E-9;
5,74556564307939E-9;
7,0942049791051E-9;
6,51472001872581E-9;
3,52511850428942E-9;
-9,08375207053046E-10;
-4,90977774688236E-9;
-6,88880374462184E-9;
-6,50967931799495E-9;
-4,73857758449883E-9;
-3,00525745355917E-9;
-2,16759338377937E-9;
-2,06033029454188E-9;
-1,89826945269148E-9;
-1,09208234831701E-9;
2,33198913085415E-10;
1,41874071668196E-9;
1,94344502709008E-9;
1,94322723031421E-9;
2,1039499375881E-9;
3,00671795127478E-9;
4,48892120294862E-9;
5,60152244721947E-9;
5,24756842342974E-9;
3,03980167170891E-9;
-3,10200422127355E-10;
-3,39513235668649E-9;
-5,00349459467216E-9;
-4,85247665005935E-9;
-3,63792410721924E-9;
-2,41793446065183E-9;
-1,83418782338574E-9;
-1,77395441038522E-9;
-1,66540486945674E-9;
-1,0707398086089E-9;
-7,80511769627128E-11;
8,30305011634439E-10;
1,26847636240738E-9;
1,32692106977875E-9;
1,5029065198267E-9;
2,22116046533006E-9;
3,37198743499424E-9;
4,27018745636741E-9;
4,11011281959024E-9;
2,58955828354578E-9;
1,93666570403742E-10;
-2,08004658552745E-9;
-3,35267411443167E-9;
-3,39334601773669E-9;
-2,66398629148822E-9;
-1,89039986509012E-9;
-1,52634302123999E-9;
-1,50839209505727E-9;
-1,44590362068925E-9;
-1,03707337106412E-9;
-3,3725991534756E-10;
3,26170822821338E-10;
6,84568360963994E-10;
7,91068199625882E-10;
9,76893847395147E-10;
1,53165120081969E-9;
2,3878371699441E-9;
3,09194198076738E-9;
3,09719272200702E-9;
2,17287031498185E-9;
6,09944779245609E-10;
-9,50086897063593E-10;
-1,92227680733297E-9;
-2,12230122629563E-9;
-1,80841645312438E-9;
-1,4208477348398E-9;
-1,24708218418328E-9;
-1,26301383758887E-9;
-1,24050256158642E-9;
-9,93562342290488E-10;
-5,48554257271209E-10;
-1,00281288315294E-10;
1,87053449199137E-10;
3,32469554427091E-10;
5,21836516051913E-10;
9,29636450116937E-10;
1,52825854290265E-9;
2,0608595334486E-9;
2,20230098144182E-9;
1,79114739139746E-9;
9,50262123424659E-10;
1,00061480941867E-11;
-6,98461101695747E-10;
-1,02943574779574E-9;
-1,06503864543406E-9;
-1,00493877650756E-9;
-9,94194473376252E-10;
-1,03861700080738E-9;
-1,04942648429584E-9;
-9,41252689998813E-10;
-7,16305865274638E-10;
-4,55041595119762E-10;
-2,32630500044887E-10;
-5,69203503678906E-11;
1,34962157615911E-10;
4,14724756637991E-10;
7,86506241145653E-10;
1,1653502103978E-9;
1,41992576087274E-9;
1,44466579237651E-9;
1,21869945802098E-9;
8,1079464510815E-10;
3,35964383093398E-10;
-9,71758860701683E-11;
-4,27164659045365E-10;
-6,42607342569158E-10;
-7,65536858160364E-10;
-8,33686269689447E-10;
-8,72570697102915E-10;
-8,82790513972755E-10;
-8,46359814441171E-10;
-7,44324199213199E-10;
-5,79120264535436E-10;
-3,81528647994769E-10;
-1,92603627685077E-10;
-2,54973016456662E-11;
1,52649849941942E-10;
3,98080153890584E-10;
7,42771021048259E-10;
1,13281595886924E-9;
1,42556248730498E-9;
1,46998208459515E-9;
1,19775609819201E-9;
6,84019450278444E-10;
1,13857304135807E-10;
-3,28598811749767E-10;
-5,62633117855984E-10;
-6,49371258426229E-10;
-7,11201219149512E-10;
-8,19344987680552E-10;
-9,41296274505073E-10;
-9,75074350684594E-10;
-8,61164224778097E-10;
-6,48423758301727E-10;
-4,62333038475641E-10;
-3,91952394560508E-10;
-3,80745818013906E-10;
-2,50013571313942E-10;
1,63972685329908E-10;
8,5174262895937E-10;
1,57554474899828E-9;
1,99831922424205E-9;
1,90116454778311E-9;
1,32813092319733E-9;
5,64375198782466E-10;
-5,93372137268107E-11;
-3,84086555812187E-10;
-4,84816630917805E-10;
-5,64031639043806E-10;
-7,54810162839326E-10;
-1,00627840648961E-9;
-1,15410430087343E-9;
-1,08448652958639E-9;
-8,61297467796541E-10;
-6,84271979417733E-10;
-6,94812825632335E-10;
-8,21721893627084E-10;
-7,91501076563367E-10;
-3,24402080889475E-10;
6,03320937947844E-10;
1,67667708699483E-9;
2,4124356960664E-9;
2,46178652331949E-9;
1,84796948019431E-9;
9,36197691416409E-10;
1,67332363377645E-10;
-2,27105616105188E-10;
-3,38266817843747E-10;
-4,32800425636513E-10;
-6,87457956992407E-10;
-1,04513685032376E-9;
-1,28674546474721E-9;
-1,2554093354582E-9;
-1,02772950666449E-9;
-8,57668770722211E-10;
-9,37380867175607E-10;
-1,18150044856476E-9;
-1,23356273098327E-9;
-7,29493428293935E-10;
3,84113032224103E-10;
1,73623521600767E-9;
2,7219165301064E-9;
2,89448938538285E-9;
2,25739869344893E-9;
1,23317417920724E-9;
3,55395976681774E-10;
-9,23079658657045E-11;
-2,10714106456914E-10;
-3,13905512445625E-10;
-6,19880453451186E-10;
-1,06136718657131E-9;
-1,37698556790502E-9;
-1,37915549784976E-9;
-1,15138578993617E-9;
-9,9109922570446E-10;
-1,12751057336061E-9;
-1,46442831815778E-9;
-1,5865948393878E-9;
-1,05929737584544E-9;
1,95538778959397E-10;
1,75923017794334E-9;
2,94104499811877E-9;
3,21646246049994E-9;
2,56728996164365E-9;
1,46373916109743E-9;
5,07280531257581E-10;
2,19141145114595E-11;
-1,00097542107339E-10;
-2,10763567316117E-10;
-5,55085251015494E-10;
-1,05945587036767E-9;
-1,43344352480413E-9;
-1,46300014682413E-9;
-1,23659667665063E-9;
-1,0880065914431E-9;
-1,27224280040961E-9;
-1,68230065868849E-9;
-1,860816475943E-9;
-1,32231429153839E-9;
3,24657102420083E-11;
1,75246517301883E-9;
3,08029561721535E-9;
3,43700080726992E-9;
2,78976195230581E-9;
1,63743876008763E-9;
6,30101464081254E-10;
1,19708412673518E-10;
-4,72893785068417E-12;
-1,18806353431158E-10;
-4,90249243113098E-10;
-1,04195802057223E-9;
-1,4587466381384E-9;
-1,51082108428336E-9;
-1,29263217565719E-9;
-1,15471497730277E-9;
-1,3723249366433E-9;
-1,83907553554151E-9;
-2,06383378003288E-9;
-1,52369504227216E-9;
-1,0626999764815E-10;
1,71936677906834E-9;
3,15269307823697E-9;
3,57225841593453E-9;
2,93497401068414E-9;
1,7595599628554E-9;
7,23204365700278E-10;
1,99705306279685E-10;
7,61053666567456E-11;
-4,06975863671492E-11;
-4,28759130963696E-10;
-1,01018236540397E-9;
-1,4567605385789E-9;
-1,52820523130018E-9;
-1,3194546740519E-9;
-1,19300703048344E-9;
-1,43847986214887E-9;
-1,94550539909902E-9;
-2,20499357667947E-9;
-1,67244103092668E-9;
-2,2221393761733E-10;
1,66636070218237E-9;
3,16585014405324E-9;
3,6328436004182E-9;
3,01517324439778E-9;
1,83570285494082E-9;
7,89850010341452E-10;
2,64464933770949E-10;
1,44117121910358E-10;
2,66144659539005E-11;
-3,70726020360522E-10;
-9,68806013434572E-10;
-1,43617269458202E-9;
-1,52225038297155E-9;
-1,32117174814412E-9;
-1,20669616899121E-9;
-1,47162926988734E-9;
-2,00562244134139E-9;
-2,29215337071427E-9;
-1,77258897715791E-9;
-3,16319734703212E-10;
1,59618362663875E-9;
3,13044662900714E-9;
3,63092287398902E-9;
3,03798683962808E-9;
1,87431256840016E-9;
8,3747518296703E-10;
3,16524874908953E-10;
1,98715472907325E-10;
8,34963891299076E-11;
-3,15214247491297E-10;
-9,20328211880235E-10;
-1,39605630011512E-9;
-1,49322676172595E-9;
-1,30565412422662E-9;
-1,20264251330104E-9;
-1,48035539706868E-9;
-2,02876743690399E-9;
-2,33208948337069E-9;
-1,83253802528618E-9;
-3,91889109305312E-10;
1,51392593032463E-9;
3,05498734432024E-9;
3,57687314141855E-9;
3,013075772168E-9;
1,87879944914267E-9;
8,64064138698445E-10;
3,55309112958122E-10;
2,42973417061377E-10;
1,31280265589893E-10;
-2,63366629690898E-10;
-8,649847253902E-10;
-1,34252066219689E-9;
-1,44801404188193E-9;
-1,2714407940328E-9;
-1,18052630003383E-9;
-1,46610392705817E-9;
-2,01864859883044E-9;
-2,33304693465615E-9;
-1,85674364383902E-9;
-4,50023520890402E-10;
1,42186295838817E-9;
2,94581625230585E-9;
3,47861730109089E-9;
2,94941379969628E-9;
1,85672223470861E-9;
8,75333907481709E-10;
3,83232132085591E-10;
2,76262373700953E-10;
1,69726059324984E-10;
-2,16335352086856E-10;
-8,06737488385409E-10;
-1,27667870159428E-9;
-1,38748743969241E-9;
-1,22603913022243E-9;
-1,14515259573578E-9;
-1,43126972439725E-9;
-1,98087973762935E-9;
-2,29958744665473E-9;
-1,85074871377339E-9;
-4,94413108278624E-10;
1,32316748335451E-9;
2,8123710359759E-9;
3,34700611965687E-9;
2,85320622997588E-9;
1,81090620348551E-9;
8,71505336340833E-10;
4,01208894302184E-10;
3,00950012352214E-10;
1,98869772990909E-10;
-1,71835608066126E-10;
-7,42651111094855E-10;
-1,2032914713469E-9;
-1,31710417778464E-9;
-1,16904261927475E-9;
-1,09965561842842E-9;
-1,38212397091817E-9;
-1,92127926667934E-9;
-2,24086593330281E-9;
-1,82009034363043E-9;
-5,24459872845546E-10;
1,22097404372388E-9;
2,65935106702887E-9;
3,18706040974351E-9;
2,73176086214141E-9;
1,74627328025808E-9;
8,5487770213733E-10;
4,11627060951618E-10;
3,18095686591336E-10;
2,21511354729888E-10;
-1,32633177862632E-10;
-6,80594594837881E-10;
-1,12379232173159E-9;
-1,23782437109627E-9;
-1,10389253697929E-9;
-1,04449906266848E-9;
-1,32104479761629E-9;
-1,8439488033378E-9;
-2,15835616149002E-9;
-1,76797022567329E-9;
-5,43153104609697E-10;
1,11639875682536E-9;
2,49293199273555E-9;
3,00780435731092E-9;
2,58915985870213E-9;
1,66794724192695E-9;
8,31512989851138E-10;
4,14103582934467E-10;
3,28103506644103E-10;
2,3834608868822E-10;
-9,79010841298044E-11;
-6,18124804069241E-10;
-1,04103645136485E-9;
-1,1554848484359E-9;
-1,0344350651789E-9;
-9,82966890358997E-10;
-1,25147835346663E-9;
-1,75281497101467E-9;
-2,05820506396623E-9;
-1,69998234558752E-9;
-5,50560180495051E-10;
1,01364361674566E-9;
2,31529307202971E-9;
2,81180892675775E-9;
2,4329011231101E-9;
1,57765656411613E-9;
7,9827073536646E-10;
4,10828122473912E-10;
3,31862289358605E-10;
2,48306312101424E-10;
-6,62811590973045E-11;
-5,55323110316472E-10;
-9,55274695656221E-10;
-1,06738456576992E-9;
-9,59855762990018E-10;
-9,17280558562293E-10;
-1,17376962421802E-9;
-1,65001051288207E-9;
-1,94549938396912E-9;
-1,619750256001E-9;
-5,50512529042926E-10;
9,115756019841E-10;
2,13479478045062E-9;
2,60945738066754E-9;
2,26654644820157E-9;
1,47987112973133E-9;
7,60826810565889E-10;
4,02029035973024E-10;
3,30158214829581E-10;
2,54447619115215E-10;
-3,78169264045864E-11;
-4,95013101087828E-10;
-8,71183491368563E-10;
-9,79710137627104E-10;
-8,8390045032804E-10;
-8,49680405828283E-10;
-1,09314755676608E-9;
-1,54120037973921E-9;
-1,82284528961764E-9;
-1,52779046483786E-9;
-5,42710535451894E-10;
8,11523718830137E-10;
1,95006829837102E-9;
2,40009185034101E-9;
2,09597406435289E-9;
1,37636037956091E-9;
7,16981068434672E-10;
3,90292128099659E-10;
3,2579783041467E-10;
2,55860825103756E-10;
-1,46603615709738E-11;
-4,37078066107433E-10;
-7,86514557712503E-10;
-8,91129453263603E-10;
-8,08144288812542E-10;
-7,80635212113572E-10;
-1,00926784134745E-9;
-1,42870327826349E-9;
-1,69393016927758E-9;
-1,42927083000463E-9;
-5,28835843198575E-10;
7,17162132614642E-10;
1,76947027441014E-9;
2,19088338713364E-9;
1,92093239215941E-9;
1,26948365473971E-9;
6,70004291881867E-10;
3,74014793106844E-10;
3,17011444856182E-10;
2,53038804779917E-10;
6,30373636545546E-12;
-3,80359814912852E-10;
-7,04151941428728E-10;
-8,04583083783045E-10;
-7,31446786917784E-10;
-7,10714717470416E-10;
-9,24837495559502E-10;
-1,3131725493562E-9;
-1,56274209719084E-9;
-1,32698088435925E-9;
-5,08889515009174E-10;
6,2652053730081E-10;
1,59013405121247E-9;
1,98353703478504E-9;
1,74843098944559E-9;
1,16293840053369E-9;
6,22044237541249E-10;
3,55243482363602E-10;
3,04475451964691E-10;
2,47948628009196E-10;
2,39151452224974E-11;
-3,29724026653588E-10;
-6,25750891694004E-10;
-7,19732545485632E-10;
-6,5772180324793E-10;
-6,42665179103237E-10;
-8,40977250082735E-10;
-1,19724970329282E-9;
-1,42952720581027E-9;
-1,2227539154571E-9;
-4,85204215180059E-10;
5,41745946647122E-10;
1,4174843382188E-9;
1,78162110135747E-9;
1,5775010023349E-9;
1,05575699064092E-9;
5,72988580730633E-10;
3,35300054808806E-10;
2,9003154951868E-10;
2,39588301665279E-10;
3,78994929502947E-11;
-2,81486381550038E-10;
-5,49510839524596E-10;
-6,3690759438873E-10;
-5,85257070322718E-10;
-5,75703260144236E-10;
-7,5772502347445E-10;
-1,0839862545605E-9;
-1,29828018888495E-9;
-1,11769514791797E-9;
-4,59938236410011E-10;
4,62314874382764E-10;
1,25292977971351E-9;
1,58685921260693E-9;
1,41099862584671E-9;
9,50956431268432E-10;
5,23264010461231E-10;
3,1185846848255E-10;
2,74278804775491E-10;
2,3017994822787E-10;
4,99572648734147E-11;
-2,36097314483391E-10;
-4,78518646944838E-10;
-5,59581815224707E-10;
-5,16903634374214E-10;
-5,11458878943512E-10;
-6,77137255699616E-10;
-9,71759818916091E-10;
-1,1680160032539E-9;
-1,01330700551434E-9;
-4,31462022686544E-10;
3,89189540474692E-10;
1,09647648757025E-9;
1,40021108602462E-9;
1,25262085486061E-9;
8,49843839362411E-10;
4,73932481414971E-10;
2,89836292716587E-10;
2,57240749170811E-10;
2,18633519076211E-10;
5,8677913444841E-11;
-1,9535192006255E-10;
-4,1202886734276E-10;
-4,87351953099348E-10;
-4,52101864109349E-10;
-4,50591579302556E-10;
-5,99659448606569E-10;
-8,64274035500835E-10;
-1,0443762494822E-9;
-9,11985047035937E-10;
-4,01087447191786E-10;
3,22202942819244E-10;
9,49160180095169E-10;
1,22343210243368E-9;
1,10053288643737E-9;
7,52220394827504E-10;
4,26656554580134E-10;
2,66544335085329E-10;
2,38456042398095E-10;
2,06160038109666E-10;
6,52741090888776E-11;
-1,59617512998462E-10;
-3,5052162361696E-10;
-4,19417337194143E-10;
-3,91691665774278E-10;
-3,92167893734682E-10;
-5,27768608859099E-10;
-7,63296202927774E-10;
-9,24147480735607E-10;
-8,14276132520069E-10;
-3,70344640567156E-10;
2,61572890375951E-10;
8,12492478473503E-10;
1,05853769353958E-9;
9,57756755289708E-10;
6,6060131672589E-10;
3,7971444044418E-10;
2,42277500633217E-10;
2,20487530083972E-10;
1,9222840456019E-10;
7,04712651800527E-11;
-1,25382404999392E-10;
-2,93919818156968E-10;
-3,55502554279513E-10;
-3,34640313434056E-10;
-3,38494408728859E-10;
-4,57661366775955E-10;
-6,66327010764038E-10;
-8,1144573160437E-10;
-7,20519357031814E-10;
-3,40086965043734E-10;
2,06789310171305E-10;
6,86100311450491E-10;
9,04405595506137E-10;
8,24929224438544E-10;
5,73245993013048E-10;
3,35535985461525E-10;
2,20109167374209E-10;
2,01298380217399E-10;
1,77990444277036E-10;
7,44167601948703E-11;
-9,54312768011835E-11;
-2,41890156932282E-10;
-2,96181891905442E-10;
-2,81766858022133E-10;
-2,88816496480205E-10;
-3,94011457838972E-10;
-5,75069485380517E-10;
-7,03353710806675E-10;
-6,31329938331541E-10;
-3,09084955063536E-10;
1,57090889984724E-10;
5,6924537042609E-10;
7,61913799588123E-10;
7,0061191028836E-10;
4,9274525570334E-10;
2,93611381402875E-10;
1,97152650973509E-10;
1,83530588616658E-10;
1,63536095342416E-10;
7,48611653131767E-11;
-6,8848523124365E-11;
-1,94634239267749E-10;
-2,43481819910869E-10;
-2,33646934631632E-10;
-2,42477286765149E-10;
-3,34685871755777E-10;
-4,91927323060572E-10;
-6,04344074957381E-10;
-5,47180347365048E-10;
-2,78265597073232E-10;
1,14232749174014E-10;
4,63750449857191E-10;
6,32146202312049E-10;
5,87514306655949E-10;
4,18510148431139E-10;
2,55199288592685E-10;
1,74736700365366E-10;
1,6448392600393E-10;
1,49659700516406E-10;
7,50600696485598E-11;
-4,57138048822028E-11;
-1,51900675140788E-10;
-1,96002633683189E-10;
-1,90437401180852E-10;
-1,99622926543208E-10;
-2,79811589196969E-10;
-4,14809398723514E-10;
-5,12868226022334E-10;
-4,69327102370799E-10;
-2,4961990936243E-10;
7,5828038936074E-11;
3,71116465161621E-10;
5,16194155240006E-10;
4,8438419773511E-10;
3,49452103892726E-10;
2,17830414277412E-10;
1,53897147360275E-10;
1,46588977032707E-10;
1,35773481595625E-10;
7,54369606216369E-11;
-2,50810950397726E-11;
-1,14743763709784E-10;
-1,52886839205291E-10;
-1,50557693070273E-10;
-1,60910864827805E-10;
-2,29502543893651E-10;
-3,43704996622996E-10;
-4,2809150333335E-10;
-3,97413204662763E-10;
-2,21774533080582E-10;
4,32792044592333E-11;
2,85399072169841E-10;
4,0824616511831E-10;
3,90268758961995E-10;
2,86855064564777E-10;
1,839636100077E-10;
1,34670837799716E-10;
1,29458932565827E-10;
1,2088909892963E-10;
7,28640490236729E-11;
-7,67249804559597E-12;
-8,15969360900898E-11;
-1,1543513226826E-10;
-1,16076087219299E-10;
-1,2702146417179E-10;
-1,84716073887636E-10;
-2,78733489729667E-10;
-3,50157185845998E-10;
-3,30398647277927E-10;
-1,93976443434544E-10;
1,53961640457607E-11;
2,10238741265011E-10;
3,13751380444283E-10;
3,06146153567067E-10;
2,30514567967518E-10;
1,5302386739975E-10;
1,1607843616738E-10;
1,13637975364732E-10;
1,07595175347528E-10;
7,05453452330776E-11;
6,74531077600615E-12;
-5,3251629439839E-11;
-8,12565054068005E-11;
-8,48313108319126E-11;
-9,6563659733595E-11;
-1,43046365478002E-10;
-2,20560398902009E-10;
-2,81816092297759E-10;
-2,70644448547921E-10;
-1,69058590327673E-10;
-8,9704681776586E-12;
1,43946396973045E-10;
2,29419524703736E-10;
2,30146905143256E-10;
1,7875487341769E-10;
1,25249803899216E-10;
9,98518224621787E-11;
9,91539679478235E-11;
9,5149350162586E-11;
6,65840013307386E-11;
1,74787893338885E-11;
-2,83187479358894E-11;
-5,14386342164023E-11;
-5,78661093969853E-11;
-6,92415270973398E-11;
-1,06941890081032E-10;
-1,6948021529558E-10;
-2,19530294850673E-10;
-2,16371478442684E-10;
-1,46138217199954E-10;
-2,79748801251626E-11;
8,79964334777168E-11;
1,55962904012848E-10;
1,64784945965327E-10;
1,3420528032227E-10;
1,00046862869402E-10;
8,48123756631727E-11;
8,48440637536116E-11;
8,30158119298763E-11;
6,38165913107077E-11;
2,8545649775094E-11;
-6,50095788910861E-12;
-2,6684860787624E-11;
-3,3543401011779E-11;
-4,50113613356806E-11;
-7,60608188947834E-11;
-1,22886594202927E-10;
-1,62421323913082E-10;
-1,6672883478448E-10;
-1,23468484843739E-10;
-4,42015500347911E-11;
3,87471583305771E-11;
9,25702820681632E-11;
1,06708510956506E-10;
9,43769359587284E-11;
7,69310097574693E-11;
6,89576954558769E-11;
7,16387985649077E-11;
7,13082809127917E-11;
5,90415264149329E-11;
3,70070541580129E-11;
1,11129158607642E-11;
-5,66547999928155E-12;
-1,32409107989554E-11;
-2,56939565714242E-11;
-4,93321600640297E-11;
-8,30174791871346E-11;
-1,14912220821831E-10;
-1,24767844771497E-10;
-1,03248330540317E-10;
-5,67120422894062E-11;
-3,12979701266235E-12;
3,73114454883132E-11;
5,70778111458041E-11;
5,99031134677455E-11;
5,62404116203698E-11;
5,64134516482397E-11;
5,98290779292801E-11;
6,02926860367384E-11;
5,4506720666277E-11;
4,21089956212902E-11;
2,65095778590996E-11;
1,36945264321584E-11;
4,44042766915738E-12;
-7,05720951916679E-12;
-2,52783455326867E-11;
-4,81982760614667E-11;
-7,15469239796078E-11;
-8,7289657844404E-11;
-8,48854968991163E-11;
-6,55641919107284E-11;
-3,7581079936222E-11;
-8,09419338603186E-12;
1,48765448016402E-11;
2,90822332714432E-11;
3,86540980796597E-11;
4,51009322877128E-11;
4,83811582244218E-11;
5,06004385821751E-11;
5,07968374747973E-11;
4,62477992334016E-11;
3,81214066997028E-11;
2,86435025796001E-11;
1,79314495750977E-11;
7,31277659485168E-12;
-3,71325150063991E-12;
-1,83664612927482E-11;
-3,57076081906785E-11;
-5,35446421560898E-11;
-6,84013732411105E-11;
-7,3778702662503E-11;
-6,58350247300143E-11;
-4,65293984460865E-11;
-2,14703501601295E-11;
4,06269729894714E-12;
2,34178536329767E-11;
3,34326778832469E-11;
3,883443634433E-11;
4,26474698050488E-11;
4,57847307448086E-11;
4,89004502272089E-11;
4,81228165482646E-11;
4,10745549239963E-11;
3,05607283977725E-11;
2,03966002790777E-11;
1,33358146371604E-11;
7,32282143775771E-12;
-3,73658833957465E-12;
-2,46596414853375E-11;
-5,29309022535548E-11;
-7,78292216880504E-11;
-8,89098805091968E-11;
-7,904719174308E-11;
-5,10732628607555E-11;
-1,78619489915881E-11;
9,41506035267993E-12;
2,48856529472039E-11;
3,04046454752369E-11;
3,34564260918188E-11;
4,08134960648488E-11;
5,09862386228296E-11;
5,54677245365532E-11;
4,99073393097684E-11;
3,80258577127297E-11;
2,93490892150733E-11;
2,83446053591082E-11;
2,84238231267544E-11;
2,12968382273275E-11;
-7,01002291038127E-13;
-3,94862919502896E-11;
-8,11172907679722E-11;
-1,07291780492378E-10;
-1,04828255003234E-10;
-7,42509488563387E-11;
-3,41971154867039E-11;
-1,69243546361584E-12;
1,57504101379962E-11;
2,13230281323712E-11;
2,63221478417693E-11;
3,74514124241334E-11;
5,16445140167997E-11;
5,95773369351098E-11;
5,6858989958296E-11;
4,65333097761358E-11;
3,76438155689861E-11;
3,87219991985376E-11;
4,57861266704199E-11;
4,47470270995054E-11;
2,06665601355897E-11;
-2,76107618587091E-11;
-8,21384372199047E-11;
-1,19737927612735E-10;
-1,24084059835303E-10;
-9,39631357091421E-11;
-4,81521007265535E-11;
-1,06054825510607E-11;
8,87842613011394E-12;
1,45295014585743E-11;
1,94584485503805E-11;
3,26395958552349E-11;
5,03955575190352E-11;
6,35722684351124E-11;
6,27810043298863E-11;
5,19984020876254E-11;
4,49524072331447E-11;
4,79342768062213E-11;
5,93229957988745E-11;
6,27467125385427E-11;
3,74436404677882E-11;
-1,72280074744328E-11;
-8,26033704736241E-11;
-1,30102839319943E-10;
-1,38756762125371E-10;
-1,09210193100652E-10;
-6,03491553158974E-11;
-1,91850037005987E-11;
2,05362456895096E-12;
9,35762824333793E-12;
1,39849255844732E-11;
2,83412710378542E-11;
5,01473210473671E-11;
6,49799752803348E-11;
6,58739983541462E-11;
5,58963572030303E-11;
4,80583820323453E-11;
5,46189583791105E-11;
7,02252130775277E-11;
7,56149940010945E-11;
5,10044013593018E-11;
-7,82627977966683E-12;
-8,04982282270411E-11;
-1,35723245211889E-10;
-1,49027546402655E-10;
-1,1919129164479E-10;
-6,89371116061957E-11;
-2,50372770059042E-11;
-2,975207854839E-12;
2,99550288262176E-12;
9,72901836756409E-12;
2,55907043350084E-11;
4,78851499733826E-11;
6,5911065678812E-11;
6,8241036413203E-11;
5,7550465570608E-11;
5,10436765425628E-11;
6,0044754844055E-11;
7,88636775626881E-11;
8,67970299770981E-11;
6,13643096391614E-11;
-2,13609189767383E-13;
-7,83840970853485E-11;
-1,39265522549653E-10;
-1,5503877328386E-10;
-1,26095623241169E-10;
-7,48156483743087E-11;
-3,00392155700734E-11;
-7,76024820573638E-12;
-1,70794670323538E-12;
4,65763697141359E-12;
2,24382653593225E-11;
4,67941536615766E-11;
6,51353567221973E-11;
6,87044197677898E-11;
5,90691504586255E-11;
5,27519140275425E-11;
6,2897820950045E-11;
8,36935605441463E-11;
9,41113053082047E-11;
6,98656565531348E-11;
6,60439907757662E-12;
-7,41972256628155E-11;
-1,38703184246403E-10;
-1,58752258082196E-10;
-1,30793674525204E-10;
-7,90317776443297E-11;
-3,39330124229952E-11;
-1,01563019703089E-11;
-4,92072317255942E-12;
1,1927265153044E-13;
1,81339109333174E-11;
4,34410193290394E-11;
6,43704418068992E-11;
6,87042171588525E-11;
5,86857254184312E-11;
5,35556149610204E-11;
6,5503947458923E-11;
8,78361444855903E-11;
9,90456967971367E-11;
7,59978734971861E-11;
1,31484858283444E-11;
-7,01938643457848E-11;
-1,37757644237921E-10;
-1,58994170819258E-10;
-1,32282250598955E-10;
-8,10489430986136E-11;
-3,6136145822426E-11;
-1,36616701477841E-11;
-8,00610846863443E-12;
-2,86399989729714E-12;
1,52135979436701E-11;
4,15925635850839E-11;
6,18866276899399E-11;
6,69512769175835E-11;
5,93045850973031E-11;
5,37924518071924E-11;
6,51070300214733E-11;
8,93997546932503E-11;
1,01529488863238E-10;
7,91229653653814E-11;
1,6984882248329E-11;
-6,58947504660349E-11;
-1,32680317807972E-10;
-1,56094352063077E-10;
-1,3194245599778E-10;
-8,26808720084752E-11;
-3,88549413937239E-11;
-1,58715446259362E-11;
-1,09580352147205E-11;
-5,84247981631265E-12;
1,24325130680352E-11;
3,91604679014793E-11;
5,9779524221101E-11;
6,35508283049579E-11;
5,67947310673211E-11;
5,34111768399803E-11;
6,52745601860481E-11;
8,95267650640657E-11;
1,02893994133502E-10;
8,24079338470148E-11;
2,03751902615514E-11;
-6,21351869677001E-11;
-1,27911295445124E-10;
-1,52077236968474E-10;
-1,30183031157427E-10;
-8,22123296321072E-11;
-3,86567660912142E-11;
-1,76228530893326E-11;
-1,32906950923551E-11;
-7,83452967179621E-12;
9,06357322126216E-12;
3,55006024798031E-11;
5,70661346060156E-11;
6,24508267727342E-11;
5,54347450183679E-11;
5,1269088045655E-11;
6,42323434719445E-11;
8,85784038905481E-11;
1,02153210428214E-10;
8,28207392568164E-11;
2,33077960400608E-11;
-5,6579627467926E-11;
-1,22658371291601E-10;
-1,47601818821304E-10;
-1,26178406370526E-10;
-8,03176679631114E-11;
-3,89251951945673E-11;
-1,84189052770236E-11;
-1,4775213326408E-11;
-9,53052899585685E-12;
7,85996425244311E-12;
3,22221231953214E-11;
5,26948665138238E-11;
5,88645447837905E-11;
5,11899603339502E-11;
4,84352195573211E-11;
6,3205226037032E-11;
8,63204933568801E-11;
9,94803395238037E-11;
8,21170107218613E-11;
2,50937596797932E-11;
-5,31535851837125E-11;
-1,16605632509368E-10;
-1,39703230493666E-10;
-1,20762352774372E-10;
-7,76558148536957E-11;
-3,89209356104284E-11;
-1,9529004664351E-11;
-1,42952531224152E-11;
-1,03512005561484E-11;
5,39858614115993E-12;
2,97380778925425E-11;
4,87376942616111E-11;
5,50316403107701E-11;
4,99588931830545E-11;
4,65599161913626E-11;
5,91890691253559E-11;
8,30282170794062E-11;
9,70497114503015E-11;
8,07364159159167E-11;
2,64566701972649E-11;
-4,7655835121507E-11;
-1,08286916347114E-10;
-1,31927911110295E-10;
-1,14659690073577E-10;
-7,43707520628825E-11;
-3,7716160595779E-11;
-1,96419725805125E-11;
-1,59381663168493E-11;
-1,12829270896435E-11;
3,24031894145092E-12;
2,60151393708738E-11;
4,59546013390919E-11;
5,10771973719169E-11;
4,56575347323806E-11;
4,45613123911971E-11;
5,71881107994918E-11;
7,9361708046741E-11;
9,3457706966242E-11;
7,75374253216185E-11;
2,66933162535907E-11;
-4,15613838295936E-11;
-1,00565783141406E-10;
-1,24551694189475E-10;
-1,08538539953286E-10;
-7,05581918420239E-11;
-3,59660133412967E-11;
-1,95948737004239E-11;
-1,59924681052722E-11;
-1,25870691350163E-11;
1,12711625590292E-12;
2,3425605144968E-11;
4,16616093602962E-11;
4,719866616854E-11;
4,26283446895898E-11;
4,19713423245677E-11;
5,35429190297128E-11;
7,35496422844033E-11;
8,74276838338909E-11;
7,421240084781E-11;
2,73525411144789E-11;
-3,77786182246958E-11;
-9,29238851764904E-11;
-1,14987849001869E-10;
-1,00761536239606E-10;
-6,65633693898004E-11;
-3,52140793569489E-11;
-1,91966155137486E-11;
-1,59144964778734E-11;
-1,26599441344659E-11;
9,64616541147764E-13;
2,15008773240199E-11;
3,7966448871644E-11;
4,32659542980339E-11;
3,98596527216432E-11;
3,91557751698517E-11;
5,0228079640378E-11;
7,03739790734937E-11;
8,34629078397405E-11;
7,07005479293946E-11;
2,6960463697423E-11;
-3,35902231624855E-11;
-8,43505820150745E-11;
-1,04993817343381E-10;
-9,34654955145753E-11;
-6,31473882244701E-11;
-3,37581162216199E-11;
-1,84444239702346E-11;
-1,61719408631358E-11;
-1,37722061999673E-11;
-9,10150590201746E-13;
1,83466078040499E-11;
3,42075265324745E-11;
3,95194576733078E-11;
3,60445013155523E-11;
3,54107197697408E-11;
4,66836123423539E-11;
6,56410139122335E-11;
7,73567681402472E-11;
6,62264526011657E-11;
2,63126490594454E-11;
-2,90839342902666E-11;
-7,64763924909143E-11;
-9,64780218306065E-11;
-8,51715520764104E-11;
-5,73062345317919E-11;
-3,07840408115271E-11;
-1,74442957425984E-11;
-1,52850722951226E-11;
-1,2137856299872E-11;
-1,7400807989355E-12;
1,50886821240808E-11;
3,08298745994897E-11;
3,61564045416299E-11;
3,30503815884019E-11;
3,278274745947E-11;
4,28824085759469E-11;
6,03793954196992E-11;
7,21676038489057E-11;
6,23242230810077E-11;
2,58529282357014E-11;
-2,48120362536915E-11;
-6,85932962108325E-11;
-8,76830628134535E-11;
-7,78912673181775E-11;
-5,25284837039958E-11;
-2,91449090495025E-11;
-1,68683807742269E-11;
-1,44023463964203E-11;
-1,27517448061228E-11;
-2,95492136783999E-12;
1,43954088399954E-11;
2,7963985922593E-11;
3,14182892148459E-11;
2,89507457381188E-11;
2,92348014211696E-11;
3,93505967620222E-11;
5,50998573186316E-11;
6,54070636457142E-11;
5,74939867886222E-11;
2,51354578079911E-11;
-2,1524930072471E-11;
-6,24722487548813E-11;
-7,92517693893031E-11;
-7,01832125336879E-11;
-4,78218827567032E-11;
-2,6302506473444E-11;
-1,64248319148717E-11;
-1,47291354683455E-11;
-1,14832919447458E-11;
-3,19283102705742E-12;
1,08582093109453E-11;
2,34087466003803E-11;
2,69781250451944E-11;
2,61238202684756E-11;
2,72216238012772E-11;
3,43570923834136E-11;
4,88396481206328E-11;
6,03585399910122E-11;
5,2789033220499E-11;
2,33972428675839E-11;
-1,72683785066519E-11;
-5,38497667405944E-11;
-6,98557882196904E-11;
-6,27588056045589E-11;
-4,3752502640127E-11;
-2,47464289722138E-11;
-1,4883940242468E-11;
-1,38964034219781E-11;
-1,22741542547755E-11;
-3,41916858866242E-12;
1,01345616747355E-11;
2,08074174239927E-11;
2,42270178171661E-11;
2,3393568176557E-11;
2,40474307694694E-11;
3,11004609442202E-11;
4,46217283207226E-11;
5,49175253054603E-11;
4,88437038408581E-11;
2,20978210387971E-11;
-1,46665971611874E-11;
-4,60394790915353E-11;
-6,08726977166184E-11;
-5,57744559788792E-11;
-3,90339674106682E-11;
-2,2236935051506E-11;
-1,4036351149217E-11;
-1,27498108069526E-11;
-1,05852231697508E-11;
-4,0554542231399E-12;
7,6432953495063E-12;
1,78866581365305E-11;
2,16221919458279E-11;
1,98568203269577E-11;
1,92727416393648E-11;
2,83551308657238E-11;
4,08331372162344E-11;
4,82284792271485E-11;
4,40664222503544E-11;
2,12255527356815E-11;
-1,24396654543351E-11;
-4,1120380291134E-11;
-5,39013913575252E-11;
-4,89541754142829E-11;
-3,44890098109094E-11;
-2,03145455614432E-11;
-1,27555038026589E-11;
-1,19368759156333E-11;
-1,10125569050099E-11;
-4,99058633570802E-12;
5,60607055580778E-12;
1,56276398782183E-11;
1,82419922642841E-11;
1,70077747183783E-11;
1,90793775320844E-11;
2,52446533131352E-11;
3,59015080416221E-11;
4,39917869644262E-11;
3,88315906808415E-11;
1,89262633779909E-11;
-9,62888102063754E-12;
-3,47892660414151E-11;
-4,65042548914091E-11;
-4,34577627050126E-11;
-3,11866937080356E-11;
-1,8421309469229E-11;
-1,16784069602849E-11;
-1,09503207322048E-11;
-9,57365381433022E-12;
-3,7609639115182E-12;
4,52974293880315E-12;
1,25484221368033E-11;
1,56613157952654E-11;
1,47682134912461E-11;
1,59119804042956E-11;
2,18457897946652E-11;
3,23875818100568E-11;
3,92915853475693E-11;
3,47546179499972E-11;
1,88344616868314E-11;
-6,31804551103294E-12;
-2,96235791911465E-11;
-4,01569115853613E-11;
-3,82931895770909E-11;
-2,71501060076576E-11;
-1,5886560728982E-11;
-1,11844907710807E-11;
-9,2029291139792E-12;
-8,56070679143967E-12;
-5,03235987815304E-12;
3,7539823828062E-12;
1,04659188945986E-11;
1,26023176247158E-11;
1,28424687567017E-11;
1,39269396746349E-11;
1,85914365062926E-11;
2,70721955155593E-11;
3,41293905275192E-11;
3,15270912454111E-11;
1,64354255820055E-11;
-5,22641988536165E-12;
-2,37785059855986E-11;
-3,37299504754938E-11;
-3,22931175527796E-11;
-2,21692396320103E-11;
-1,29234237461499E-11;
-9,36490835192202E-12;
-9,59295756278548E-12;
-8,58717503423713E-12;
-3,90206357593537E-12;
2,68201028001137E-12;
8,14258777161449E-12;
1,03672335843712E-11;
1,06605468178308E-11;
1,13342743169711E-11;
1,61745304312815E-11;
2,38756131764069E-11;
2,87953141085164E-11;
2,71867254027663E-11;
1,50333992726177E-11;
-3,3077470052452E-12;
-1,91891640175422E-11;
-2,75425417675466E-11;
-2,61065167181931E-11;
-1,88101956803478E-11;
-1,16472562400859E-11;
-8,40448800333877E-12;
-8,34911083326283E-12;
-7,97031071354714E-12;
-4,3974357937665E-12;
1,8212081313677E-12;
6,36432124197686E-12;
8,66971459398491E-12;
8,92582603426008E-12;
8,7443190223161E-12;
1,32197650061336E-11;
2,04207302727398E-11;
2,46082732002431E-11;
2,25765978111151E-11;
1,33701732047128E-11;
-1,22809891869207E-12;
-1,55499261435167E-11;
-2,28896532462644E-11;
-2,22229722926703E-11;
-1,62907046912219E-11;
-1,02792291726009E-11;
-7,79447659426993E-12;
-7,52946300632141E-12;
-7,35911021267356E-12;
-3,96972371876683E-12;
1,17328206538272E-12;
4,54745892121428E-12;
7,18765168275239E-12;
7,65263708719735E-12;
7,66659535029257E-12;
1,12658118169675E-11;
1,67113507161942E-11;
2,10256189702229E-11;
1,99365012547604E-11;
1,19936659696313E-11;
-1,5646436251234E-13;
-1,23635843639598E-11;
-1,87180023891319E-11;
-1,83106578842127E-11;
-1,35926917531753E-11;
-8,39476655687609E-12;
-6,99069083418842E-12;
-6,93216200158663E-12;
-5,60292402468873E-12;
-4,15150733647493E-12;
-3,4347132381663E-13;
4,03218436194206E-12;
4,61481828911479E-12;
4,96167030715283E-12;
6,24278682371518E-12;
8,7074238847075E-12;
1,388812551707E-11;
1,78244175735821E-11;
1,72620625740477E-11;
1,06243532217019E-11;
7,80957799500014E-13;
-7,86950005711739E-12;
-1,3717616746295E-11;
-1,37842706345172E-11;
-9,71537893756202E-12;
-7,13057606171394E-12;
-6,7506531706894E-12;
-6,18919500707039E-12;
-5,5778115200709E-12;
-3,87093949134152E-12;
-2,5350903039224E-13;
1,89326569735319E-12;
3,23047328333149E-12;
4,40110443807715E-12;
4,4199532162358E-12;
6,94496859439562E-12;
1,09810184862265E-11;
1,38594698994991E-11;
1,43071417297103E-11;
9,63006036027191E-12;
2,30451111726595E-12;
-5,03153129433056E-12;
-1,04858898011301E-11;
-1,09821808053042E-11;
-7,7041308512303E-12;
-5,09889153342925E-12;
-5,24273013454848E-12;
-5,67893773323399E-12;
-5,38713102629598E-12;
-4,21513586449636E-12;
-9,8075623215536E-13;
1,98837073545125E-12;
2,61831351200104E-12;
2,88178764258997E-12;
3,90826261013157E-12;
5,38319420079953E-12;
8,71368513687274E-12;
1,16483675213125E-11;
1,17691873614832E-11;
9,37039744873394E-12;
2,71016084572652E-12;
-3,56944105976596E-12;
-5,92499678182302E-12;
-6,85130856223754E-12;
-6,37353069901757E-12;
-5,59261544115705E-12;
-4,22224983927515E-12;
-3,78133713975483E-12;
-4,57627672957767E-12;
-3,05459640463403E-12;
-1,74598668012962E-12;
-3,20530470382431E-13;
1,27870682780391E-12;
7,98147828249155E-13;
2,1953728995247E-12;
4,28315384704272E-12;
6,23454051760487E-12;
8,85861131100442E-12;
8,9493236242222E-12;
7,6662004271942E-12;
4,06707381285218E-12;
-1,01358939546763E-12;
-3,87534394863146E-12;
-5,29294177928877E-12;
-4,4774140842585E-12;
-2,88064475670022E-12;
-2,49120018951686E-12;
-2,8022164699894E-12;
-3,52974944840343E-12;
-3,21526414044127E-12;
-1,85960654789356E-12;
5,03973854820004E-14;
4,06012243467021E-13;
7,12020196176855E-14;
1,5090721427471E-12;
2,56343284270353E-12;
4,61322144504957E-12;
6,89381181552067E-12;
7,22826924401349E-12;
6,52188706032199E-12;
3,93069864023313E-12;
1,2338175817708E-12;
-9,75520898771461E-13;
-2,17547712743617E-12;
-2,30343022477538E-12;
-2,92588055650771E-12;
-2,55383395098649E-12;
-2,7663503437627E-12;
-3,10263977176111E-12;
-1,96916815545541E-12;
-1,22481246770509E-12;
-1,08335602369868E-12;
-1,09900760497121E-12;
2,00135240467027E-13;
1,10959427602881E-12;
8,52676147288799E-13;
2,69260726197685E-12;
5,41430248650941E-12;
6,17998930643337E-12;
5,10321138455723E-12;
3,55748206359701E-12;
1,94931367489677E-12;
2,80947579760734E-13;
-7,15067732613125E-13;
-8,42620694358717E-13;
-1,54299574145096E-12;
-2,08865609371554E-12;
-1,71158290759956E-12;
-2,49749184589308E-12;
-2,77846473165831E-12;
-2,01476207751112E-12;
-1,79855640323546E-12;
-1,29070604665182E-12;
-5,84105220939448E-13;
-4,032278033485E-14;
7,74291259594096E-13;
2,1379267168898E-12;
3,1954449170422E-12;
3,62587961944155E-12;
4,13488224024565E-12;
4,40702833038833E-12;
3,75205935237808E-12;
2,34509990422305E-12;
1,47003094313178E-12;
7,31249274456266E-13;
-8,31710942494188E-13;
-1,10612498621211E-12;
-1,32863717879738E-12;
-2,14305362240661E-12;
-1,49211974341951E-12;
-1,82466019116031E-12;
-2,55040901022198E-12;
-2,15555263598685E-12;
-1,41214562869764E-12;
-6,20468928007065E-13;
-9,42238424004871E-14;
7,33692706632036E-13;
1,14705220489703E-12;
2,21678894566541E-12;
3,99097135435654E-12;
4,32721332216788E-12;
4,47303625967134E-12;
4,33952929269218E-12;
2,24123012929562E-12;
7,14463160538319E-13;
2,68359851437294E-13;
-1,09669229142114E-12;
-1,19439403074642E-12;
-1,49791361252616E-12;
-2,52266098946862E-12;
-1,53582457272339E-12;
-2,23389599442634E-12;
-2,90801320238941E-12;
-1,07510296614127E-12;
-7,27102010243728E-13;
-3,54556682868267E-13;
-3,44223603869172E-13;
-1,01469098635031E-12;
1,12525245265237E-12;
2,81782470186867E-12;
3,36017823185705E-12;
5,22583999792138E-12;
5,55933588888819E-12;
3,83018481624901E-12;
2,39980374698973E-12;
9,3775614066866E-13;
-2,637896076586E-13;
-4,85814269455267E-13;
-1,41877253106822E-12;
-1,90619928313605E-12;
-1,93052521174564E-12;
-2,55176672607979E-12;
-1,47673240853192E-12;
-1,10352340892819E-12;
-1,76391332715082E-12;
-6,86188672600406E-13;
-5,26148080163735E-13;
-1,31061327043747E-12;
-4,96792695443805E-13;
1,93272205057089E-12;
4,01787046033694E-12;
4,97606221613422E-12;
5,83313188570437E-12;
4,64929593573714E-12;
2,0448569398093E-12;
7,82582871057635E-13;
-3,98519359163258E-13;
-1,21060275866843E-12;
-8,02919919216237E-13;
-1,73329725506782E-12;
-2,6013273366486E-12;
-2,011846678234E-12;
-2,8786104267591E-12;
-2,4774530668736E-12;
-8,53210154704933E-13;
-1,55105149853195E-12;
-2,23767243794981E-12;
-2,18297745976971E-12;
-1,24547555236829E-12;
1,57932971093159E-12;
4,97422991746863E-12;
6,69806577911689E-12;
5,88881776067186E-12;
4,76042150136076E-12;
3,19726021593804E-12;
3,09151926221017E-13;
-2,86724831406508E-13;
2,30517247246771E-13;
-8,09476701402067E-13;
-9,64933913282968E-13;
-1,63456539181004E-12;
-2,85148124587934E-12;
-2,1758627211585E-12;
-1,95266672941033E-12;
-2,16091203602811E-12;
-9,55127310609137E-13;
-1,36158820552529E-12;
-2,69920871568805E-12;
-9,37239977689256E-13;
1,53396819572741E-12;
4,05669029483964E-12;
6,82844590086169E-12;
6,96264986477807E-12;
5,96931830175978E-12;
3,58411154698E-12;
4,80128773526289E-13;
2,7091448733703E-13;
7,25058455404255E-14;
-4,88206761023501E-13;
-3,8006713010102E-13;
-1,94985923131361E-12;
-3,0630294811941E-12;
-2,54851244485328E-12;
-2,21705175481687E-12;
-2,1783074567661E-12;
-2,50628606255185E-12;
-3,38185478054513E-12;
-3,67680760759407E-12;
-2,14923181619383E-12;
1,16841854036648E-12;
4,15819167981639E-12;
5,96383634766695E-12;
6,880685258873E-12;
5,20537263523801E-12;
2,86743953566751E-12;
1,54972511839947E-12;
4,23759869912827E-13;
3,45805370950403E-13;
2,58462843980254E-13;
-4,58701012279114E-14;
-7,62107721910388E-13;
-2,20729891092774E-12;
-2,12077588888401E-12;
-1,64310185057999E-12;
-2,6515284273209E-12;
-3,43335575508526E-12;
-3,61250990660348E-12;
-4,04307077729204E-12;
-2,82327649855651E-12;
2,80654765666632E-14;
2,79474377742501E-12;
6,52526888017091E-12;
7,8464353565552E-12;
5,21752532563474E-12;
3,78508079332489E-12;
2,37469876833169E-12;
2,71858203940189E-13;
8,59194230203406E-13;
8,66255996700071E-13;
-1,21593031177338E-12;
-1,83499838980014E-12;
-1,53193015286714E-12;
-2,14519721079758E-12;
-2,82853313017726E-12;
-2,51047988277475E-12;
-2,4121322559956E-12;
-3,81939781974211E-12;
-4,38496288355403E-12;
-2,87230926597747E-12;
-2,70559284574673E-13;
3,813316959037E-12;
6,79760250842809E-12;
6,98273781194143E-12;
6,62699327537361E-12;
4,6864789937521E-12;
1,34106561977462E-12;
5,99999719617035E-13;
1,33877350568813E-12;
9,28982058491648E-13;
3,25278231112312E-13;
-8,94616945855063E-13;
-2,28305787301896E-12;
-2,548586721194E-12;
-2,07749265707023E-12;
-2,32476415337302E-12;
-3,1864072411896E-12;
-2,98037002458261E-12;
-3,32445675924085E-12;
-3,22953523012073E-12;
-2,89511040033507E-13;
2,91859695936182E-12;
6,14770301629348E-12;
8,20685908829475E-12;
5,81758868014015E-12;
3,36249953753351E-12;
2,17629777610611E-12;
6,38621041937574E-13;
1,08548549448512E-12;
6,84903222994498E-13;
-5,01999352183754E-13;
-6,1171587595209E-13;
-1,928812599031E-12;
-2,73752873934341E-12;
-1,9708233357845E-12;
-1,98370181073475E-12;
-2,96843091539505E-12;
-3,29673562906714E-12;
-3,78414913510308E-12;
-3,40503378086015E-12;
-1,06171677425655E-13;
3,31970476089706E-12;
5,23892800664419E-12;
6,47714687788067E-12;
6,38986285002661E-12;
3,93801378348053E-12;
1,99245179516315E-12;
1,6952546867984E-12;
9,12417553186383E-13;
5,53801193607211E-13;
-3,21830481405252E-13;
-1,41472933023042E-12;
-1,31150396516192E-12;
-2,0015624929281E-12;
-2,52665441364404E-12;
-1,99800905646068E-12;
-1,75923734422444E-12;
-2,66508223764688E-12;
-4,08746573139213E-12;
-3,38351100233583E-12;
-8,00122596208468E-13;
2,69936639312697E-12;
5,78029176413404E-12;
6,23048268444442E-12;
5,2704865558019E-12;
3,8755614023713E-12;
1,99309057609723E-12;
6,91649223587205E-13;
5,40144443383165E-13;
8,55282781124925E-13;
4,2318513953207E-13;
-1,13279235843958E-12;
-2,5165547461889E-12;
-2,59206306280434E-12;
-2,03620731745877E-12;
-2,19974655263126E-12;
-2,39765678920467E-12;
-2,74065314806741E-12;
-3,74295976470855E-12;
-3,32724731548713E-12;
-9,92949818020174E-13;
2,96109218267946E-12;
5,84416286653124E-12;
5,93182137936235E-12;
5,57292650435474E-12;
4,63327861555306E-12;
3,08747299314746E-12;
1,9198762619519E-12;
1,4405245167501E-12;
1,06925760127469E-12;
1,18580023143485E-13;
-1,05798475586797E-12;
-1,94052976384748E-12;
-1,324918562514E-12;
-1,07322813797519E-12;
-1,66667413823677E-12;
-1,79181893615345E-12;
-3,33023325620047E-12;
-4,59780759888756E-12;
-3,13272878281489E-12;
-1,07562760806426E-13;
2,9208382542998E-12;
5,032186173589E-12;
5,21402093116158E-12;
4,88571689042067E-12;
4,70327540343574E-12;
2,56741704261208E-12;
1,13910178889139E-12;
1,50818952135501E-12;
1,22643372668157E-12;
6,53948110903551E-14;
-1,20367524369114E-12;
-1,37963829448127E-12;
-1,68580886818525E-12;
-2,31958976618821E-12;
-1,8151130901161E-12;
-1,88992936964783E-12;
-2,62222267250178E-12;
-3,59597891825553E-12;
-3,60901536078523E-12;
-8,02326492715409E-13;
2,06609860469667E-12;
4,76898327764206E-12;
6,23402767805671E-12;
5,35725659595149E-12;
4,12426931616121E-12;
2,1300237510771E-12;
1,28267369414234E-12;
1,4208432951943E-12;
8,23613830018336E-13;
-9,64992129836754E-15;
-9,99455077011931E-13;
-1,359974547412E-12;
-1,4713898149291E-12;
-1,58365878057871E-12;
-1,44878071974996E-12;
-2,35670110129029E-12;
-3,17987722707799E-12;
-2,32061994448375E-12;
-1,93710901615211E-12;
-6,81290265380488E-13;
2,24826910806739E-12;
4,13070163145344E-12;
5,63489388291277E-12;
5,17289569730166E-12;
3,0252137981587E-12;
2,4494048663234E-12;
2,35028919307862E-12;
1,9393309201841E-12;
1,31783027631402E-12;
2,37431185315346E-13;
-6,35896554359768E-13;
-1,05186697955912E-12;
-1,62165547955305E-12;
-1,46614427432791E-12;
-1,24736082918082E-12;
-2,06856887608219E-12;
-2,0703795593907E-12;
-2,8068151209467E-12;
-3,32553687458257E-12;
-6,77613525569456E-13;
1,87712313062247E-12;
3,3103050336267E-12;
4,74501786872618E-12;
4,61176019138922E-12;
2,64336644319585E-12;
1,61956476929867E-12;
1,53421718438989E-12;
9,96847494839077E-13;
1,06451038857761E-12;
2,01348093642549E-13;
-2,68430943400486E-13;
-5,73008580209715E-13;
-1,72671861356279E-12;
-5,34647104554798E-13;
-1,04542885448633E-12;
-2,08261283807782E-12;
-1,76758839765937E-12;
-3,42836230250381E-12;
-2,90913585962338E-12;
-1,21514327704556E-12;
8,57924019169981E-13;
4,40201651679626E-12;
5,34089037749606E-12;
4,55849456201835E-12;
2,51956997622711E-12;
3,21680014247227E-13;
7,58898588264597E-13;
1,59183717812976E-12;
1,4804296529902E-12;
7,49604815569347E-13;
-3,66959075753663E-13;
-9,69070320283222E-13;
-8,41873256514105E-13;
-4,89809715704476E-13;
-7,41323836994468E-13;
-1,78786338772365E-12;
-2,23073074878934E-12;
-2,40984840597825E-12;
-2,96590434917396E-12;
-1,61307523783936E-12;
1,14755720335004E-12;
3,87273304053702E-12;
4,96871906131084E-12;
3,27413765288221E-12;
2,34333602099861E-12;
2,28080010211039E-12;
1,56890901964349E-12;
1,80011469617258E-12;
1,53171752857729E-12;
4,90587640095798E-14;
-4,84911272907009E-13;
-5,19006197126732E-13;
-5,29903427293331E-13;
-3,37104743304025E-13;
-1,2929795112027E-12;
-1,62587621675959E-12;
-1,69068297085035E-12;
-3,57427894155727E-12;
-3,25326296177095E-12;
-8,8683219356517E-13;
1,51936814772792E-12;
3,62740093265581E-12;
3,50748277058934E-12;
3,29691462454907E-12;
2,6673807941715E-12;
1,49414429260565E-12;
1,29557696456171E-12;
8,01082043008777E-13;
4,22355235407545E-13;
-9,84692775326064E-14;
-1,96362399666858E-13;
-1,55275541987028E-13;
-8,16533185658572E-13;
-6,65983906620837E-13;
-5,68921173250938E-13;
-1,18040846183119E-12;
-2,26273189576482E-12;
-3,09176105176128E-12;
-2,36167891969971E-12;
-4,59006361271796E-13;
1,59775371741229E-12;
2,58239131722623E-12;
3,06772116383397E-12;
3,29899353675874E-12;
2,78119214217396E-12;
1,64800590433857E-12;
1,02343724262155E-12;
1,49893798023088E-12;
8,05618406957165E-13;
3,85378860447156E-13;
8,02763282244203E-13;
-2,40328765264472E-13;
-1,2401800702342E-12;
-4,88247474376375E-13;
2,74037918924177E-13;
-9,65207886374537E-13;
-1,58675429267214E-12;
-1,74358240641418E-12;
-2,2625755210321E-12;
-7,63156697686204E-13;
9,51926902212696E-13;
2,6497488244622E-12;
3,36351285040884E-12;
2,25624147411674E-12;
2,57837737351739E-12;
2,39477391148381E-12;
1,13553611346392E-12;
8,9605226755609E-13;
7,33121438688384E-13;
8,44081808505281E-13;
6,25766547411304E-13;
1,67027322826586E-14;
-6,88541402268457E-13;
-1,18825489661511E-12;
-7,11413269604811E-13;
-1,18715412060564E-12;
-1,79471998938559E-12;
-1,94907860731871E-12;
