9,27740860263582E-7;
1,93586907321303E-6;
2,28552658169577E-6;
1,93214913768549E-6;
1,20835465352023E-6;
5,60764393711836E-7;
2,39431814985495E-7;
1,73714713090065E-7;
1,07756362023281E-7;
-1,40869672993733E-7;
-5,23621213002189E-7;
-8,28349067780492E-7;
-8,96448043261706E-7;
-7,8658353924205E-7;
-7,31306716406614E-7;
-9,16513863214205E-7;
-1,27470597112003E-6;
-1,48290278464252E-6;
-1,19101213252934E-6;
-3,11147669024662E-7;
8,64339403186453E-7;
1,82261061567159E-6;
2,15855638689377E-6;
1,82913654397091E-6;
1,14837779897484E-6;
5,38425452803933E-7;
2,3583005613426E-7;
1,74155736194075E-7;
1,11939491808549E-7;
-1,23053227403436E-7;
-4,85108270610013E-7;
-7,74107751701299E-7;
-8,40358707444173E-7;
-7,38965545304511E-7;
-6,88935851548807E-7;
-8,65426943773967E-7;
-1,20503427569093E-6;
-1,40379906391547E-6;
-1,13206674990005E-6;
-3,06603351147569E-7;
7,98355427526715E-7;
1,70114036737613E-6;
2,02090446068936E-6;
1,71645710978996E-6;
1,08168695045E-6;
5,1213836143445E-7;
2,29646708264305E-7;
1,72272580413888E-7;
1,14100918946111E-7;
-1,06085950731685E-7;
-4,45604403551635E-7;
-7,17304833206407E-7;
-7,81112073014261E-7;
-6,88336234929235E-7;
-6,4348556434231E-7;
-8,101998016131E-7;
-1,12942659357605E-6;
-1,31752657427814E-6;
-1,06668996226945E-6;
-2,98750362455805E-7;
7,3121212242612E-7;
1,57458760506215E-6;
1,87631530745639E-6;
1,597309879777E-6;
1,01032116585887E-6;
4,82896488460173E-7;
2,21354800895516E-7;
1,6843154189452E-7;
1,14499060866723E-7;
-9,01094390432947E-8;
-4,0587239951556E-7;
-6,59204172545822E-7;
-7,20093688000192E-7;
-6,35925911710343E-7;
-5,96111195337165E-7;
-7,52291659435055E-7;
-1,04992165120782E-6;
-1,22646277258006E-6;
-9,96827728472101E-7;
-2,88190748237462E-7;
6,64117374157923E-7;
1,44564392299073E-6;
1,7280243736656E-6;
1,47446620742459E-6;
9,36054690683555E-7;
4,51578055001718E-7;
2,11389098575929E-7;
1,62974768826418E-7;
1,1338288548864E-7;
-7,52248769697773E-8;
-3,66554678378992E-7;
-6,00878921911697E-7;
-6,58488413756432E-7;
-5,82790627166039E-7;
-5,47813677318479E-7;
-6,92970180504889E-7;
-9,68283384141669E-7;
-1,13267501831925E-6;
-9,24177659453917E-7;
-2,75465828451228E-7;
5,98078662092901E-7;
1,31659517596911E-6;
1,57879300935151E-6;
1,35030136157019E-6;
8,6041873577364E-7;
4,18949163738751E-7;
2,00136014849677E-7;
1,56215826422816E-7;
1,10983598695711E-7;
-6,15036925450117E-8;
-3,28178909768519E-7;
-5,43232839717453E-7;
-5,97301221430972E-7;
-5,29823585177481E-7;
-4,99439554167812E-7;
-6,33314066728968E-7;
-8,86022290617071E-7;
-1,03793199219051E-6;
-8,50204519737057E-7;
-2,61070826736553E-7;
5,33920876085393E-7;
1,18935597251113E-6;
1,4309469346935E-6;
1,2268258248244E-6;
7,84714968680043E-7;
3,85672195550238E-7;
1,87942270793666E-7;
1,48433337613215E-7;
1,07515573457309E-7;
-4,89804764127047E-8;
-2,91173056661943E-7;
-4,8700646246455E-7;
-5,37357261128843E-7;
-4,77769623555089E-7;
-4,51701793545845E-7;
-5,74233336477957E-7;
-8,04411330000574E-7;
-9,43730622099455E-7;
-7,76156969909352E-7;
-2,4544355199559E-7;
4,72302370435081E-7;
1,06549483745948E-6;
1,28640921578014E-6;
1,10570882139382E-6;
7,1003500355497E-7;
3,52315253617135E-7;
1,75114011906441E-7;
1,39882366726322E-7;
1,03176527693246E-7;
-3,76685728186162E-8;
-2,55871112480598E-7;
-4,32801474561175E-7;
-4,79336110233518E-7;
-4,27238512361379E-7;
-4,0518704633425E-7;
-5,16482698353713E-7;
-7,24512062440588E-7;
-8,51323180225418E-7;
-7,03083880435849E-7;
-2,28972853257697E-7;
4,13736309047756E-7;
9,46281834040212E-7;
1,14674391588634E-6;
9,88316756055633E-7;
6,37281252097236E-7;
3,19354283672905E-7;
1,61918491402164E-7;
1,30788539971705E-7;
9,81471349194674E-8;
-2,75562716202796E-8;
-2,22526905242485E-7;
-3,81088662649435E-7;
-4,23773751267413E-7;
-3,78720136717393E-7;
-3,6037133681262E-7;
-4,60674829727617E-7;
-6,47185109975528E-7;
-7,61729653041963E-7;
-6,31853439471455E-7;
-2,12002149589143E-7;
3,58599998235302E-7;
8,32704207940901E-7;
1,01318765153679E-6;
8,75738901347509E-7;
5,67183235706527E-7;
2,8718749815496E-7;
1,48587656725066E-7;
1,21351972770941E-7;
9,25911964945895E-8;
-1,86174772103538E-8;
-1,91324513361376E-7;
-3,3222610366148E-7;
-3,7108464901899E-7;
-3,32594915951864E-7;
-3,17625841481117E-7;
-4,07295651495715E-7;
-5,73120137799681E-7;
-6,75768094085146E-7;
-5,63170977786833E-7;
-1,94828302944179E-7;
3,07163746340832E-7;
7,25507261296453E-7;
8,86686728225535E-7;
7,68819267082359E-7;
5,00311379166785E-7;
2,56135291108027E-7;
1,35319473081534E-7;
1,11745586864134E-7;
8,66559807788404E-8;
-1,08061278806265E-8;
-1,62380373476313E-7;
-2,86469043612296E-7;
-3,21572276836782E-7;
-2,89142712575336E-7;
-2,77231058576057E-7;
-3,56718638715223E-7;
-5,02847031571093E-7;
-5,94072338936053E-7;
-4,97589129084361E-7;
-1,77705660194586E-7;
2,59592013253101E-7;
6,2521953290163E-7;
7,67930553169637E-7;
6,68181847172323E-7;
4,37098002226394E-7;
2,26453403896962E-7;
1,22281981895121E-7;
1,02120373635497E-7;
8,04736606984002E-8;
-4,06986903263079E-9;
-1,35762876453644E-7;
-2,43984197653418E-7;
-2,75443788542405E-7;
-2,4856468824747E-7;
-2,39389808901773E-7;
-3,09213901268096E-7;
-4,36756298107976E-7;
-5,17117242134253E-7;
-4,35532480281307E-7;
-1,60850525222608E-7;
2,15963094676462E-7;
5,32183194514943E-7;
6,57383400101945E-7;
5,74257401578135E-7;
3,77859143691127E-7;
1,98338816171174E-7;
1,09611706824843E-7;
9,26054773295557E-8;
7,41574608681508E-8;
1,65373079195584E-9;
-1,11489484356752E-7;
-2,04865022293713E-7;
-2,32820381887939E-7;
-2,10980397148168E-7;
-2,042377122529E-7;
-2,64966241224927E-7;
-3,75111941052536E-7;
-4,45227687427749E-7;
-3,77304879985873E-7;
-1,44443109943294E-7;
1,762873853011E-7;
4,46576716117458E-7;
5,55311811745538E-7;
4,87313166936702E-7;
3,22796995956343E-7;
1,71933034672006E-7;
9,74253711806212E-8;
8,33080689809035E-8;
6,78083213145183E-8;
6,43728868583173E-9;
-8,95406372830785E-8;
-1,69138302829642E-7;
-1,93756919107644E-7;
-1,76451256941981E-7;
-1,71841977400531E-7;
-2,24083197296698E-7;
-3,18078945191979E-7;
-3,78609032833114E-7;
-3,23111755268565E-7;
-1,2863021810173E-7;
1,40510165099494E-7;
3,68438504756248E-7;
4,61819653000827E-7;
4,07468609981205E-7;
2,72023284293364E-7;
1,47332214181809E-7;
8,58065952176168E-8;
7,43179130649439E-8;
6,15141721510823E-8;
1,03518163936545E-8;
-6,98653429290091E-8;
-1,36776054024983E-7;
-1,58243090979903E-7;
-1,44982293321618E-7;
-1,42226687109085E-7;
-1,86607847683533E-7;
-2,65723983250586E-7;
-3,17355960621665E-7;
-2,73065740040092E-7;
-1,13529604518914E-7;
1,08526279411325E-7;
2,97693405214266E-7;
3,76866025822931E-7;
3,34722820520341E-7;
2,2557101427625E-7;
1,2459228368333E-7;
7,48268912324187E-8;
6,57066691109786E-8;
5,53458217231667E-8;
1,3472379381283E-8;
-5,23862217367859E-8;
-1,07704703390422E-7;
-1,26220909005497E-7;
-1,16534289336173E-7;
-1,15366555165942E-7;
-1,52523126263049E-7;
-2,180371955961E-7;
-2,61473779022456E-7;
-2,27205201481534E-7;
-9,92301851065422E-8;
8,01934267673757E-8;
2,34168205100758E-7;
3,00294322347243E-7;
2,68971455047945E-7;
1,8340328510049E-7;
1,0373639836401E-7;
6,45346183232662E-8;
5,75290683123074E-8;
4,93677917853072E-8;
1,58784747894515E-8;
-3,70054398093328E-8;
-8,18138463185545E-8;
-9,75862688247963E-8;
-9,10291604705693E-8;
-9,12032716800488E-8;
-1,21770331842269E-7;
-1,74947502999809E-7;
-2,10888840462571E-7;
-1,85502013336553E-7;
-8,58004394492541E-8;
5,53372176906448E-8;
1,77615936304728E-7;
2,31850156027747E-7;
2,10028151018342E-7;
1,45431732688983E-7;
8,47514650549854E-8;
5,49607500647029E-8;
4,98286824704225E-8;
4,36277803343947E-8;
1,7644491297117E-8;
-2,36095674837048E-8;
-5,89664697704089E-8;
-7,22080377892087E-8;
-6,83582276029876E-8;
-6,96474383379219E-8;
-9,42524208663669E-8;
-1,36325346286542E-7;
-1,6546624462158E-7;
-1,47877057665384E-7;
-7,32829797694079E-8;
3,37571054010065E-8;
1,27721961169004E-7;
1,71203498494357E-7;
1,57636208020809E-7;
1,11520811050082E-7;
6,76085661456241E-8;
4,61242692894835E-8;
4,26350844235484E-8;
3,81653490397541E-8;
1,88435953652354E-8;
-1,20721990520395E-8;
-3,90010664184411E-8;
-4,99243094182007E-8;
-4,83885712074599E-8;
-5,05877464851072E-8;
-6,98392106320504E-8;
-1,02001571885247E-7;
-1,25017999129233E-7;
-1,14201756963477E-7;
-6,17050412146548E-8;
1,52363700877204E-8;
8,41283504708011E-8;
1,17963881871411E-7;
1,11488055424701E-7;
8,14995002962853E-8;
5,225215273502E-8;
3,80294520248221E-8;
3,5964797176966E-8;
3,30102902558539E-8;
1,95483163825027E-8;
-2,26226173369075E-9;
-2,17382065787082E-8;
-3,05557675819565E-8;
-3,09738922348073E-8;
-3,38946840582508E-8;
-4,83779853427393E-8;
-7,17689859268691E-8;
-8,93173538419353E-8;
-8,43201576968243E-8;
-5,10759293410459E-8;
-4,48104107801233E-10;
4,64452982097186E-8;
7,1697925711909E-8;
7,12347897426999E-8;
5,51680099506131E-8;
3,86125586946679E-8;
3,06706205493581E-8;
2,98287386294227E-8;
2,81871605940499E-8;
1,98247817629509E-8;
5,95698543367844E-9;
-6,99071628062873E-9;
-1,3911144563394E-8;
-1,59498463192483E-8;
-1,94258668950765E-8;
-2,96992946801748E-8;
-4,539819661829E-8;
-5,81036066687155E-8;
-5,80400507372573E-8;
-4,13916791973802E-8;
-1,35292158460989E-8;
1,42562918637735E-8;
3,19393854869501E-8;
3,64983661966344E-8;
3,23045223572687E-8;
2,66063486670946E-8;
2,40352104735251E-8;
2,42271530045185E-8;
2,37071574967921E-8;
1,97394220684434E-8;
1,27247696805935E-8;
5,4346549586016E-9;
2,13410615047426E-10;
-3,14558124734059E-9;
-7,02779731083211E-9;
-1,36194380772379E-8;
-2,26428133221215E-8;
-3,10988143984314E-8;
-3,51575900083932E-8;
-3,26360526245211E-8;
-2,42393848403974E-8;
-1,28672860217091E-8;
-1,79279829762309E-9;
6,88528026984141E-9;
1,2676149444085E-8;
1,61413367454676E-8;
1,80986930944111E-8;
1,91531065534536E-8;
1,95800667392937E-8;
1,93480330084019E-8;
1,81778233606849E-8;
1,57373536276677E-8;
1,20195956025599E-8;
7,61397468319355E-9;
3,45654919357512E-9;
5,01220612234517E-11;
-3,24333858425808E-9;
-8,00648126939446E-9;
-1,54449446489393E-8;
-2,4784746658471E-8;
-3,2810177199947E-8;
-3,53549346920696E-8;
-2,99945738480858E-8;
-1,80108234954448E-8;
-3,95866795150697E-9;
7,11780805487561E-9;
1,28354501669203E-8;
1,45938478879849E-8;
1,58059647393828E-8;
1,8708039083485E-8;
2,24512017158169E-8;
2,4112183298269E-8;
2,17167736194507E-8;
1,65065317143177E-8;
1,21864530765071E-8;
1,15044418336139E-8;
1,30668277902595E-8;
1,14760891815581E-8;
1,32446986388021E-9;
-1,78028987700968E-8;
-3,9464086542611E-8;
-5,36370253030065E-8;
-5,31551093501373E-8;
-3,85979328065522E-8;
-1,78470446518592E-8;
-5,65812261768593E-10;
8,21027105165548E-9;
1,05305999374549E-8;
1,23845082039455E-8;
1,78683242322043E-8;
2,56737887112962E-8;
3,07522984210585E-8;
2,95063466311899E-8;
2,37054705863101E-8;
1,9319376509099E-8;
2,09374236638283E-8;
2,65520106221786E-8;
2,76530778941456E-8;
1,53911705650109E-8;
-1,16501580243139E-8;
-4,44178372545137E-8;
-6,81330291167654E-8;
-7,17622977679585E-8;
-5,5277650774029E-8;
-2,92335393836987E-8;
-7,01904864646692E-9;
4,18924598172307E-9;
6,94571174174177E-9;
9,30688906017367E-9;
1,68752767324629E-8;
2,79725634925386E-8;
3,58434834569463E-8;
3,55871774153287E-8;
2,93835919771747E-8;
2,50129913938346E-8;
2,85430031253789E-8;
3,74802396476312E-8;
4,08293746664066E-8;
2,69864612820098E-8;
-6,28326704436045E-9;
-4,78782520930539E-8;
-7,9250848235858E-8;
-8,62872206653854E-8;
-6,84473755128574E-8;
-3,83603258095112E-8;
-1,23431702450022E-8;
7,32019484865904E-10;
3,81142170945846E-9;
6,56399695649397E-9;
1,57673737695368E-8;
2,94650650367376E-8;
3,95667378903966E-8;
4,014711023663E-8;
3,37045253627453E-8;
2,94182649267811E-8;
3,45053121746325E-8;
4,61055748929738E-8;
5,1300044490706E-8;
3,63450894826804E-8;
-1,65198493388129E-9;
-5,00400633655447E-8;
-8,73832343238815E-8;
-9,71852718325707E-8;
-7,84833838857703E-8;
-4,54630190055262E-8;
-1,66473624428906E-8;
-2,19974463969379E-9;
1,10230402204088E-9;
4,1407626323618E-9;
1,45816798761372E-8;
3,02612721206672E-8;
4,20895812402669E-8;
4,33695412841147E-8;
3,68273875273924E-8;
3,26807237512234E-8;
3,9004189831283E-8;
5,26768233183377E-8;
5,93550502171868E-8;
4,36948493181874E-8;
2,29498311101039E-9;
-5,10841037023486E-8;
-9,28974038347293E-8;
-1,04888570706424E-7;
-8,57538032036687E-8;
-5,07660315189991E-8;
-2,00318816404627E-8;
-4,64998858511418E-9;
-1,20963102046385E-9;
2,02284284473639E-9;
1,33494398111796E-8;
3,04635695578935E-8;
4,35714337034543E-8;
4,54278983785609E-8;
3,89033450715653E-8;
3,49397573244438E-8;
4,22157686823779E-8;
5,7433949115141E-8;
6,52677257596677E-8;
4,92536163883417E-8;
5,60624434355637E-9;
-5,11808366064909E-8;
-9,61399188382042E-8;
-1,09808568018678E-7;
-9,0603305874448E-8;
-5,44852771462013E-8;
-2,25970118111816E-8;
-6,6587292165386E-9;
-3,15556886831298E-9;
1,92768469319052E-10;
1,20986816651147E-8;
3,01687196442997E-8;
4,41636922860675E-8;
4,64810161844662E-8;
4,00705582571404E-8;
3,63241275923617E-8;
4,43008272713729E-8;
6,06014151932024E-8;
6,92981177580279E-8;
5,32296286248936E-8;
8,33841066920554E-9;
-5,04839258872308E-8;
-9,7438441657366E-8;
-1,12326644291446E-7;
-9,33524493032349E-8;
-5,68232432365469E-8;
-2,44368690867857E-8;
-8,26591107962144E-9;
-4,76270320306962E-9;
-1,36687457635233E-9;
1,0850656633907E-8;
2,9461967171123E-8;
4,40019371862933E-8;
4,66766110209997E-8;
4,04619094080313E-8;
3,69576730848039E-8;
4,54102194133202E-8;
6,23906417333722E-8;
7,16954404021166E-8;
5,58206016968339E-8;
1,05407911103171E-8;
-4,91366941731951E-8;
-9,70916596340544E-8;
-1,1279787367456E-7;
-9,43054272651058E-8;
-5,79693733971824E-8;
-2,56400159283041E-8;
-9,5136790557185E-9;
-6,06273642637196E-9;
-2,6774687638084E-9;
9,62368514641783E-9;
2,84229101610668E-8;
4,32145391549632E-8;
4,61545475331176E-8;
4,01980634629989E-8;
3,69526271660485E-8;
4,56882882867566E-8;
6,29995219839326E-8;
7,26870257978112E-8;
5,72136456219639E-8;
1,22673372970324E-8;
-4,72663984133068E-8;
-9,53736215216331E-8;
-1,11550239095845E-7;
-9,37409353887062E-8;
-5,81022644618872E-8;
-2,62934603812943E-8;
-1,04385583004148E-8;
-7,083410825435E-9;
-3,7569194780021E-9;
8,43835222283455E-9;
2,71236942136998E-8;
4,1913067839612E-8;
4,50385210638458E-8;
3,93903568306026E-8;
3,64124469070063E-8;
4,52642527739898E-8;
6,2610200971572E-8;
7,24864904257407E-8;
5,75784948911114E-8;
1,35650770442248E-8;
-4,49885551494357E-8;
-9,25346465583782E-8;
-1,08881033160882E-7;
-9,19125646144028E-8;
-5,73806139844898E-8;
-2,64732794168656E-8;
-1,10809550198189E-8;
-7,85605264713847E-9;
-4,62642529671295E-9;
7,30326691741695E-9;
2,562483967985E-8;
4,02031937518096E-8;
4,34426133612708E-8;
3,81379327660887E-8;
3,54325380802227E-8;
4,42590101130129E-8;
6,13892074760136E-8;
7,12893116896086E-8;
5,70782856018003E-8;
1,448465540028E-8;
-4,240407143546E-8;
-8,87996876553844E-8;
-1,05062698266508E-7;
-8,90527895752338E-8;
-5,59550819950496E-8;
-2,62546120285738E-8;
-1,14721449527764E-8;
-8,40515251103196E-9;
-5,30652298793631E-9;
6,2293202613067E-9;
2,39847597496655E-8;
3,81785175850222E-8;
4,14691409220843E-8;
3,65321901713747E-8;
3,40976449713842E-8;
4,27800379211528E-8;
5,94876214960196E-8;
6,92700987582854E-8;
5,58537425758759E-8;
1,50688089219754E-8;
-3,96042211784223E-8;
-8,43719094820781E-8;
-1,00338092255951E-7;
-8,5370460691509E-8;
-5,39587699268912E-8;
-2,57028497920009E-8;
-1,16480482528018E-8;
-8,7585097880332E-9;
-5,81393380904372E-9;
5,22427814680264E-9;
2,22485332756858E-8;
3,59188540149419E-8;
3,92087578449487E-8;
3,46539419292709E-8;
3,24859773978641E-8;
4,09266684294205E-8;
5,70442737136894E-8;
6,65936068572513E-8;
5,40423285890656E-8;
1,5364744046387E-8;
-3,66643890088047E-8;
-7,94279965478133E-8;
-9,49238260154513E-8;
-8,10538434025215E-8;
-5,15127741898085E-8;
-2,48784557662535E-8;
-1,16388303509361E-8;
-8,94110376244006E-9;
-6,16913155213979E-9;
4,29385588293067E-9;
2,04602018866799E-8;
3,34954413379161E-8;
3,67420437511722E-8;
3,2577188696374E-8;
3,06655024779095E-8;
3,87846260621043E-8;
5,41795846314131E-8;
6,34016397877301E-8;
5,17620487766041E-8;
1,54098908871089E-8;
-3,36554659524224E-8;
-7,41277114496002E-8;
-8,90106286911064E-8;
-7,62653375363097E-8;
-4,872502666365E-8;
-2,38367178765006E-8;
-1,14714152260404E-8;
-8,97574025714893E-9;
-6,39057035267943E-9;
3,43936357977205E-9;
1,8657498173986E-8;
3,09741758867681E-8;
3,41375478086082E-8;
3,03627694229635E-8;
2,86959898773552E-8;
3,64326448632671E-8;
5,10055792860005E-8;
5,98240394214075E-8;
4,91187769651508E-8;
1,52412225603857E-8;
-3,06333813794497E-8;
-6,86049727720711E-8;
-8,27658571537977E-8;
-7,11547911934591E-8;
-4,56919726944314E-8;
-2,26276977015685E-8;
-1,11761025227762E-8;
-8,88589354456121E-9;
-6,49323403022285E-9;
2,66411531369877E-9;
1,68664570617148E-8;
2,8406545397605E-8;
3,14580960266325E-8;
2,80649947682144E-8;
2,66306573642543E-8;
3,39375628373258E-8;
4,76138199549628E-8;
5,59726716525407E-8;
4,6210164122184E-8;
1,48960717447042E-8;
-2,76454771582343E-8;
-6,29781770654916E-8;
-7,63366255045845E-8;
-6,58472341187483E-8;
-4,24935650765577E-8;
-2,12942672187414E-8;
-1,07752388301516E-8;
-8,68943961565726E-9;
-6,49471425529071E-9;
1,96622313858931E-9;
1,51152917641718E-8;
2,58385587103873E-8;
2,8753300405953E-8;
2,57330126526346E-8;
2,45156324970524E-8;
3,13589196339654E-8;
4,40914312386085E-8;
5,19473312366937E-8;
4,31167573619245E-8;
1,44041805170067E-8;
-2,4731304020494E-8;
-5,73474822806944E-8;
-6,9843984816885E-8;
-6,04490908048156E-8;
-3,9204864804192E-8;
-1,98743744940879E-8;
-1,02889972707614E-8;
-8,40801158413503E-9;
-6,41046941419536E-9;
1,34575581701975E-9;
1,34224508356953E-8;
2,33088080552462E-8;
2,6069571925991E-8;
2,34048899944809E-8;
2,23877464237101E-8;
2,87471990779458E-8;
4,05073579194175E-8;
4,78324276194004E-8;
3,99139197489405E-8;
1,3795814117963E-8;
-2,19236013336065E-8;
-5,17965933048655E-8;
-6,33940128565385E-8;
-5,50556226350756E-8;
-3,58872783559335E-8;
-1,84028572744477E-8;
-9,73904341482768E-9;
-8,05607277680874E-9;
-6,25312596954272E-9;
7,99928108378641E-10;
1,18053422979666E-8;
2,08489310875582E-8;
2,344103629316E-8;
2,1114989338738E-8;
2,02826499161542E-8;
2,61469579977221E-8;
3,69256013008824E-8;
4,37021279809795E-8;
3,66633036766746E-8;
1,30955393558187E-8;
-1,92472242980514E-8;
-4,6392794545288E-8;
-5,70740548266359E-8;
-4,97432626344451E-8;
-3,25913277939406E-8;
-1,69075419917467E-8;
-9,14163260058673E-9;
-7,64991798791572E-9;
-6,03690153430424E-9;
3,25730462509603E-10;
1,02745412185305E-8;
1,84834449235454E-8;
2,08987577986681E-8;
1,88889287093753E-8;
1,82248397578762E-8;
2,35908784731431E-8;
3,33931102670149E-8;
3,96156426166617E-8;
3,34174143591666E-8;
1,23287218075643E-8;
-1,6720599726789E-8;
-4,1193846476985E-8;
-5,095448787629E-8;
-4,45763020803365E-8;
-2,93629945705926E-8;
-1,54135275788709E-8;
-8,51264822112307E-9;
-7,20396580632063E-9;
-5,77357786058551E-9;
-7,99677788735733E-11;
8,84115138711803E-9;
1,62315602461529E-8;
1,84649009193078E-8;
1,67514029482018E-8;
1,62368166201235E-8;
2,11096786226492E-8;
2,99558922304217E-8;
3,56258363965881E-8;
3,02228966778212E-8;
1,1513230351955E-8;
-1,43583532150028E-8;
-3,62390633381088E-8;
-4,50912257670559E-8;
-3,96045724109013E-8;
-2,62355418616743E-8;
-1,39416045000713E-8;
-7,86517225767441E-9;
-6,72877369577935E-9;
-5,47174175032493E-9;
-4,22789176000078E-10;
7,50776879929917E-9;
1,4109211149427E-8;
1,61575109053812E-8;
1,47161814843103E-8;
1,43381038480554E-8;
1,87278380380489E-8;
2,66454505059685E-8;
3,17727613360238E-8;
2,71147976562255E-8;
1,06697799453034E-8;
-1,21675022182194E-8;
-3,15641264370045E-8;
-3,9529061701219E-8;
-3,48695412965346E-8;
-2,32388416145205E-8;
-1,25079298049731E-8;
-7,20917498306404E-9;
-6,23472815293063E-9;
-5,1432872923603E-9;
-7,06331009573346E-10;
6,28273286335503E-9;
1,21250537993629E-8;
1,39893866279367E-8;
1,28001059379197E-8;
1,25390632870175E-8;
1,64622210572302E-8;
2,34899864936734E-8;
2,80894373843629E-8;
2,41245387568818E-8;
9,81228411549477E-9;
-1,0154803456808E-8;
-2,71913855805235E-8;
-3,42990150849421E-8;
-3,03990727194432E-8;
-2,03925753621256E-8;
-1,11289388492847E-8;
-6,56066745235715E-9;
-5,73462060451838E-9;
-4,79588345983397E-9;
-9,35265977671457E-10;
5,1630486473167E-9;
1,02866423404119E-8;
1,19701882263546E-8;
1,10067225496811E-8;
1,08497241207084E-8;
1,43265329616237E-8;
2,05084567311607E-8;
2,46009467434867E-8;
2,12724779560855E-8;
8,95461499822406E-9;
-8,31948456688633E-9;
-2,31349909914139E-8;
-2,94227120493835E-8;
-2,62168005469502E-8;
-1,77161936381263E-8;
-9,81345349386133E-9;
-5,92101961639723E-9;
-5,23267369907909E-9;
-4,43696046958969E-9;
-1,11435115575001E-9;
4,15033295797643E-9;
8,59797826664086E-9;
1,01069021081578E-8;
9,34779699838066E-9;
9,27913314909229E-9;
1,23305250317219E-8;
1,77145830571043E-8;
2,13251073768117E-8;
1,8580241947338E-8;
8,10942771139433E-9;
-6,66195675018126E-9;
-1,94028269430222E-8;
-2,49131258735259E-8;
-2,23355961457714E-8;
-1,5218367451638E-8;
-8,56918004748336E-9;
-5,30043692662294E-9;
-4,73748173813488E-9;
-4,07221487400999E-9;
-1,24979452942554E-9;
3,24057752376416E-9;
7,05894173976835E-9;
8,39903499519538E-9;
7,82224139111284E-9;
7,82885102702161E-9;
1,04815379155128E-8;
1,51212812018284E-8;
1,82742767505037E-8;
1,60574710863391E-8;
7,2848779530568E-9;
-5,17752922081548E-9;
-1,59970210344577E-8;
-2,07777089773089E-8;
-1,87626912258173E-8;
-1,2906309141113E-8;
-7,40404904016308E-9;
-4,70402124810385E-9;
-4,25444095186459E-9;
-3,7087840158726E-9;
-1,34525773911858E-9;
2,43122692866115E-9;
5,66833965649134E-9;
6,84786109656756E-9;
6,43061034493362E-9;
6,50160665044567E-9;
8,7808747613951E-9;
1,27295358503585E-8;
1,54563152118185E-8;
1,37132299246705E-8;
6,4898140610468E-9;
-3,85838269465195E-9;
-1,29137917551091E-8;
-1,70139993151814E-8;
-1,54991748215141E-8;
-1,07829348819716E-8;
-6,31977662051471E-9;
-4,13610222487877E-9;
-3,78767693929101E-9;
-3,35028294328542E-9;
-1,40556134592015E-9;
1,71966029080543E-9;
4,42042000354363E-9;
5,44841370019873E-9;
5,17251691367754E-9;
5,29388700113656E-9;
7,22946719462349E-9;
1,05441501474101E-8;
1,28721386879171E-8;
1,15507798378068E-8;
5,72987495333111E-9;
-2,69877277853446E-9;
-1,01461286945871E-8;
-1,36167208859072E-8;
-1,25430596783965E-8;
-8,8502974687969E-9;
-5,32096508172304E-9;
-3,59978842988579E-9;
-3,34179639555108E-9;
-3,00163363863072E-9;
-1,43518396438192E-9;
1,09919459702167E-9;
3,31364899887411E-9;
4,19888374581782E-9;
4,04400002097979E-9;
4,2078474047988E-9;
5,82613485647382E-9;
8,56059116878988E-9;
1,05224762882904E-8;
9,57340144835202E-9;
5,00920244399521E-9;
-1,69094579601059E-9;
-7,68292782064536E-9;
-1,05754847978954E-8;
-9,88543833303521E-9;
-7,10173830191862E-9;
-4,40624908742451E-9;
-3,0976497606516E-9;
-2,91867382775867E-9;
-2,66529032511175E-9;
-1,4381169764739E-9;
5,64022931480195E-10;
2,33847999790566E-9;
3,09297897941408E-9;
3,04007463430934E-9;
3,23580696459603E-9;
4,56606507466437E-9;
6,77440478609404E-9;
8,40238371491852E-9;
7,77891708259004E-9;
4,33220526764819E-9;
-8,23198207400216E-10;
-5,51100300589449E-9;
-7,87708784719316E-9;
-7,51791896509667E-9;
-5,53671738571741E-9;
-3,57598129490349E-9;
-2,63083076586333E-9;
-2,52070083424197E-9;
-2,34311247083219E-9;
-1,41920683798513E-9;
1,08980651548058E-10;
1,48897151306862E-9;
2,1213897662142E-9;
2,15604409208427E-9;
2,37495480930461E-9;
3,44407213454153E-9;
5,18111024721594E-9;
6,50399083034713E-9;
6,16168969844956E-9;
3,70176783146964E-9;
-8,53977594413872E-11;
-3,61229917635276E-9;
-5,50422991711649E-9;
-5,42595233653279E-9;
-4,14265341883881E-9;
-2,82800890014795E-9;
-2,20211072902808E-9;
-2,15064949441303E-9;
-2,03892710613826E-9;
-1,38222986593708E-9;
-2,7411175708659E-10;
7,56698701619075E-10;
1,27792175573725E-9;
1,38424401219348E-9;
1,62044212088026E-9;
2,45496241282586E-9;
3,77127198802876E-9;
4,82006204644348E-9;
4,71703969208352E-9;
3,11736310469353E-9;
5,30666370154463E-10;
-1,97322432385424E-9;
-3,44010492466958E-9;
-3,59670037167764E-9;
-2,91495968771823E-9;
-2,15816353472537E-9;
-1,80828172445987E-9;
-1,80837291650432E-9;
-1,75371871737784E-9;
-1,32844689061829E-9;
-5,87500870989194E-10;
1,33581953594693E-10;
5,53416322249946E-10;
7,18693965568481E-10;
9,64440692129922E-10;
1,59061247669642E-9;
2,5354306223724E-9;
3,33788369797916E-9;
3,43805101261341E-9;
2,58312083615555E-9;
1,03763961661657E-9;
-5,72813479958719E-10;
-1,6600966552613E-9;
-2,01199489772622E-9;
-1,84533417220883E-9;
-1,5667203344132E-9;
-1,45266631647503E-9;
-1,49329412408673E-9;
-1,48760390113486E-9;
-1,26481305436128E-9;
-8,41647985836443E-10;
-3,89607481960969E-10;
-6,00218214252878E-11;
1,51943722069732E-10;
4,01607117218957E-10;
8,4309449079682E-10;
1,46250487234346E-9;
2,04826303407115E-9;
2,31559418540045E-9;
2,09568431670584E-9;
1,44523096687031E-9;
6,06239816557564E-10;
-1,47681524916974E-10;
-6,57133701361255E-10;
-9,22080378763068E-10;
-1,04653679174487E-9;
-1,13085165192289E-9;
-1,20664259017099E-9;
-1,24196019535413E-9;
-1,19044002363239E-9;
-1,04034261190357E-9;
-8,19490801522664E-10;
-5,72725908111741E-10;
-3,26231696073046E-10;
-7,51302031276948E-11;
2,04591042142356E-10;
5,42048040184477E-10;
9,36940384937605E-10;
1,33981749232903E-9;
1,6546015191465E-9;
1,76309424750186E-9;
1,58316563902282E-9;
1,11991352572797E-9;
4,87448583941376E-10;
-1,34774590491645E-10;
-5,95604939965091E-10;
-8,44638499570042E-10;
-9,48434094954187E-10;
-1,01780543794432E-9;
-1,11043802216563E-9;
-1,19150529307703E-9;
-1,16814940518447E-9;
-9,91785289310477E-10;
-7,20490506888009E-10;
-4,74866276220198E-10;
-3,32925237382718E-10;
-2,36439665575181E-10;
-8,07494370176149E-12;
5,02435303805561E-10;
1,25920894062001E-9;
2,00205283478627E-9;
2,37716068541906E-9;
2,16482648687847E-9;
1,43945222288629E-9;
5,27895975488761E-10;
-2,06373636934342E-10;
-5,90780122162213E-10;
-7,17174410347972E-10;
-8,12113889872008E-10;
-1,02447005010228E-9;
-1,29833749195898E-9;
-1,44120720018706E-9;
-1,32926106819822E-9;
-1,03977190555611E-9;
-8,00768822089393E-10;
-7,79563293372926E-10;
-8,8629494000079E-10;
-8,00765083834503E-10;
-2,09078418284489E-10;
9,08308530272737E-10;
2,17161699628983E-9;
3,00533128706634E-9;
3,00647835555824E-9;
2,21474199310143E-9;
1,0747041691132E-9;
1,21582334229376E-10;
-3,69317124127358E-10;
-5,11201203521392E-10;
-6,2758340340099E-10;
-9,37818901412782E-10;
-1,36801672379641E-9;
-1,64804173820916E-9;
-1,59107022130181E-9;
-1,29202496404299E-9;
-1,06403948187459E-9;
-1,14197434666925E-9;
-1,41711417690007E-9;
-1,45374334968267E-9;
-8,02800417497907E-10;
5,99020566005181E-10;
2,27935276019013E-9;
3,48625935369833E-9;
3,66840733245756E-9;
2,83369353209424E-9;
1,51887828698698E-9;
3,96708195239036E-10;
-1,76562113624955E-10;
-3,29918542320458E-10;
-4,6275494627437E-10;
-8,49893649512321E-10;
-1,40411647710693E-9;
-1,79658319964498E-9;
-1,7877193939201E-9;
-1,4835565789239E-9;
-1,26801918019727E-9;
-1,42908404698252E-9;
-1,84320740425597E-9;
-1,98225998288802E-9;
-1,28995940272372E-9;
3,28887587363324E-10;
2,33472380472381E-9;
3,83758440458978E-9;
4,16755074471355E-9;
3,30914999014576E-9;
1,86765209867307E-9;
6,21270520411818E-10;
-1,12862405712456E-11;
-1,73067816437896E-10;
-3,17769892426947E-10;
-7,62376000359135E-10;
-1,41446053187926E-9;
-1,89393093652924E-9;
-1,92429664406502E-9;
-1,62390262535007E-9;
-1,42086714540566E-9;
-1,6494434524952E-9;
-2,1740931993467E-9;
-2,39489652323685E-9;
-1,68022149326902E-9;
9,65478747643497E-11;
2,34548404165646E-9;
4,07479857793427E-9;
4,52592012575479E-9;
3,65979635115665E-9;
2,13491929220858E-9;
8,02858069023029E-10;
1,27850857338796E-10;
-3,63333868628828E-11;
-1,87944158789092E-10;
-6,77172389768974E-10;
-1,40200154911918E-9;
-1,94776179717153E-9;
-2,01071939543554E-9;
-1,71550311575245E-9;
-1,52749531585249E-9;
-1,80985951029478E-9;
-2,41874799666732E-9;
-2,7084593024034E-9;
-1,98589886428567E-9;
-1,00512592225287E-10;
2,31978102992948E-9;
4,21263435254776E-9;
4,75825763537961E-9;
3,90095654115218E-9;
2,32774920325644E-9;
9,42083298378316E-10;
2,440068013181E-10;
7,93097933522883E-11;
-7,639283341263E-11;
-5,93825692038396E-10;
-1,36949077238475E-9;
-1,96297782488621E-9;
-2,05312086706472E-9;
-1,76880567586757E-9;
-1,59499003642737E-9;
-1,91821414750243E-9;
-2,59140896449632E-9;
-2,93272794204917E-9;
-2,21369661092574E-9;
-2,68361226059667E-10;
2,26148971568055E-9;
4,26704480478631E-9;
4,88459635910634E-9;
4,04597469712069E-9;
2,45575335959403E-9;
1,04749267253025E-9;
3,38879805313257E-10;
1,75679899673407E-10;
1,87684018422336E-11;
-5,15641283712401E-10;
-1,32069577311591E-9;
-1,94594781016944E-9;
-2,05858856775151E-9;
-1,78635100441407E-9;
-1,62760100751057E-9;
-1,98112544255787E-9;
-2,6985075441436E-9;
-3,07924265708112E-9;
-2,3736614952325E-9;
-4,04528260335911E-10;
2,18003927718519E-9;
4,24881310908117E-9;
4,91846912877306E-9;
4,10922929275687E-9;
2,52745439028869E-9;
1,12062489480697E-9;
4,14035232515285E-10;
2,5426321947397E-10;
9,9101481438995E-11;
-4,40995660938134E-10;
-1,26004593044069E-9;
-1,90302725481056E-9;
-2,03237136478953E-9;
-1,77541409805791E-9;
-1,63265774310808E-9;
-2,0058792850356E-9;
-2,74883303790524E-9;
-3,15833316488122E-9;
-2,47497496097139E-9;
-5,14159577790573E-10;
2,07777605577927E-9;
4,17192136809887E-9;
4,87620894617128E-9;
4,10168096147418E-9;
2,55230863870489E-9;
1,16704832723094E-9;
4,71941776399824E-10;
3,1898346433889E-10;
1,66815776236163E-10;
-3,70921958666526E-10;
-1,19086985828591E-9;
-1,84093682392402E-9;
-1,98141634887171E-9;
-1,73897727641303E-9;
-1,61231729303332E-9;
-1,9981325308879E-9;
-2,75143360483053E-9;
-3,1787598089838E-9;
-2,52510548882842E-9;
-6,00003426162836E-10;
1,96149607458103E-9;
4,04491034372542E-9;
4,7686614864668E-9;
4,03705754321325E-9;
2,53566369172759E-9;
1,18836713068441E-9;
5,13412432294558E-10;
3,67606830760721E-10;
2,20600052109821E-10;
-3,07001873750348E-10;
-1,11348668167586E-9;
-1,75872311442201E-9;
-1,90869598815532E-9;
-1,6840549264225E-9;
-1,57231953010989E-9;
-1,96236918579904E-9;
-2,71569361456425E-9;
-3,15204446928448E-9;
-2,53129122706596E-9;
-6,64909622873921E-10;
1,83438765099818E-9;
3,88010637822207E-9;
4,60960885036595E-9;
3,92506116905866E-9;
2,4867956817265E-9;
1,19013464164936E-9;
5,42091875439001E-10;
4,05244986892167E-10;
2,64541642019558E-10;
-2,4730275411718E-10;
-1,03345180864159E-9;
-1,66573550889404E-9;
-1,82057760609704E-9;
-1,61359668730956E-9;
-1,51519650903475E-9;
-1,90463574575652E-9;
-2,64631200482211E-9;
-3,08414046061971E-9;
-2,50126570117736E-9;
-7,10255114328698E-10;
1,70005369491045E-9;
3,68481091931391E-9;
4,40914044763295E-9;
3,77428161217208E-9;
2,41023463184436E-9;
1,17517347730337E-9;
5,58918033140103E-10;
4,30178896540942E-10;
2,97057340085184E-10;
-1,93472404153918E-10;
-9,50303130437759E-10;
-1,56248058890562E-9;
-1,71962502704437E-9;
-1,53007034404607E-9;
-1,44503262580831E-9;
-1,82873832462608E-9;
-2,55030718930525E-9;
-2,98282744665926E-9;
-2,44067154378493E-9;
-7,39565109561074E-10;
1,5621196854331E-9;
3,46661207659235E-9;
4,17715323303652E-9;
3,5930369042882E-9;
2,30977152089597E-9;
1,14575111056434E-9;
5,65510125179898E-10;
4,46681762970342E-10;
3,21996032421861E-10;
-1,44944636054346E-10;
-8,65511751157588E-10;
-1,45227796890473E-9;
-1,61009827877473E-9;
-1,43936439924218E-9;
-1,36646922051961E-9;
-1,73719699001666E-9;
-2,43288761034321E-9;
-2,85682474786114E-9;
-2,3555502827276E-9;
-7,54870565795499E-10;
1,42244458569058E-9;
3,2342599156156E-9;
3,92223234402999E-9;
3,38859056954269E-9;
2,19274227694621E-9;
1,10531201329862E-9;
5,63962725784168E-10;
4,53461984981752E-10;
3,3814070184417E-10;
-1,00315079307643E-10;
-7,82443421864955E-10;
-1,34011861548644E-9;
-1,49469484834713E-9;
-1,34146773974132E-9;
-1,2808385357734E-9;
-1,63753878551517E-9;
-2,30025568060245E-9;
-2,70989642320687E-9;
-2,25110208860502E-9;
-7,56320362956321E-10;
1,28563846711897E-9;
2,99158793601782E-9;
3,65134069095023E-9;
3,16907327806501E-9;
2,06411517607907E-9;
1,05580927425794E-9;
5,53125411573906E-10;
4,53226374042053E-10;
3,47502301311805E-10;
-6,25641927763003E-11;
-6,99882183901024E-10;
-1,22480613595076E-9;
-1,37601268679179E-9;
-1,23963780383112E-9;
-1,19050312403817E-9;
-1,53028372939875E-9;
-2,15564217832144E-9;
-2,54720515244688E-9;
-2,13112872074794E-9;
-7,47859469385504E-10;
1,15148484817185E-9;
2,74592653169656E-9;
3,37250485123705E-9;
2,93994515150443E-9;
1,92696652848627E-9;
9,98680033165226E-10;
5,37702496223884E-10;
4,4815008832189E-10;
3,50369478479693E-10;
-2,98138352562127E-11;
-6,21970485263999E-10;
-1,11152346214635E-9;
-1,25618994425191E-9;
-1,13627956781649E-9;
-1,09698765305185E-9;
-1,41727463191142E-9;
-2,00343249280821E-9;
-2,37564492377693E-9;
-2,00065748007672E-9;
-7,29837848653896E-10;
1,02144840758301E-9;
2,49967932371683E-9;
3,0899617703072E-9;
2,70407415778586E-9;
1,78349274808022E-9;
9,37571938636182E-10;
5,17265013752479E-10;
4,36240255042189E-10;
3,47331326811916E-10;
-7,50710535541111E-13;
-5,46045156175119E-10;
-9,99654950146804E-10;
-1,13719126522366E-9;
-1,03380249495886E-9;
-1,00448491055845E-9;
-1,30373390777508E-9;
-1,84775232842086E-9;
-2,1969962182471E-9;
-1,86296483458667E-9;
-7,05481199740152E-10;
8,97642605603919E-10;
2,25603413219028E-9;
2,80851352372725E-9;
2,46872951138408E-9;
1,63690771151007E-9;
8,71921369676823E-10;
4,92587406303951E-10;
4,20920226571423E-10;
3,41253964174614E-10;
2,31516239851091E-11;
-4,75493063551008E-10;
-8,91067461864207E-10;
-1,02177966871027E-9;
-9,3279969695059E-10;
-9,08877918198028E-10;
-1,18707948517408E-9;
-1,69042065019709E-9;
-2,01620703309322E-9;
-1,72065547182518E-9;
-6,749160774995E-10;
7,80459578284869E-10;
2,01941965639754E-9;
2,53082016646616E-9;
2,23534541773026E-9;
1,49213035619297E-9;
8,05292654353812E-10;
4,6548158819679E-10;
4,02025185892613E-10;
3,31455012037025E-10;
4,51623294530514E-11;
-4,07983665731685E-10;
-7,87979387449757E-10;
-9,10174067616166E-10;
-8,34449543752066E-10;
-8,1838946547269E-10;
-1,07461930670845E-9;
-1,53418800788864E-9;
-1,83557698627024E-9;
-1,57750021156584E-9;
-6,40400088037221E-10;
6,70901962626221E-10;
1,79228237959405E-9;
2,26251473340922E-9;
2,00827299867906E-9;
1,34939312159126E-9;
7,3736095186546E-10;
4,35439462453608E-10;
3,80663980115035E-10;
3,18090859244431E-10;
6,08258410500133E-11;
-3,46885986952906E-10;
-6,89227163376266E-10;
-8,02645648842699E-10;
-7,39899334450001E-10;
-7,30524453981417E-10;
-9,64915678523654E-10;
-1,38150560341688E-9;
-1,65864811293411E-9;
-1,43502809680587E-9;
-6,02330515412251E-10;
5,68458789005952E-10;
1,57566691284866E-9;
2,00492051656616E-9;
1,78795098004355E-9;
1,20908090595939E-9;
6,70626876852813E-10;
4,05284771117485E-10;
3,57374643473159E-10;
3,028662913309E-10;
7,43501883240325E-11;
-2,89954423588809E-10;
-5,96730800226949E-10;
-7,00766295774305E-10;
-6,49393380930201E-10;
-6,45280053282782E-10;
-8,57506383938779E-10;
-1,23279927822471E-9;
-1,4864803578414E-9;
-1,29565971627714E-9;
-5,61581873753381E-10;
4,74958331457292E-10;
1,3709518686339E-9;
1,75990164134207E-9;
1,5784779911497E-9;
1,07593633294816E-9;
6,04554702024322E-10;
3,72367908683028E-10;
3,33240496716851E-10;
2,8591500890221E-10;
8,50025783673509E-11;
-2,36172311778732E-10;
-5,10823306228744E-10;
-6,05924387061391E-10;
-5,64155279291915E-10;
-5,65856316844203E-10;
-7,56211770155135E-10;
-1,09142166837667E-9;
-1,32063185790327E-9;
-1,15898316973058E-9;
-5,20383708488066E-10;
3,89481569451949E-10;
1,18051767435477E-9;
1,52946772568857E-9;
1,3810046333442E-9;
9,4770063445932E-10;
5,39605154893127E-10;
3,40176183170019E-10;
3,07465475302804E-10;
2,6719071543886E-10;
9,12947813521326E-11;
-1,8976490591318E-10;
-4,31415076887104E-10;
-5,18905672615923E-10;
-4,85404233823826E-10;
-4,89167727940141E-10;
-6,60366350754937E-10;
-9,5809003716572E-10;
-1,16263474467467E-9;
-1,02884026094268E-9;
-4,77923334755778E-10;
3,13030279881077E-10;
1,00370509993028E-9;
1,3142767768108E-9;
1,19388839032234E-9;
8,25978182031807E-10;
4,78451239521949E-10;
3,08924075661487E-10;
2,82321668955266E-10;
2,4899279256874E-10;
9,71943713294508E-11;
-1,47454243639715E-10;
-3,57657637926059E-10;
-4,36528799402598E-10;
-4,11698492440823E-10;
-4,18320699350899E-10;
-5,70946111773125E-10;
-8,32377908267052E-10;
-1,01453306577743E-9;
-9,0526029335036E-10;
-4,35935344402389E-10;
2,4301512880272E-10;
8,41488156109976E-10;
1,11476755651063E-9;
1,02053233926813E-9;
7,13371711035315E-10;
4,20309959511862E-10;
2,79058109367108E-10;
2,56603207257706E-10;
2,2837685752111E-10;
1,00148166018521E-10;
-1,09935757337122E-10;
-2,9164203682599E-10;
-3,61918025245111E-10;
-3,44545969511736E-10;
-3,54266562644532E-10;
-4,87833047369455E-10;
-7,1316786788699E-10;
-8,73842219546136E-10;
-7,88515150325891E-10;
-3,93584523777735E-10;
1,8128149190061E-10;
6,92208272903772E-10;
9,32528739298026E-10;
8,60192043588501E-10;
6,08412708716311E-10;
3,65946903200869E-10;
2,47569555931917E-10;
2,31480408964874E-10;
2,08745500317655E-10;
1,00157551632933E-10;
-7,65627243332879E-11;
-2,31564742082694E-10;
-2,93775389189358E-10;
-2,82817734940297E-10;
-2,94635138512339E-10;
-4,09617051325068E-10;
-6,04665760814202E-10;
-7,46105593409391E-10;
-6,7940796068194E-10;
-3,53251253336047E-10;
1,27435283365271E-10;
5,57847737929706E-10;
7,65478463428799E-10;
7,14608940239197E-10;
5,1136405468403E-10;
3,14939807946072E-10;
2,19252448079808E-10;
2,06867092445753E-10;
1,89467863434573E-10;
9,96452661905585E-11;
-4,69112645344238E-11;
-1,7774625325276E-10;
-2,32596957532635E-10;
-2,26733627822319E-10;
-2,40738373223177E-10;
-3,38866607830539E-10;
-5,03723974136881E-10;
-6,26197259204486E-10;
-5,77432858967667E-10;
-3,14691981459217E-10;
7,9385487326751E-11;
4,38124915481531E-10;
6,15767002565807E-10;
5,82276265114669E-10;
4,23077236129642E-10;
2,6674713255593E-10;
1,9173433893393E-10;
1,83524519637066E-10;
1,71063423335586E-10;
9,7742598213699E-11;
-2,34376962378895E-11;
-1,30473315229081E-10;
-1,77861421836944E-10;
-1,77436181000082E-10;
-1,91846397790905E-10;
-2,7529850015236E-10;
-4,13601387440806E-10;
-5,18348210454012E-10;
-4,84473360471094E-10;
-2,76150636628815E-10;
3,87975672397751E-11;
3,30277686382803E-10;
4,80797641879392E-10;
4,6154384322855E-10;
3,42942765310402E-10;
2,2422240464513E-10;
1,66347338646745E-10;
1,61480691081617E-10;
1,5196364886823E-10;
9,44821630788861E-11;
-1,33677541381667E-12;
-8,88989283093448E-11;
-1,29551971945445E-10;
-1,33018351284709E-10;
-1,48576803998637E-10;
-2,17204567027673E-10;
-3,30768415657232E-10;
-4,1996811731563E-10;
-3,998951188332E-10;
-2,41641610415432E-10;
4,09957906930343E-12;
2,35465799792511E-10;
3,59579551530451E-10;
3,54005558178464E-10;
2,7109588041212E-10;
1,84961335189152E-10;
1,42496853137951E-10;
1,39782548736354E-10;
1,33994013057966E-10;
9,10575668663704E-11;
1,62927940919315E-11;
-5,29651121586511E-11;
-8,7701095908746E-11;
-9,42590192579006E-11;
-1,07895027157036E-10;
-1,66159092693499E-10;
-2,58448575402447E-10;
-3,29513157664815E-10;
-3,21921482629861E-10;
-2,08628091021966E-10;
-2,46251857330423E-11;
1,52644916176784E-10;
2,54695889145876E-10;
2,60575552284127E-10;
2,05897434184658E-10;
1,47781389183459E-10;
1,20778685890098E-10;
1,20409977617778E-10;
1,17380590821479E-10;
8,59298135960979E-11;
3,03609701424387E-11;
-2,17911469977693E-11;
-5,12421081619282E-11;
-6,04765649986308E-11;
-7,50232400773697E-11;
-1,20837503918029E-10;
-1,92031371958966E-10;
-2,51193029549564E-10;
-2,53173721116962E-10;
-1,76983835536259E-10;
-4,77195923398814E-11;
8,1018447802794E-11;
1,62352514464448E-10;
1,77531162170836E-10;
1,48964064441709E-10;
1,15527373529111E-10;
1,0010268448366E-10;
1,02472832639504E-10;
1,01328946440986E-10;
8,0468853617466E-11;
4,27700849383998E-11;
3,75296140294006E-12;
-1,97975119125417E-11;
-2,96854832252322E-11;
-4,50907286473521E-11;
-8,12711924345564E-11;
-1,34581241155161E-10;
-1,81229753532032E-10;
-1,91030999249518E-10;
-1,49469816060339E-10;
-6,70796834813967E-11;
2,16834553956847E-11;
8,22470746233177E-11;
1,0541989876201E-10;
9,94314843859279E-11;
8,60460914201213E-11;
8,29641244567653E-11;
8,58586978563711E-11;
8,55075615643811E-11;
7,45543717738073E-11;
5,15740528828968E-11;
2,57538890166538E-11;
7,14772398894429E-12;
-4,1949064419644E-12;
-2,0024265007099E-11;
-4,72334227831908E-11;
-8,34601234510579E-11;
-1,19586959558092E-10;
-1,36589190363871E-10;
-1,22845654116014E-10;
-8,21518802626502E-11;
-2,98863997455973E-11;
1,48975483838961E-11;
4,41467397624484E-11;
5,74359968788614E-11;
6,12779410805084E-11;
6,49626588801374E-11;
6,95627579587022E-11;
7,26191556471981E-11;
6,96397830634822E-11;
5,84272635900621E-11;
4,35326929635568E-11;
2,92500606165177E-11;
1,58850998066589E-11;
1,79475485358783E-12;
-1,62660063477224E-11;
-4,11593035587755E-11;
-6,7809269325118E-11;
-8,82025567232084E-11;
-9,81809604740839E-11;
-9,309855231762E-11;
-7,19975624035217E-11;
-4,14563372081239E-11;
-9,00053532258656E-12;
1,93729978132468E-11;
3,93296338931297E-11;
5,05839817872192E-11;
5,58236727721698E-11;
5,96181247776549E-11;
6,36838535452293E-11;
6,32524469041978E-11;
5,67148346018643E-11;
4,68332760474776E-11;
3,37390209364121E-11;
1,9460902597257E-11;
7,36038123426779E-12;
-4,1117105267431E-12;
-2,13335028212149E-11;
-4,77973385305652E-11;
-7,78444045505473E-11;
-1,0056446096649E-10;
-1,06236084026138E-10;
-8,90261096507312E-11;
-5,22090819566634E-11;
-1,19417423775661E-11;
1,91063941317793E-11;
3,68831242354328E-11;
4,30108849809167E-11;
4,83098111666962E-11;
5,71383690882861E-11;
6,57581413469904E-11;
6,8804938124761E-11;
6,11117520948045E-11;
4,74572171885715E-11;
3,52848866372822E-11;
2,88729941042502E-11;
2,73750106797908E-11;
1,70999454224426E-11;
-1,30932645535078E-11;
-5,86305104468038E-11;
-1,05415228152264E-10;
-1,33114181993244E-10;
-1,26452298989325E-10;
-8,8368956975405E-11;
-3,80576441296237E-11;
2,62140187526635E-12;
2,43678669795932E-11;
3,24151191642169E-11;
3,91215683699882E-11;
5,21456140589758E-11;
6,77726098737228E-11;
7,71270799913919E-11;
7,31798449632641E-11;
5,84459607292802E-11;
4,6158971853248E-11;
4,6043734964413E-11;
5,24966488381759E-11;
4,86981559943978E-11;
1,81076937231179E-11;
-4,19631751639541E-11;
-1,10159919880517E-10;
-1,54414593874144E-10;
-1,56315421142459E-10;
-1,17518780278597E-10;
-5,88193480473549E-11;
-9,94515773246424E-12;
1,51619877884798E-11;
2,32395599586146E-11;
2,95088050073372E-11;
4,55311853741315E-11;
6,80769384664371E-11;
8,34305674909122E-11;
8,13719586557981E-11;
6,70889145592776E-11;
5,59329527978911E-11;
5,87708988121398E-11;
7,29205112340111E-11;
7,50873029528667E-11;
4,20465140346962E-11;
-2,65495082380389E-11;
-1,09779839573481E-10;
-1,6955805739675E-10;
-1,78435815798083E-10;
-1,39457337266433E-10;
-7,64530166698073E-11;
-2,22349859351844E-11;
5,75633236384394E-12;
1,41956230119642E-11;
2,13604834473005E-11;
4,0144378314188E-11;
6,6250604970972E-11;
8,63460307289355E-11;
8,73039025747967E-11;
7,23803853981668E-11;
6,26745385365277E-11;
7,10328378441435E-11;
9,03849690563604E-11;
9,56165486439117E-11;
6,20223430863369E-11;
-1,36230997256331E-11;
-1,08528401683475E-10;
-1,79645991086295E-10;
-1,95103417249548E-10;
-1,56172794153531E-10;
-8,97124159804758E-11;
-3,17598942541146E-11;
-1,6171113027562E-12;
6,63789466191905E-12;
1,34979689791222E-11;
3,50568618476248E-11;
6,51795363349808E-11;
8,81918483972735E-11;
9,10170093488754E-11;
7,60204079405916E-11;
6,75026672253977E-11;
7,85440726403052E-11;
1,01263388559347E-10;
1,12150093507818E-10;
7,91699071786333E-11;
-3,27271629980755E-12;
-1,05869388106841E-10;
-1,85074422218692E-10;
-2,06647220100543E-10;
-1,67774871955129E-10;
-9,88736826963948E-11;
-3,86877456934009E-11;
-7,40726361208112E-12;
-5,17826635907284E-14;
6,37358233102071E-12;
2,96229064928075E-11;
6,37035220278397E-11;
8,88441357863848E-11;
9,20361797742028E-11;
7,88640823448116E-11;
7,04508065638202E-11;
8,35773605381391E-11;
1,11402486216067E-10;
1,24407163557512E-10;
9,1133419389043E-11;
6,55383375416042E-12;
-1,01928104016209E-10;
-1,8799004546723E-10;
-2,13352159030909E-10;
-1,75632690434101E-10;
-1,05863411896935E-10;
-4,43083093814898E-11;
-1,27008693211261E-11;
-5,52766824450265E-12;
1,05145945991212E-12;
2,52420258933789E-11;
5,98374582922698E-11;
8,6977312445354E-11;
9,23453002589458E-11;
7,87694785248218E-11;
7,18823312403857E-11;
8,77105049953069E-11;
1,16798847627677E-10;
1,31874379499535E-10;
1,00055851599102E-10;
1,44061377801382E-11;
-9,63037937101486E-11;
-1,85712191823268E-10;
-2,14297241718477E-10;
-1,78124251120654E-10;
-1,09418624625532E-10;
-4,83499975885035E-11;
-1,7566508170811E-11;
-9,87392615202801E-12;
-1,55357132788258E-12;
2,18235089320293E-11;
5,70076253234283E-11;
8,51693779228345E-11;
9,03253692739267E-11;
7,90753372358429E-11;
7,27991390678663E-11;
8,91182120697336E-11;
1,20602919629379E-10;
1,36607017475482E-10;
1,06466851835167E-10;
2,1096429563163E-11;
-9,12473858241746E-11;
-1,82066775178248E-10;
-2,13009198409564E-10;
-1,79442178649814E-10;
-1,12119179392117E-10;
-5,13424542532327E-11;
-2,10411605719704E-11;
-1,40273718612215E-11;
-6,53341774023924E-12;
1,71378712982981E-11;
5,24800975342921E-11;
8,07955207006564E-11;
8,84162833556464E-11;
7,81231360101827E-11;
7,15308045748615E-11;
8,81243369016991E-11;
1,20935880617323E-10;
1,39440769444881E-10;
1,10798510897018E-10;
2,68049274700268E-11;
-8,58203282036157E-11;
-1,77255111325598E-10;
-2,08585166743342E-10;
-1,77917389799753E-10;
-1,12445981596403E-10;
-5,26705581515831E-11;
-2,30732840070119E-11;
-1,57073823991997E-11;
-9,21209681673233E-12;
1,32357458395551E-11;
4,92861401151954E-11;
7,77949988101714E-11;
8,43697205116407E-11;
7,55399135798449E-11;
7,08865545158675E-11;
8,71420206203761E-11;
1,19592765255448E-10;
1,39380378105655E-10;
1,12383392423712E-10;
3,01147481941981E-11;
-7,92652753679646E-11;
-1,69793649934706E-10;
-2,02001217264058E-10;
-1,7199098145887E-10;
-1,10629115853421E-10;
-5,43355350911443E-11;
-2,53594803718137E-11;
-1,83797279321286E-11;
-1,17428559895606E-11;
9,97253840619066E-12;
4,54522198652287E-11;
7,42803056169491E-11;
8,10621830968651E-11;
7,2480877993152E-11;
6,74270498721437E-11;
8,51738280352515E-11;
1,19100470780752E-10;
1,3720153657737E-10;
1,12291578096893E-10;
3,42165220285619E-11;
-7,36625491236343E-11;
-1,61522443544384E-10;
-1,93535998608585E-10;
-1,66946396224845E-10;
-1,07083971234525E-10;
-5,24953949389645E-11;
-2,62540939582554E-11;
-2,04375233743571E-11;
-1,45065513079841E-11;
7,24314905845006E-12;
4,09727636225315E-11;
6,75321632618749E-11;
7,5977668125565E-11;
6,86588746235624E-11;
6,50195174179226E-11;
8,27820529549784E-11;
1,14279790709899E-10;
1,33603328845104E-10;
1,09925219644432E-10;
3,51077417739272E-11;
-6,55213230381817E-11;
-1,50661710010753E-10;
-1,83288804748732E-10;
-1,58637404429031E-10;
-1,0317461490031E-10;
-5,18644903990169E-11;
-2,69153276449432E-11;
-2,14461362231012E-11;
-1,59860976554253E-11;
4,1613661750499E-12;
3,70954604652177E-11;
6,36226980585439E-11;
7,15449398092615E-11;
6,47227271244604E-11;
6,13407194803455E-11;
7,88845478304464E-11;
1,10751009620885E-10;
1,28857741895285E-10;
1,06658004433946E-10;
3,71796486168718E-11;
-5,97614943472631E-11;
-1,40810324291208E-10;
-1,72083211896841E-10;
-1,51100653435012E-10;
-9,89752790760908E-11;
-5,06287763923733E-11;
-2,68445125189499E-11;
-2,21189617022384E-11;
-1,6825989778042E-11;
3,42530027963463E-12;
3,2838115096856E-11;
5,80282680952061E-11;
6,63730031425489E-11;
5,94661457476386E-11;
5,72841357736904E-11;
7,41972041526643E-11;
1,03978154665396E-10;
1,22574439185644E-10;
1,03675996447244E-10;
3,68269133372207E-11;
-5,46058646086439E-11;
-1,29796192004519E-10;
-1,60987872805258E-10;
-1,41427713175274E-10;
-9,26742117288891E-11;
-4,86352245313634E-11;
-2,64863628686618E-11;
-2,1833735909354E-11;
-1,7658095998453E-11;
1,13160490353324E-12;
3,00801918786381E-11;
5,2843927056374E-11;
6,05540667419449E-11;
5,5321560250205E-11;
5,29739849548136E-11;
6,96669831647787E-11;
9,8966851499635E-11;
1,16390869348493E-10;
9,83258304927409E-11;
3,72080940038631E-11;
-4,78389857293568E-11;
-1,19868910222865E-10;
-1,48822406883868E-10;
-1,3049609470803E-10;
-8,67373927174544E-11;
-4,61814500931698E-11;
-2,56586181901161E-11;
-2,16787897529862E-11;
-1,75237564948282E-11;
-1,17700669403307E-12;
2,60048431483153E-11;
4,92327196051195E-11;
5,54061958469966E-11;
4,98740635473339E-11;
4,89709109658419E-11;
6,4471300806072E-11;
9,18898137395399E-11;
1,09046159806475E-10;
9,31092288875945E-11;
3,73933068765295E-11;
-4,14052289891751E-11;
-1,08484238573019E-10;
-1,36132898231283E-10;
-1,2038052569045E-10;
-7,97988226673536E-11;
-4,34228414533433E-11;
-2,55812285976705E-11;
-2,17494049791442E-11;
-1,88421129073184E-11;
-3,23750057668654E-12;
2,23796522798223E-11;
4,32484527574513E-11;
5,01532998117087E-11;
4,62047812401389E-11;
4,56615049516223E-11;
5,96961668451626E-11;
8,45277252650427E-11;
1,00946576476534E-10;
8,64196608665008E-11;
3,47553591963638E-11;
-3,63832025719521E-11;
-9,65402801003722E-11;
-1,23018494786422E-10;
-1,10527690440911E-10;
-7,38136311318042E-11;
-4,03377643603905E-11;
-2,39395979802264E-11;
-2,01408889070401E-11;
-1,70966887173747E-11;
-3,08972246159419E-12;
1,92986293377626E-11;
3,86215742082618E-11;
4,55752382744111E-11;
4,12672307317583E-11;
4,0593545745432E-11;
5,38578795244076E-11;
7,73993070604956E-11;
9,37344540564782E-11;
8,10003167766907E-11;
3,36805101672466E-11;
-3,12312141699246E-11;
-8,71715892388272E-11;
-1,11921796450654E-10;
-9,94780486969027E-11;
-6,79789861294758E-11;
-3,87250997719743E-11;
-2,25335730839104E-11;
-1,961802552608E-11;
-1,68784375608893E-11;
-4,32641875952605E-12;
1,6512109248125E-11;
3,44145108237052E-11;
3,95948894170377E-11;
3,67585563168291E-11;
3,74985046304125E-11;
4,97347273498997E-11;
7,11838392951264E-11;
8,60884559880437E-11;
7,48276398756148E-11;
3,2747115529002E-11;
-2,55897449458324E-11;
-7,74389656588817E-11;
-1,00779251164374E-10;
-8,9641336215115E-11;
-6,11703240559774E-11;
-3,47992812385066E-11;
-2,12456726708077E-11;
-1,94213852391149E-11;
-1,67315683557511E-11;
-5,44830567660016E-12;
1,31523174058311E-11;
2,97372884206877E-11;
3,50721223546105E-11;
3,26434943989911E-11;
3,32737793413104E-11;
4,42590981765652E-11;
6,3807193701276E-11;
7,81320576111798E-11;
6,85273043816389E-11;
3,06688864613883E-11;
-2,16400378397981E-11;
-6,73304119377542E-11;
-8,84065343915584E-11;
-8,03860619877932E-11;
-5,53132844416196E-11;
-3,19276949012024E-11;
-2,01961856029335E-11;
-1,80168414744302E-11;
-1,58112545241135E-11;
-5,26816472003901E-12;
1,15034030923267E-11;
2,54675649731206E-11;
3,05178410053037E-11;
2,95098814580184E-11;
2,96811412899485E-11;
3,88485714690123E-11;
5,77167015249115E-11;
7,02385933892955E-11;
6,10761408283171E-11;
2,86725643504195E-11;
-1,84637067256299E-11;
-5,98192542277989E-11;
-7,73352334337938E-11;
-7,06729950738257E-11;
-4,96637971426547E-11;
-2,86807579729097E-11;
-1,8885378774965E-11;
-1,69958954410389E-11;
-1,41530950239486E-11;
-5,45233252830781E-12;
9,0502489126114E-12;
2,21019205624981E-11;
2,68729944586843E-11;
2,52971389494018E-11;
2,62907060697956E-11;
3,57250718029675E-11;
5,12004452529872E-11;
6,23729646498459E-11;
5,52778311142221E-11;
2,69614335091211E-11;
-1,37927172084964E-11;
-5,09668057740005E-11;
-6,74798287895342E-11;
-6,17061942247417E-11;
-4,35080441973883E-11;
-2,51642407709812E-11;
-1,6784740800003E-11;
-1,58289239271953E-11;
-1,38646667963111E-11;
-5,58006809220284E-12;
7,68426168519891E-12;
1,81497212073023E-11;
2,27646152970201E-11;
2,22445212640336E-11;
2,29230113671123E-11;
3,1560337936381E-11;
4,43054879738606E-11;
5,39701511812594E-11;
4,97832347927017E-11;
2,56208561070156E-11;
-1,10489738647247E-11;
-4,34792753970299E-11;
-5,81348847044133E-11;
-5,39125575833411E-11;
-3,77094988481665E-11;
-2,29451613339606E-11;
-1,61986443200167E-11;
-1,48427881758808E-11;
-1,2740353034783E-11;
-4,87177565160119E-12;
5,31646161120515E-12;
1,48157916071436E-11;
1,91186422003698E-11;
1,81364316810545E-11;
1,93645035167369E-11;
2,61536352782988E-11;
3,84530119866507E-11;
4,79531770043212E-11;
4,37164242760648E-11;
2,29461413074008E-11;
-8,00174429743507E-12;
-3,55956314320693E-11;
-4,95250833658272E-11;
-4,63472340207429E-11;
-3,23069807601763E-11;
-1,96867966129854E-11;
-1,33302055346523E-11;
-1,24892269499529E-11;
-1,18747162608214E-11;
-5,46673215170112E-12;
4,26472315541266E-12;
1,22984078341638E-11;
1,55593498178367E-11;
1,52570027773598E-11;
1,65658898536651E-11;
2,31249810274591E-11;
3,41700035044596E-11;
4,19601110575826E-11;
3,80842253383344E-11;
2,07896564262173E-11;
-5,2209472376879E-12;
-2,94839255056527E-11;
-4,13760329612431E-11;
-3,89437958283717E-11;
-2,80283790494327E-11;
-1,6969126560834E-11;
-1,19645082850749E-11;
-1,13265367613487E-11;
-1,01910795304568E-11;
-5,78806171215335E-12;
1,92860885341683E-12;
9,7810292808405E-12;
1,36491001006E-11;
1,23381331674212E-11;
1,27664315444731E-11;
1,96861965597307E-11;
2,90435067127951E-11;
3,6059812107298E-11;
3,37871848180059E-11;
1,83735590611398E-11;
0,00933343404289201;
0,0226297298025553;
0,016372737242097;
0,00943309614434108;
0,0121693917626835;
0,00702616731681448;
0,00563481711878164;
0,00458271004252501;
0,000840500080048038;
0,00103239236579134;
-0,00119043949427879;
-0,00199195265040968;
-0,00280713692563788;
-0,00455368130967921;
-0,00488732498833039;
-0,00585590069264061;
-0,00594121724913744;
-0,00618248829233832;
-0,00699357663875841;
-0,00792070353034285;
-0,00934888799573516;
-0,0102428887295904;
-0,0105184994219927;
-0,010108523169634;
-0,00920766468623205;
-0,00843029681487532;
-0,007830434178132;
-0,00745747150667966;
-0,007048053287916;
-0,00641867707511246;
-0,00567545363337294;
-0,00495848726676543;
-0,00445308140601566;
-0,00409076740340094;
-0,00366382586002118;
-0,00302656742544752;
-0,00222823252410733;
-0,00157282904797608;
-0,00136107643563968;
-0,00166524555904415;
-0,00222572542107882;
-0,00258706178620444;
-0,00240676234264929;
-0,00165718473690412;
-0,000624734031102361;
0,000316669686624912;
0,000963663514716745;
0,00137586886013204;
0,00176513173984207;
0,00227846192611595;
0,0028737118358754;
0,00337820905606217;
0,00366494228054835;
0,00378442559758447;
0,00392474764356469;
0,00423344807303791;
0,00465410316411361;
0,00492912950610748;
0,00478539613595453;
0,00416205592122495;
0,00329839411728036;
0,00260120492694017;
0,00238404674288536;
0,00267133445501166;
0,00320917061744483;
0,00366539554913129;
0,00385876826003335;
0,00384594464037643;
0,00381730501634141;
0,00390618886892467;
0,00407638930559957;
0,00417461995908495;
0,0040891481668217;
0,00386593851542709;
0,00367395077959564;
0,00364551936443774;
0,00373088377416501;
0,00370125627529405;
0,00331394895543828;
0,00251555485080337;
0,00151956437597111;
0,000688088776340913;
0,000299921495596444;
0,000376496323111328;
0,000692034999805107;
0,000951432374817096;
0,000993755264451306;
0,000869183483671438;
0,000746304643434953;
0,000742935831411983;
0,000826535915616943;
0,000860914881940672;
0,000746775456449955;
0,000524376749625511;
0,000342641818402625;
0,000317918810570135;
0,000405552511377234;
0,00040286041730195;
9,51196793414944E-5;
-0,000565180939351135;
-0,010723616484524;
-0,0246910037859429;
-0,0187063544949346;
-0,0116223593027446;
-0,0139972387434507;
-0,00853592290358658;
-0,00701192127772487;
-0,00596902286631052;
-0,00223033990181236;
-0,00231727179879095;
8,97661318475865E-5;
0,00103463609640588;
0,0018647429159521;
0,00353260259964626;
0,00382392664660803;
0,00488786327346857;
0,00516656254971384;
0,0055214562089999;
0,00617835280696784;
0,00664177265985463;
0,00746064875042226;
0,00787759597610624;
0,00802158625181432;
0,00784053011984647;
0,00735462448143887;
0,00695105592831665;
0,00655991790024904;
0,00626843174059274;
0,00594145075443614;
0,00548465811914079;
0,00497855075365268;
0,00445879659054473;
0,00403463682723389;
0,00366783364147735;
0,00326335429055783;
0,00276323493391796;
0,00218226985637735;
0,00167054996872535;
0,00136622432130186;
0,00130576064562869;
0,00137147127449276;
0,00134804346921189;
0,00107699073070193;
0,000543583797991683;
-0,000116334505791377;
-0,000724583164200974;
-0,0011843470443897;
-0,0015224493651461;
-0,00184024513966318;
-0,00220794459979766;
-0,0026053181745513;
-0,00294924153871602;
-0,00317776862457481;
-0,00331523397871502;
-0,00345292230499708;
-0,00366309226862045;
-0,00391872199313137;
-0,00409377839726763;
-0,00405387358495;
-0,00376838329472862;
-0,00335502044188852;
-0,00301538524998924;
-0,00290602835608374;
-0,0030404064472156;
-0,00329290963414724;
-0,00349792677409551;
-0,00356466125290756;
-0,00352164921336782;
-0,00346521642420363;
-0,00346340007004158;
-0,0034985299816741;
-0,00349315078476404;
-0,00339050036669244;
-0,00321419526953166;
-0,00305115661594791;
-0,00297002122042922;
-0,00294586743924778;
-0,00286092459184158;
-0,00258939495935185;
-0,00210309154834745;
-0,00151283612339083;
-0,0010078806014944;
-0,000734996235439262;
-0,00070657081218682;
-0,000804732263467226;
-0,000874202721836148;
-0,000829829989531143;
-0,000698122805545031;
-0,00056885897106814;
-0,000505246887294234;
-0,00049030744478205;
-0,00045122501109567;
-0,000334548731756394;
-0,000161839333428814;
-1,36443038822838E-5;
4,6654412464568E-5;
4,29415638484042E-5;
8,5569475957346E-5;
0,000292250953943324;
0,000689730467540663;
0,0011754131274239;
0,00157388876457923;
0,00174942934139342;
0,00169131748397503;
0,00150982607203238;
0,00134983223743412;
0,0012909728376688;
0,00130920953641063;
0,00132185062949212;
0,00127090372121346;
0,00117271456600796;
0,00109530365063738;
0,00108867138718291;
0,00113332918060846;
0,00115522383305284;
0,00109623070121101;
0,000978922466768525;
0,000905712281880513;
0,000985677448548525;
0,00124377308878935;
0,00158554303715684;
0,00184943191083964;
0,00191061459356544;
0,00175959519491034;
0,00149834145529862;
0,00126056787007896;
0,00111977160093829;
0,00105394594069793;
0,000987128152598918;
0,000866119298386854;
0,000706078698862904;
0,000569606167371712;
0,000502666781968324;
0,000487363043062185;
0,000455721294373888;
0,000354429509651237;
0,000204210371079087;
9,89339094179255E-5;
0,000138466948704291;
0,00034551193717755;
0,00063340363228535;
0,000854135520245124;
0,000893432905906493;
0,000742587393522148;
0,000494783545307695;
0,000272121620840724;
0,000141579696248801;
8,28694868770862E-5;
2,64722427151421E-5;
-7,63033827830394E-5;
-0,000211769235579107;
-0,000323008909956071;
-0,000368321709985317;
-0,000364219267306725;
-0,000372793468509742;
-0,000442732980306191;
-0,000555323123753282;
-0,000625342768969663;
-0,000562198640340429;
-0,000345503528952878;
-5,42358116048534E-5;
0,000177000847581665;
0,0002443452994422;
0,000139815379612533;
-5,21468983016432E-5;
-0,000220953271522445;
-0,000306058212475088;
-0,000326011717062113;
-0,000343916848375504;
-0,000403962759131096;
-0,000493856152521132;
-0,000562215377167504;
-0,000571455612414519;
-0,000536624099467369;
-0,000513919679822891;
-0,000547380101657835;
-0,000620159086930593;
-0,000655416115263452;
-0,000571530065842799;
-0,000350239366889857;
-6,28363624218026E-5;
0,000169348871281338;
0,000252779568024549;
0,000180302405770759;
2,79291310733021E-5;
-0,000104873117279863;
-0,000163699951968385;
-0,000165257793957479;
-0,00016624819613585;
-0,000206336750711314;
-0,00027446138264288;
-0,000324502693130116;
-0,000322751232662683;
-0,000282699346628688;
-0,000254692682452212;
-0,000278135971674908;
-0,000337890844038197;
-0,000365144791057883;
-0,00028686956362114;
-8,67513120327839E-5;
0,00017147270218178;
0,000379420182915282;
0,000453623047390762;
0,000387792743711738;
0,000249849506924279;
0,000128576258431195;
7,25119573403698E-5;
6,67932651039785E-5;
6,09497576326354E-5;
1,97224781835912E-5;
-4,6975649624714E-5;
-9,8059202854076E-5;
-0,000103515487611883;
-7,53095267903726E-5;
-5,81340163448886E-5;
-8,69258318673472E-5;
-0,000148179533289127;
-0,00018078447715147;
-0,000119949457388707;
4,87826869137944E-5;
0,000268925666337033;
0,000444501451464296;
0,000501669418574291;
0,000434943453734815;
0,000304474207558074;
0,000188803013610934;
0,000130842822610824;
0,0001174722251506;
0,000104147790628668;
5,97871283213582E-5;
-6,82634399041003E-6;
-5,9440343612256E-5;
-7,15963179272633E-5;
-5,38344786121904E-5;
-4,5497844523058E-5;
-7,73087056582102E-5;
-0,000137355365472861;
-0,000171888975278172;
-0,000123980008897909;
1,90364521856343E-5;
0,000207530677876884;
0,00035726362166608;
0,000403486639487943;
0,000341428872284657;
0,000223832627955779;
0,000119498073411026;
6,59781540953947E-5;
5,17705303565978E-5;
3,79085630478157E-5;
-2,77342429909019E-6;
-6,25929187106122E-5;
-0,000109894621454637;
-0,000121603018389633;
-0,000106937322863148;
-0,00010021708581144;
-0,000128215601757706;
-0,000180549771206658;
-0,000210430685358029;
-0,000168350689354686;
-4,33440265630524E-5;
0,000121401743937446;
0,0002526768274606;
0,000294263649690542;
0,00024204342281847;
0,000141780422783367;
5,31144194396971E-5;
8,55973109442217E-6;
-1,87151020445713E-6;
-1,192061668398E-5;
-4,50877497935708E-5;
-9,47281494533158E-5;
-0,000133496094446102;
-0,000141483885231363;
-0,000126672698465371;
-0,000118681204522201;
-0,000140589994434465;
-0,000183445050665247;
-0,000206958186669489;
-0,000168546846719463;
-5,88213458626493E-5;
8,50531700264505E-5;
0,000200162835013331;
0,000238248491518819;
0,00019580088562016;
0,000112086188990962;
3,82199112843808E-5;
2,03589125003924E-6;
-5,03339410782595E-6;
-1,18590254790909E-5;
-3,85248961381085E-5;
-7,93429354730967E-5;
-0,000110961934115177;
-0,000116404948566031;
-0,000102492319470155;
-9,44703988677209E-5;
-0,000111986233118308;
-0,000147403045500277;
-0,000166448215709997;
-0,000132942790857292;
-3,89428687085934E-5;
8,39742174015782E-5;
0,000182431376675232;
0,00021553676442447;
0,000180349065404987;
0,000110133946240977;
4,81391723762145E-5;
1,78853153361553E-5;
1,21248603361625E-5;
6,48783188669814E-6;
-1,59532409311207E-5;
-5,03875624415481E-5;
-7,71398466163083E-5;
-8,19266266140326E-5;
-7,04927879239751E-5;
-6,4054846669462E-5;
-7,90972880911879E-5;
-0,000109192604663439;
-0,000125595879102587;
-9,80084414861483E-5;
-1,98084071792158E-5;
8,25638705006902E-5;
0,000164488754548109;
0,000191834757061806;
0,000162179944059752;
0,000103287019602943;
5,11931613451131E-5;
2,5468905467882E-5;
2,00770583544572E-5;
1,4768243317496E-5;
-4,49794672671548E-6;
-3,37149185399731E-5;
-5,656956000673E-5;
-6,12404146496532E-5;
-5,24899416922456E-5;
-4,78554937004883E-5;
-6,09369611774531E-5;
-8,6413457193118E-5;
-0,000100584658192905;
-7,8514381812205E-5;
-1,47852639917411E-5;
6,88427922788023E-5;
0,000135724340556044;
0,000157878775950884;
0,000133352144100188;
8,48971128940085E-5;
4,19914167514765E-5;
2,06134836443757E-5;
1,58240564039078E-5;
1,11135360490638E-5;
-4,94097467904535E-6;
-2,90663223055315E-5;
-4,80022119354946E-5;
-5,21616278957893E-5;
-4,54182297282449E-5;
-4,19781848029777E-5;
-5,28320765877914E-5;
-7,36643608695162E-5;
-8,53425803762886E-5;
-6,77827067264641E-5;
-1,66566998254051E-5;
5,05058610700774E-5;
0,000104262948883087;
0,000122186401168619;
0,000102741423636543;
6,41567210189633E-5;
2,99913892426082E-5;
1,29840950444886E-5;
9,1844043941365E-6;
5,45067570973539E-6;
-7,28471145091563E-6;
-2,64108252109594E-5;
-4,14156922923487E-5;
-4,47225493630226E-5;
-3,94060767762488E-5;
-3,66791603760712E-5;
-4,51895284838035E-5;
-6,152592471154E-5;
-7,06569850023593E-5;
-5,68519878560618E-5;
-1,67586458411064E-5;
3,58873217338766E-5;
7,80996848617995E-5;
9,242347698456E-5;
7,76982374579995E-5;
4,81030041998314E-5;
2,19019794552534E-5;
8,93740134949483E-6;
6,14346818316312E-6;
3,38802570914303E-6;
-6,2933019687584E-6;
-2,08810981347675E-5;
-3,23156662346492E-5;
-3,48124916427162E-5;
-3,07328112966464E-5;
-2,86211439083232E-5;
-3,50380503820991E-5;
-4,73777024444031E-5;
-5,42587768669817E-5;
-4,3822526178589E-5;
-1,35825691650063E-5;
2,60996742574595E-5;
5,79753822181652E-5;
6,90069294317424E-5;
5,83662128409207E-5;
3,66390193480854E-5;
1,73939552453015E-5;
7,90649598423024E-6;
5,89574401224608E-6;
3,89571587242768E-6;
-3,19581321867003E-6;
-1,388293634446E-5;
-2,22748067216162E-5;
-2,41706995685826E-5;
-2,13003352301709E-5;
-1,98504592662761E-5;
-2,45386716965266E-5;
-3,34701974328764E-5;
-3,84835538288762E-5;
-3,1133362444868E-5;
-9,69508414818815E-6;
1,84437713120125E-5;
4,10872017944799E-5;
4,90856005352869E-5;
4,19031860486144E-5;
2,69663453713483E-5;
1,3717336456448E-5;
7,17750206418361E-6;
5,75551297898834E-6;
4,3251439051912E-6;
-5,82855580078169E-7;
-7,93201302823777E-6;
-1,37321670971645E-5;
-1,51694982350496E-5;
-1,34204466727186E-5;
-1,26085490288033E-5;
-1,58399585920195E-5;
-2,18421079957817E-5;
-2,52671511450514E-5;
-2,06503799021825E-5;
-6,93156802572879E-6;
1,10969618475239E-5;
2,56454623786526E-5;
3,09527275751038E-5;
2,67373121289015E-5;
1,76748053541723E-5;
9,61695774667024E-6;
5,62486394313264E-6;
4,7065735587311E-6;
3,76817195972349E-6;
7,5761328930868E-7;
-3,68806795352907E-6;
-7,22771690633069E-6;
-8,24984788275538E-6;
-7,45140568583251E-6;
-7,16938585912323E-6;
-9,11578824937321E-6;
-1,25570390395184E-5;
-1,45784040535928E-5;
-1,22907656527236E-5;
-5,20720134334253E-6;
4,12039551980214E-6;
1,170346601131E-5;
1,47019615817364E-5;
1,30533401751047E-5;
9,0642400400245E-6;
5,49636458683355E-6;
3,72486928938549E-6;
3,2729530035473E-6;
2,79223239033937E-6;
1,44676911046114E-6;
-4,69801131907353E-7;
-2,0307698419769E-6;
-2,65507308721295E-6;
-2,6288252957568E-6;
-2,75985180499127E-6;
-3,56796793137311E-6;
-4,78104810530017E-6;
-5,56366243835372E-6;
-5,22588719623002E-6;
-3,76958791133116E-6;
-1,83553034950072E-6;
-1,72444911638765E-7;
8,67569654262106E-7;
1,40823287796693E-6;
1,7413095931565E-6;
2,00222018702604E-6;
2,13429382226031E-6;
2,09803568388222E-6;
2,02540213748682E-6;
2,11076373957312E-6;
2,35637369629905E-6;
2,49142252852808E-6;
2,22548208156959E-6;
1,61995776948425E-6;
1,15874981295964E-6;
1,32804367719645E-6;
2,01022440149678E-6;
2,28777763500324E-6;
9,98410391269497E-7;
-2,27063459873049E-6;
-6,55220858879946E-6;
-9,87188846942194E-6;
-1,049233392184E-5;
-8,13347082599719E-6;
-4,19276496799858E-6;
-7,34789947285676E-7;
9,85456327698181E-7;
1,29435403809797E-6;
1,56086035277942E-6;
2,83928495523763E-6;
4,88830316185282E-6;
6,43855238256124E-6;
6,47380291000372E-6;
5,34499318963128E-6;
4,61033161574733E-6;
5,59163021905659E-6;
7,84722875166451E-6;
9,00523305258165E-6;
6,36839963329716E-6;
-8,15756079925513E-7;
-1,02492367991449E-5;
-1,7706349333562E-5;
-1,9724140007565E-5;
-1,58934874467814E-5;
-9,0040735957914E-6;
-2,93181293683998E-6;
8,27574038388015E-8;
6,66795145536338E-7;
1,2046563597815E-6;
3,45551221015344E-6;
6,97797756591941E-6;
9,68511117592133E-6;
9,96730932952358E-6;
8,41229464557393E-6;
7,45502255966605E-6;
9,09818555886645E-6;
1,26357147974058E-5;
1,45122738167445E-5;
1,07834414198251E-5;
4,21490213150741E-7;
-1,3195929476083E-5;
-2,4019476950561E-5;
-2,71901641222681E-5;
-2,21946192298238E-5;
-1,294604075808E-5;
-4,78018901988722E-6;
-7,30776200251495E-7;
7,12777614251408E-8;
8,25502017918988E-7;
3,8558835026488E-6;
8,56026249983688E-6;
1,21974031940432E-5;
1,26837539069064E-5;
1,07962272672439E-5;
9,66843574705505E-6;
1,1844522132058E-5;
1,64077221444793E-5;
1,88631650992918E-5;
1,42781885544485E-5;
1,40781302427031E-6;
-1,55165339949011E-5;
-2,90062311915599E-5;
-3,31023992184664E-5;
-2,72097720062091E-5;
-1,61239470412955E-5;
-6,32519457865084E-6;
-1,46790533323643E-6;
-4,93826861343565E-7;
4,32354602468508E-7;
4,07401679406906E-6;
9,70341760253132E-6;
1,40711786994892E-5;
1,47266385960071E-5;
1,25933297375148E-5;
1,13443360913265E-5;
1,39406965365672E-5;
1,93029377196931E-5;
2,22144217294187E-5;
1,69853593229365E-5;
2,20526579713306E-6;
-1,72420414020952E-5;
-3,27712273840483E-5;
-3,75873968477013E-5;
-3,10333636477433E-5;
-1,85725763243938E-5;
-7,54930527636261E-6;
-2,08520907337391E-6;
-9,79719024573597E-7;
7,89205821579502E-8;
4,18213397275423E-6;
1,05078672159249E-5;
1,54282999690495E-5;
1,6220437500705E-5;
1,39167159481729E-5;
1,25886418457685E-5;
1,55038343153784E-5;
2,14626307202739E-5;
2,47193852359276E-5;
1,90316558648623E-5;
2,86925714977714E-6;
0,00931502449327195;
0,0225943044634761;
0,0163319569689391;
0,00939932319468366;
0,0121490462898504;
0,00701770851164703;
0,00563225047135043;
0,00458134268912819;
0,000840287095978887;
0,00103661034052614;
-0,00117940280667033;
-0,0019756016913108;
-0,00278988815830133;
-0,00453884297936234;
-0,00487385923271113;
-0,00583929225375908;
-0,00591823341106753;
-0,00615600195352497;
-0,00697307655631043;
-0,00791728818142019;
-0,00936797892885393;
-0,0102799988394447;
-0,010561344661041;
-0,0101440894379758;
-0,00922919343213952;
-0,00843939122966062;
-0,00783336517633253;
-0,00745914321181227;
-0,00704850795110123;
-0,0064144906768009;
-0,00566413377084151;
-0,00494159881324685;
-0,00443521778531556;
-0,00407536682639843;
-0,0036498134547216;
-0,00300926523072906;
-0,00220429559412378;
-0,00154523131221386;
-0,0013396256007451;
-0,00166140372497021;
-0,00224509402237021;
-0,00262503370781623;
-0,002450710978339;
-0,00169373834770689;
-0,000646947118382741;
0,000307166618868329;
0,000960460140867011;
0,00137395580700656;
0,00176447002825819;
0,00228255005781508;
0,00288509459797157;
0,00339529440387357;
0,00368305548885348;
0,00380006939012303;
0,003939012296213;
0,00425108040542514;
0,0046784943396257;
0,00495726446677896;
0,00480734151884704;
0,00416620923077708;
0,00327908171014502;
0,00256306524979645;
0,00233980919437753;
0,00263447694727128;
0,00318669600049462;
0,00365567562427812;
0,00385536988631491;
0,00384384340736791;
0,00381646563171033;
0,00391012212261941;
0,0040876477936061;
0,00419161262948486;
0,0041072002044673;
0,00388155377819284;
0,00368821663094399;
0,00366317189389246;
0,00375530437156107;
0,00372943944542277;
0,0033359993353335;
0,0025199185713664;
0,00150058695849778;
0,000650365500492392;
0,000256082445249182;
0,000339913505822061;
0,000669659174880831;
0,000941662260040281;
0,000990232721799075;
0,000866944730044988;
0,000745318319385388;
0,00074667271505212;
0,000837518903759173;
0,000877577404402344;
0,000764510549939297;
0,000539739768764234;
0,000356701915603382;
0,000335334840529279;
0,000429649298582797;
0,000430684282360957;
0,000116949737375919;
-0,000560692268946102;
-0,0107420280986097;
-0,0247278251222373;
-0,0187492224366853;
-0,0116581837726265;
-0,0140192120517523;
-0,0085455993433518;
-0,00701550328929512;
-0,00597135119890665;
-0,0022314418692019;
-0,00231375988599597;
0,000100354088695951;
0,00105077725589347;
0,00188195402826219;
0,00354753193194097;
0,00383761260019398;
0,00490483289070288;
0,00519004569124101;
0,00554858560101462;
0,006199693809302;
0,00664631312191065;
0,00744298815606282;
0,00784207036122528;
0,00798015539367874;
0,00780585887627516;
0,00733330327785884;
0,00694159345839538;
0,00655633262841795;
0,00626605636712681;
0,00594026202082618;
0,00548792523814417;
0,00498864999921916;
0,00447426427753936;
0,00405115837040623;
0,00368218355321834;
0,00327653017900645;
0,00277958823270877;
0,00220490465055629;
0,0016967130707939;
0,00138685680424717;
0,00131028918838732;
0,00135470423222343;
0,00131412308962855;
0,00103736523573919;
0,000510379016710598;
-0,000136804477485738;
-0,000733734285212246;
-0,00118788864362335;
-0,0015248356414084;
-0,00184149537178647;
-0,00220493553491673;
-0,00259577929919213;
-0,00293456537369936;
-0,00316206592420448;
-0,00330157790257175;
-0,00344036384512135;
-0,00364748973998223;
-0,00389712110351893;
-0,00406879675139456;
-0,00403412489112548;
-0,00376392169927376;
-0,00337078927266809;
-0,00304746591990258;
-0,00294356728624152;
-0,00307190432436155;
-0,00331237423853191;
-0,0035066895788315;
-0,00356812045705064;
-0,00352401585100558;
-0,00346650593998859;
-0,00346065625283593;
-0,00348960324169011;
-0,00347935350498537;
-0,00337571300770147;
-0,0032013190292882;
-0,00303929691496616;
-0,00295527168807985;
-0,00292544155219752;
-0,00283728836950893;
-0,00257066511407004;
-0,00209874316996508;
-0,00152753460324518;
-0,00103795260898261;
-0,000770243691744057;
-0,000736185109634149;
-0,000823076623883408;
-0,00088251782146049;
-0,000833174903425316;
-0,000700443794112011;
-0,000570167852702716;
-0,000502769760596635;
-0,000482026638945059;
-0,00043836647914556;
-0,000320743841028755;
-0,000149803367065705;
-2,54120239837592E-6;
6,04776881911595E-5;
6,2091098929656E-5;
0,000107742012984087;
0,000309862973644634;
0,000693927806580579;
0,0011618292810268;
0,0015459374478959;
0,00171661176058873;
0,00166370777981544;
0,00149268253552988;
0,00134200885293567;
0,00128776810556288;
0,00130695618607368;
0,00132054021505905;
0,0012731176531858;
0,00118033124550017;
0,00110718753292037;
0,00110145230693855;
0,00114448675225252;
0,00116553302914798;
0,00110907979252911;
0,000996729063374008;
0,000926342868707274;
0,00100210431644963;
0,00124778918602401;
0,0015730941336692;
0,00182366399229133;
0,0018803075260245;
0,00173406263713041;
0,00148244930503706;
0,001253266537581;
0,00111672736347325;
0,00105177834327521;
0,000985831839765858;
0,000868077416167223;
0,000713026195264675;
0,000580499880918094;
0,000514404085279018;
0,000497623159677123;
0,000465216841029997;
0,000366278225219959;
0,000220637359241339;
0,000117978757158481;
0,000153668686626787;
0,000349323293653884;
0,000622089491485912;
0,000830571374269687;
0,000865667314006769;
0,000719162738165425;
0,000480167294882602;
0,000265360598979949;
0,00013871110829745;
8,08020649558605E-5;
2,52034164498763E-5;
-7,45907253491152E-5;
-0,000205485070343984;
-0,000313103740722526;
-0,000357629209504409;
-0,000354859548446075;
-0,000364116425532721;
-0,000431892329279826;
-0,000540286897683532;
-0,000607897987438938;
-0,000548238551079816;
-0,000341914468377258;
-6,44325137746035E-5;
0,000155625110082177;
0,000219110078535019;
0,000118493899924832;
-6,54849625194888E-5;
-0,000227166168301532;
-0,000308740596718719;
-0,000327967906753695;
-0,000345146935596438;
-0,000402482917582465;
-0,000488220462687644;
-0,000553282825490021;
-0,000561793641871008;
-0,000528154176541889;
-0,000506053433147846;
-0,000537539568233124;
-0,000606503195402334;
-0,000639560780239559;
-0,000558808174532032;
-0,000346884819479622;
-7,19469628687621E-5;
0,00015011655395141;
0,00023002861967373;
0,000161049775452449;
1,58529245384771E-5;
-0,00011053891902721;
-0,000166189578862419;
-0,000167094658505688;
-0,00016743023180797;
-0,000205075335992097;
-0,000269451964446625;
-0,00031651506174702;
-0,000314092749793994;
-0,000275097392693837;
-0,000247619071624477;
-0,000269274570040525;
-0,000325586870334521;
-0,000350847460054493;
-0,000275365651981836;
-8,36387485990923E-5;
0,00016340569545688;
0,000362262228591682;
0,000433281691954749;
0,000370550375816809;
0,000239003481008856;
0,000123449126637083;
7,02181881802757E-5;
6,50811998855557E-5;
5,98233060772387E-5;
2,07810860440086E-5;
-4,25644934624889E-5;
-9,09793543818713E-5;
-9,58231442148785E-5;
-6,85446136562536E-5;
-5,18263713390428E-5;
-7,90119313795015E-5;
-0,000137184365943282;
-0,000167996679700749;
-0,000109629491120815;
5,16499492129511E-5;
0,000261851063040245;
0,000429329698769893;
0,000483640150097496;
0,000419633296224114;
0,000294814273483815;
0,000184200018815938;
0,000128745032002609;
0,000115888114482767;
0,00010308281359405;
6,06593156638605E-5;
-2,98101714452464E-6;
-5,3223798336305E-5;
-6,48247082366241E-5;
-4,78685271928836E-5;
-3,99227564294565E-5;
-7,03022239346978E-5;
-0,000127614205220006;
-0,000160548651177654;
-0,000114798840709285;
2,16586710211989E-5;
0,000201390808592924;
0,000343975212953249;
0,000387654255824565;
0,000327957687306195;
0,000215304907893451;
0,000115399732973488;
6,40739100318428E-5;
5,03154915388224E-5;
3,69094342296784E-5;
-2,07092825711352E-6;
-5,92778072538773E-5;
-0,000104491442244619;
-0,000115700673154617;
-0,000101726834940659;
-9,53360026104833E-5;
-0,00012206995162973;
-0,000171998806073552;
-0,000200465264836474;
-0,000160254472255938;
-4,09635576636084E-5;
0,000116134388801228;
0,000241158119118384;
0,000280499803391296;
0,000230306587436071;
0,000134323586388589;
4,94973498293648E-5;
6,84446444922801E-6;
-3,1981300956856E-6;
-1,2850903498083E-5;
-4,45382046229769E-5;
-9,19055260267173E-5;
-0,000128852526820607;
-0,000136395022759625;
-0,000122170276976873;
-0,000114451825793193;
-0,000135253807387916;
-0,000176013819881087;
-0,000198287317171286;
-0,000161475183007796;
-5,66767783687373E-5;
8,05932548314713E-5;
0,000190292838433686;
0,000226415707694507;
0,000185685761503431;
0,000105633544055153;
3,50577734613764E-5;
5,03271101283924E-7;
-6,23374890539711E-6;
-1,27186998239943E-5;
-3,81118309774884E-5;
-7,69738776530715E-5;
-0,000107021817397876;
-0,000112070992016613;
-9,86479877136765E-5;
-9,08478865650483E-5;
-0,000107404868485836;
-0,000141016518059246;
-0,000158986146200336;
-0,000126830621153081;
-3,70262494728593E-5;
8,02552653781762E-5;
0,000174084732115704;
0,000205491928376431;
0,000171737923871456;
0,000104615246792117;
4,54035061259473E-5;
1,65276012011141E-5;
1,10473538339557E-5;
5,69944685120778E-6;
-1,56606765551962E-5;
-4,84327323667386E-5;
-7,38458441669859E-5;
-7,82875220201825E-5;
-6,72551432902064E-5;
-6,09928850342323E-5;
-7,52141374139296E-5;
-0,00010377298409486;
-0,00011925354304688;
-9,27876951321471E-5;
-1,8110080304931E-5;
7,95192431139027E-5;
0,000157538291857155;
0,000183432115281342;
0,000154952495350039;
9,86300535345947E-5;
4,88541220480224E-5;
2,42772581451475E-5;
1,91179488711702E-5;
1,40508774482949E-5;
-4,31057862009362E-6;
-3,21352307850166E-5;
-5,38641959455974E-5;
-5,82357483177707E-5;
-4,98071278204788E-5;
-4,53071979216555E-5;
-5,76945823248115E-5;
-8,18817337547407E-5;
-9,52714714611767E-5;
-7,41154120863084E-5;
-1,32942466652811E-5;
6,64067165908539E-5;
0,000130043242148642;
0,000150972487609151;
0,00012738769528935;
8,10290453194928E-5;
4,00183981297709E-5;
1,95782388961658E-5;
1,49780567486135E-5;
1,04660940229061E-5;
-4,84431200152117E-6;
-2,78234916961523E-5;
-4,58287539560099E-5;
-4,97315762168443E-5;
-4,32387712910411E-5;
-3,98968728474844E-5;
-5,01731470073137E-5;
-6,99416387879061E-5;
-8,09679735309432E-5;
-6,41355153498057E-5;
-1,53610134492542E-5;
4,86142777036296E-5;
9,97265514244748E-5;
0,000116632667154665;
9,79206724653141E-5;
6,10052316892323E-5;
2,83535782862611E-5;
1,2095021534905E-5;
8,44558121697759E-6;
4,87136101345474E-6;
-7,26518463350298E-6;
-2,54678159450697E-5;
-3,97188556257848E-5;
-4,28086533919344E-5;
-3,76795664779428E-5;
-3,50189893965822E-5;
-4,30576536620357E-5;
-5,85345275647196E-5;
-6,71316806866201E-5;
-5,3887266586335E-5;
-1,56456153325366E-5;
3,44785671221292E-5;
7,45869546971066E-5;
8,80823041231452E-5;
7,39047765230688E-5;
4,55972325622986E-5;
2,05688076518956E-5;
8,18391051582041E-6;
5,50540347946099E-6;
2,8744549100228E-6;
-6,33833069138606E-6;
-2,02024724047928E-5;
-3,10422016114955E-5;
-3,33583003881968E-5;
-2,9410473729956E-5;
-2,73376407128781E-5;
-3,33784154123658E-5;
-4,50420810795255E-5;
-5,14958480646315E-5;
-4,14725093202775E-5;
-1,26390862663663E-5;
2,51150112770803E-5;
5,53700974488223E-5;
6,57435391895104E-5;
5,54877395668976E-5;
3,47103504082271E-5;
1,6335486564189E-5;
7,27783467303306E-6;
5,35168938884325E-6;
3,44502864167455E-6;
-3,2938462450727E-6;
-1,34351305599225E-5;
-2,13739548386045E-5;
-2,31222587888151E-5;
-2,03354634372055E-5;
-1,89009382772256E-5;
-2,32985715794399E-5;
-3,17176600731918E-5;
-3,63992749472213E-5;
-2,93325292176264E-5;
-8,90783213590695E-6;
1,78277946953911E-5;
3,92788667199661E-5;
4,6771536289795E-5;
3,98324490975285E-5;
2,5549013928681E-5;
1,29045801845162E-5;
6,66291626245214E-6;
5,29852041597929E-6;
3,93410229159504E-6;
-7,2339177478228E-7;
-7,68353067362573E-6;
-1,3155997515713E-5;
-1,44757388764998E-5;
-1,27687464781212E-5;
-1,19524350592511E-5;
-1,49692145421243E-5;
-2,0603402930228E-5;
-2,37816737938586E-5;
-1,93360120253412E-5;
-6,2872235833495E-6;
1,07978786958673E-5;
2,45299958086868E-5;
2,94666982252365E-5;
2,53728440008055E-5;
1,67063792552157E-5;
9,02212103268445E-6;
5,21373903377464E-6;
4,32961106520461E-6;
3,43324882710642E-6;
5,84027061164039E-7;
-3,60961320291367E-6;
-6,93136854502957E-6;
-7,8628580838493E-6;
-7,0712521940429E-6;
-6,76846226125103E-6;
-8,56705270932288E-6;
-1,17667759021175E-5;
-1,3616255838209E-5;
-1,14033749701273E-5;
-4,69260577586991E-6;
4,09020743135274E-6;
1,11836700544101E-5;
1,39304251616836E-5;
1,22999792243562E-5;
8,48597366338834E-6;
5,09304930036715E-6;
3,40684859170033E-6;
2,96900266486921E-6;
2,5096934058639E-6;
1,24855675699049E-6;
-5,34360729142011E-7;
-1,97261729665367E-6;
-2,5302890587427E-6;
-2,48142786189315E-6;
-2,57842423523225E-6;
-3,29694879181552E-6;
-4,3780146846561E-6;
-5,05412176413986E-6;
-4,70953474715653E-6;
-3,37188757781081E-6;
-1,64092901834193E-6;
-1,86577654690332E-7;
7,05128118669693E-7;
1,17746911361137E-6;
1,49837971097914E-6;
1,76556181681653E-6;
1,89937402051758E-6;
1,86018513074973E-6;
1,79138392707645E-6;
1,89535578538999E-6;
2,17350033090467E-6;
2,34968720370419E-6;
2,12917578868367E-6;
1,57044925624387E-6;
1,15374282486711E-6;
1,36244683081934E-6;
2,08287356446684E-6;
2,41045470909613E-6;
1,19590752596384E-6;
-1,97739586029577E-6;
-6,17301362767162E-6;
-9,46303947492348E-6;
-1,01427375985217E-5;
-7,92330083896654E-6;
-4,15110312463948E-6;
-8,28013755049906E-7;
8,24062055792312E-7;
1,11586706832396E-6;
1,37143567970438E-6;
2,61315594672247E-6;
4,60951623222772E-6;
6,13190319136081E-6;
6,19403293786916E-6;
5,13144778528307E-6;
4,4492749521855E-6;
5,42725319036436E-6;
7,64185980112139E-6;
8,8016770047347E-6;
6,29533002768291E-6;
-6,15068737581877E-7;
-9,72177210654054E-6;
-1,69498592825653E-5;
-1,89511673417474E-5;
-1,53171285787815E-5;
-8,72442718247808E-6;
-2,9031284812974E-6;
-1,42000484656707E-8;
5,41164785324445E-7;
1,0558887190465E-6;
3,22423944417112E-6;
6,62341772191547E-6;
9,24521071719766E-6;
9,53823097712264E-6;
8,0646074415831E-6;
7,16561580368637E-6;
8,76958469409645E-6;
1,22001960220732E-5;
1,40379698132651E-5;
1,04841554039724E-5;
5,40947652031565E-7;
-1,25527398272942E-5;
-2,29834407348729E-5;
-2,60741607606728E-5;
-2,13199467958605E-5;
-1,24708802302887E-5;
-4,64939087000747E-6;
-7,71847332943824E-7;
-7,71902830575596E-9;
7,13496704313691E-7;
3,62420052367626E-6;
8,14787975190559E-6;
1,16526840769157E-5;
1,21361215950575E-5;
1,03413695372936E-5;
9,27573091852398E-6;
1,13830112610815E-5;
1,57854693803159E-5;
1,81684924871082E-5;
1,37931030522248E-5;
1,45671147355849E-6;
-1,47865236795742E-5;
-2,7751687451343E-5;
-3,17155927179224E-5;
-2,60979362989733E-5;
-1,54916690916678E-5;
-6,11035121108182E-6;
-1,46107665709565E-6;
-5,32091559645839E-7;
3,53302608563534E-7;
3,84587688309936E-6;
9,24906183936989E-6;
1,34469505009999E-5;
1,40879096322517E-5;
1,20554327029711E-5;
1,08708086805995E-5;
1,33744234705674E-5;
1,85330100175866E-5;
2,13447641142843E-5;
1,63510202534509E-5;
2,19358410575402E-6;
-1,64506378568744E-5;
-3,13524198233333E-5;
-3,59941616577413E-5;
-2,97389908975702E-5;
-1,78176154281359E-5;
-7,2667828195901E-6;
-2,03788579001568E-6;
-9,82805074851943E-7;
2,91341912806317E-8;
3,96077706355229E-6;
1,00254009426753E-5;
1,47468900568807E-5;
1,55149118182935E-5;
1,33171829259273E-5;
1,20542806119357E-5;
1,48578926453985E-5;
2,05798839818261E-5;
2,37152923825367E-5;
1,82808521561342E-5;
2,80626444590201E-6;
-1,75789000573396E-5;
-3,38900560855938E-5;
-3,90375126411393E-5;
-3,2344450453028E-5;
-1,94984704393696E-5;
-8,12331741852736E-6;
-2,4856487582776E-6;
-1,34045502927236E-6;
-2,37049910053942E-7;
4,00598154480731E-6;
1,05380998983413E-5;
1,56318771047183E-5;
1,64977538331026E-5;
1,41959812077761E-5;
1,28881897346471E-5;
1,59050113528333E-5;
2,20191271218228E-5;
2,53837632235578E-5;
1,96620132220456E-5;
3,30960127287632E-6;
-1,82401016872922E-5;
-3,54999711064954E-5;
-4,10026811322684E-5;
-3,40460570001937E-5;
-2,06166597770418E-5;
-8,71904608375479E-6;
-2,82253053438956E-6;
-1,61961796922444E-6;
-4,56361819021101E-7;
3,98577981142136E-6;
1,08153953751824E-5;
1,61485441428449E-5;
1,70855885857099E-5;
1,47317614505023E-5;
1,34070038103566E-5;
1,65606681270515E-5;
2,29172417459503E-5;
2,64281686797912E-5;
2,05511885612796E-5;
3,70112434077385E-6;
-1,85138031828597E-5;
-3,63228468385758E-5;
-4,20493723656045E-5;
-3,49785550767426E-5;
-2,12594704829337E-5;
-9,09939319790683E-6;
-3,07307218860209E-6;
-1,84019548741382E-6;
-6,44213113967238E-7;
3,90037113870641E-6;
1,08810564256349E-5;
1,63390064136459E-5;
1,7324007234204E-5;
1,49625878491501E-5;
1,36446960124335E-5;
1,68695147726565E-5;
2,33399474011164E-5;
2,69257963275751E-5;
2,1006627892055E-5;
3,98473241869149E-6;
-1,84672342674159E-5;
-3,64822733987601E-5;
-4,23184673503595E-5;
-3,52592738596038E-5;
-2,149980689193E-5;
-9,29807048032679E-6;
-3,25130153871199E-6;
-2,01163732166516E-6;
-8,05652828741993E-7;
3,75937562614324E-6;
1,07667055922607E-5;
1,62520172162393E-5;
1,72650862964233E-5;
1,49336310328608E-5;
1,36426757835905E-5;
1,68828112773063E-5;
2,33579272067641E-5;
2,69579525239645E-5;
2,10919344251976E-5;
4,17366431930451E-6;
-1,81530635199708E-5;
-3,60832540978833E-5;
-4,1931306186896E-5;
-3,49882603371571E-5;
-2,13971750526803E-5;
-9,33884779316758E-6;
-3,36321521846196E-6;
-2,13607149193801E-6;
-9,39109765889262E-7;
3,57751246085625E-6;
1,05069555739332E-5;
1,59376024850952E-5;
1,6961581152338E-5;
1,46909745325315E-5;
1,3443240234733E-5;
1,66515700426826E-5;
2,30396853035376E-5;
2,66025674614874E-5;
2,08685084591629E-5;
4,28284263022117E-6;
-1,76171049528885E-5;
-3,52199385001202E-5;
-4,09974389822219E-5;
-3,42560209065514E-5;
-2,10054225643994E-5;
-9,2432672633906E-6;
-3,41441889941756E-6;
-2,21584468395084E-6;
-1,04380253847439E-6;
3,36732947899558E-6;
1,01322978257301E-5;
1,54401344296922E-5;
1,64601986052321E-5;
1,42751177482357E-5;
1,30833139960842E-5;
1,62205320070876E-5;
2,24457942379438E-5;
2,59287130582084E-5;
2,03903226474099E-5;
4,32391961458202E-6;
-1,69030112453597E-5;
-3,39800364133385E-5;
-3,96187324757022E-5;
-3,31473092725078E-5;
-2,03761713072019E-5;
-9,03373002613538E-6;
-3,41290260300445E-6;
-2,25600066675478E-6;
-1,12192811410388E-6;
3,13731376406814E-6;
9,66750458754873E-6;
1,47970212643836E-5;
1,58005568567689E-5;
1,37201617360381E-5;
1,25938717030338E-5;
1,56278432002805E-5;
2,16288116184131E-5;
2,49967570360665E-5;
1,97042584562439E-5;
4,30572169197468E-6;
-1,60517336828682E-5;
-3,24441747873325E-5;
-3,78885837621555E-5;
-3,1740134485088E-5;
-1,95576006320823E-5;
-8,73208295088108E-6;
-3,36747592149327E-6;
-2,26259529276157E-6;
-1,17687792428766E-6;
2,89378622350061E-6;
9,13365132237261E-6;
1,40408121542202E-5;
1,50173286291376E-5;
1,30559846753445E-5;
1,20021349014539E-5;
1,49072822386539E-5;
2,06355561620523E-5;
2,38606519827981E-5;
1,88523384902509E-5;
4,23634401695074E-6;
-1,50996217219581E-5;
-3,06841556640734E-5;
-3,5890228990467E-5;
-3,01040310614825E-5;
-1,85926508592801E-5;
-8,35776260551312E-6;
-3,28591045114163E-6;
-2,24089818345828E-6;
-1,21149009254386E-6;
2,64261154587342E-6;
8,54979750261957E-6;
1,32008543426399E-5;
1,41418366932865E-5;
1,23097254987367E-5;
1,13329422024304E-5;
1,40895796866978E-5;
1,9508408328754E-5;
2,25691743055006E-5;
1,78728234550151E-5;
4,12400179700017E-6;
-1,4077866572659E-5;
-2,87626386513584E-5;
-3,3696556579471E-5;
-2,82998716118346E-5;
-1,75187518257358E-5;
-7,92747367228093E-6;
-3,17462857164001E-6;
-2,19513380615254E-6;
-1,22785319996307E-6;
2,38938304186415E-6;
7,93318286719876E-6;
1,23034764991037E-5;
1,32021750015135E-5;
1,15058128859097E-5;
1,06087232455508E-5;
1,32023671353422E-5;
1,82852692692738E-5;
2,11658842588128E-5;
1,68000468244183E-5;
3,97663183514816E-6;
-1,30131733525887E-5;
-2,67340465726281E-5;
-3,13710860702873E-5;
-2,63807666975051E-5;
-1,63685765226273E-5;
-7,45580510011424E-6;
-3,03926176570329E-6;
-2,12903636926595E-6;
-1,22785081628849E-6;
2,13891731183814E-6;
7,29880292023982E-6;
1,13716278054898E-5;
1,22228533014847E-5;
1,06655837488482E-5;
9,84908898646328E-6;
1,22698103424754E-5;
1,69992787775852E-5;
1,96888784712972E-5;
1,56641133769253E-5;
3,80138563906323E-6;
-1,19285430541214E-5;
-2,46455350860733E-5;
-2,89689833266431E-5;
-2,43929594296047E-5;
-1,5170726113385E-5;
-6,95573310945097E-6;
-2,88504758833398E-6;
-2,04621307956779E-6;
-1,21349152751304E-6;
1,89501132637999E-6;
6,65927108740699E-6;
1,04248194477774E-5;
1,1224772462051E-5;
9,8072434976244E-6;
9,07079643530238E-6;
1,13126336931888E-5;
1,56789344648744E-5;
1,81709782915602E-5;
1,44910149588994E-5;
3,6045381921561E-6;
-1,08436354230768E-5;
-2,25375840631001E-5;
-2,65376939781587E-5;
-2,23763272604863E-5;
-1,39500179345588E-5;
-6,43872307054559E-6;
-2,71683753815481E-6;
-1,95011376167815E-6;
-1,18684604667304E-6;
1,66057324348467E-6;
6,02505680841143E-6;
9,47945954461075E-6;
1,02255772638525E-5;
8,94618473282512E-6;
8,28804930804072E-6;
1,03484608023455E-5;
1,43485337144571E-5;
1,66402189050652E-5;
1,33030312220308E-5;
3,39164757632862E-6;
-9,77492435011112E-6;
-2,0444377512522E-5;
-2,41173914531264E-5;
-2,03647233745656E-5;
-1,27276199362809E-5;
-5,914684852121E-6;
-2,53895818273765E-6;
-1,84387474833977E-6;
-1,1498768520511E-6;
1,43785698425777E-6;
5,40481701873917E-6;
8,54924204195397E-6;
9,24004588558361E-6;
8,09534110849999E-6;
7,51282482592692E-6;
9,39218979730464E-6;
1,30286197329827E-5;
1,51203250607507E-5;
1,21191161264606E-5;
3,16769862895005E-6;
-8,73586529012749E-6;
-1,8394240905168E-5;
-2,17414893043376E-5;
-1,83863748727256E-5;
-1,15212593517838E-5;
-5,3920018321694E-6;
-2,35516169603462E-6;
-1,73026407812046E-6;
-1,10436843927059E-6;
1,22859199134991E-6;
4,8056108921618E-6;
7,64543416315533E-6;
8,28038728648797E-6;
7,26543652078818E-6;
6,75509386927266E-6;
8,45623485940961E-6;
1,17363090770107E-5;
1,36310924341776E-5;
1,09551800890776E-5;
2,93712480576714E-6;
-7,73720201243428E-6;
-1,6410183998299E-5;
-1,94372679063012E-5;
-1,64644073473025E-5;
-1,03455317529512E-5;
-4,87767654310247E-6;
-2,16868565712286E-6;
-1,61171749970382E-6;
-1,05195575883256E-6;
1,03401220374272E-6;
4,23303194578783E-6;
6,77708565755034E-6;
7,35645379204322E-6;
6,46515586338513E-6;
6,02297248021921E-6;
7,55073284841628E-6;
1,04855756356765E-5;
1,21887003389239E-5;
9,82431855936501E-6;
2,7038047985532E-6;
-6,78728328255268E-6;
-1,45104756140703E-5;
-1,7226510559142E-5;
-1,46173712873908E-5;
-9,21224380701872E-6;
-4,37749068366687E-6;
-1,9823216294806E-6;
-1,49038974296174E-6;
-9,94152172798072E-7;
8,54896253124562E-7;
3,69133820281227E-6;
5,95122159100494E-6;
6,47595016691026E-6;
5,70133049221193E-6;
5,3228746057181E-6;
6,68372227995411E-6;
9,2875303345847E-6;
1,08060478895915E-5;
8,7370563538173E-6;
2,47107048109573E-6;
-5,89235145750961E-6;
-1,27091644992837E-5;
-1,51260986617299E-5;
-1,28597289726468E-5;
-8,13069715498709E-6;
-3,89611992639411E-6;
-1,79845445821217E-6;
-1,36817902808281E-6;
-9,32353052879563E-7;
6,91622653143914E-7;
3,18360205581835E-6;
5,17307316650273E-6;
5,64467022689893E-6;
4,97913118987132E-6;
4,65970272157692E-6;
5,86138546562432E-6;
8,15072838463073E-6;
9,49309692913431E-6;
7,70161386744108E-6;
2,24174731130237E-6;
-5,05680032167844E-6;
-1,10165611238892E-5;
-1,31485632700646E-5;
-1,12023177427718E-5;
-7,10796217365831E-6;
-3,43724621252126E-6;
-1,61908790516264E-6;
-1,24672778006287E-6;
-8,67827990147305E-7;
5,44237912836823E-7;
2,71187062823421E-6;
4,44630750232244E-6;
4,86674066093908E-6;
4,3022773762018E-6;
4,03702510484529E-6;
5,08826056682755E-6;
7,08146875782876E-6;
8,2572183273297E-6;
6,72417573620293E-6;
2,01820795312521E-6;
-4,2833940759155E-6;
-9,43969269276696E-6;
-1,13026077124556E-5;
-9,65275589793912E-6;
-6,14912484730203E-6;
-3,0036575414478E-6;
-1,44586082563282E-6;
-1,12743163133881E-6;
-8,01713990403915E-7;
4,12519948479422E-7;
2,27731009020442E-6;
3,77322690360484E-6;
4,14482706811864E-6;
3,67322423386126E-6;
3,45725042575297E-6;
4,36745084747589E-6;
6,08407458020399E-6;
7,1035032455234E-6;
5,80912664712811E-6;
1,80240778673858E-6;
-3,57350410130295E-6;
-7,9827320346054E-6;
-9,5935905541815E-6;
-8,21586763758938E-6;
-5,25753739545699E-6;
-2,59734035604105E-6;
-1,28008962203356E-6;
-1,01146183510498E-6;
-7,35010882025308E-7;
2,96029162031056E-7;
1,88033252822069E-6;
3,15496638369109E-6;
3,48034729656985E-6;
3,09333697702381E-6;
2,92177950373252E-6;
3,700809479578E-6;
5,16114799498934E-6;
6,0350632823281E-6;
4,95928235917799E-6;
1,59591988697433E-6;
-2,9273129179382E-6;
-6,64740497962249E-6;
-8,02401102374082E-6;
-6,89406709843177E-6;
-4,43504716902895E-6;
-2,21959362030791E-6;
-1,12279503587957E-6;
-8,99777587560775E-7;
-6,68601391584077E-7;
1,94148579341683E-7;
1,52071910215942E-6;
2,59166406000491E-6;
2,87363908463091E-6;
2,5630355877434E-6;
2,43114670359751E-6;
3,08911557122763E-6;
4,31381083564592E-6;
5,05329930456251E-6;
4,17609419624475E-6;
1,39997243296842E-6;
-2,3440145644461E-6;
-5,4333759050864E-6;
-6,59393071172234E-6;
-5,68771383456275E-6;
-3,68222136380551E-6;
-1,87111042607152E-6;
-9,74734942315254E-7;
-7,93147767971942E-7;
-6,03243357941136E-7;
1,06116045247114E-7;
1,19771490162022E-6;
2,08262084981613E-6;
2,32414047998181E-6;
2,08195430878771E-6;
1,98514714095138E-6;
2,5322309626052E-6;
3,54192456274877E-6;
4,15815543331025E-6;
3,45984740467591E-6;
1,21547404042505E-6;
-1,82199077574015E-6;
-4,33858172983882E-6;
-5,30137730541949E-6;
-4,59544662804956E-6;
-2,99854121806507E-6;
-1,55207304927172E-6;
-8,36437311554862E-7;
-6,92173363901115E-7;
-5,39586004015798E-7;
3,10780134171741E-8;
9,1014077038793E-7;
1,62644883424329E-6;
1,83054193370064E-6;
1,64906797859095E-6;
1,5829717640427E-6;
2,02925922324039E-6;
2,84429830311412E-6;
3,34835993807976E-6;
2,80984845391561E-6;
1,04306072879202E-6;
-1,35896652384532E-6;
-3,35954867028246E-6;
-4,14269910234642E-6;
-3,61447737569676E-6;
-2,3825857560079E-6;
-1,26222627234718E-6;
-7,08223704795595E-7;
-5,97294990199929E-7;
-4,781712059811E-7;
-3,1899320764762E-8;
6,56475893811937E-7;
1,22120814819013E-6;
1,39092843981826E-6;
1,26281582789095E-6;
1,22330336734499E-6;
1,57867361330552E-6;
2,21887429448175E-6;
2,62163435368491E-6;
2,22458911976498E-6;
8,83123167118896E-7;
-9,52155442791981E-7;
-2,49167465854687E-6;
-3,11289304737341E-6;
-2,74086447663746E-6;
-1,83219770245374E-6;
-1,00095020448362E-6;
-5,90236318353542E-7;
-5,08815965878861E-7;
-4,19441286433766E-7;
-8,37886742663336E-8;
4,34938321675453E-7;
8,64523842932775E-7;
1,00290794341859E-6;
9,21213346409083E-7;
9,04428803123418E-7;
1,17844553890504E-6;
1,662900238746E-6;
1,97489034520165E-6;
1,70189272145201E-6;
7,35835513833676E-7;
-5,98384393352807E-7;
-1,72947858871561E-6;
-2,20590154332148E-6;
-1,96976136942116E-6;
-1,34463306646851E-6;
-7,67330324694738E-7;
-4,82465121613197E-7;
-4,26913957158271E-7;
-3,63745862041589E-7;
-1,2558333796231E-7;
0,00933367760225435;
0,0226302835154547;
0,0163734009985074;
0,00943371812934274;
0,0121700161120416;
0,00702699348802261;
0,00563599020821427;
0,00458411445889187;
0,000841739150722612;
0,00103299356045758;
-0,0105241677448092;
-0,0246227493111668;
-0,0191812890812441;
-0,0139880731251408;
-0,017057633481893;
-0,0128826282512763;
-0,0115764191719857;
-0,0107655500408754;
-0,00783438811113871;
-0,00895325419649732;
-0,00815836827068542;
-0,0082506502806322;
-0,00771099210728139;
-0,00555447934266488;
-0,00431995892844055;
-0,00257387700396772;
-0,00188847119409039;
-0,00127407719589479;
-5,36436227150171E-5;
0,0015025054916165;
0,00367339837113957;
0,00528390430368174;
0,00606468560684707;
0,00601704330510136;
0,00554329394154277;
0,00540335111025438;
0,00560190472951371;
0,00588435938174812;
0,00568671436853639;
0,00475324864577956;
0,0034496709895348;
0,00237148318350639;
0,00204643869064864;
0,00243372278164137;
0,00303926310393913;
0,00334349145595319;
0,00319227283616712;
0,00294917299846804;
0,00312668847904611;
0,00394407651498861;
0,00509961722958589;
0,00596525729810515;
0,00607155397281718;
0,00544139652043576;
0,00454925629773626;
0,00391655837704494;
0,00369022111897577;
0,00355303967124542;
0,00302004720841591;
0,00188339373021535;
0,000424511275990397;
-0,000777137867104141;
-0,00128098735723927;
-0,0011131391626499;
-0,000715583660124661;
-0,000568023710004377;
-0,000795272783264866;
-0,00108307796659694;
-0,000967913784685809;
-0,000255596267209813;
0,010111786658186;
0,0242035358516658;
0,0180781770433853;
0,0106279070607313;
0,0126342176422717;
0,00700620728868211;
0,00550678343800578;
0,00443785645811691;
0,000336968465252117;
-0,000358453040041343;
-0,0037475277443944;
-0,00547877555485692;
-0,00659663089098231;
-0,00804332825183139;
-0,0078693963026301;
-0,00855014829538406;
-0,00867854836050367;
-0,00901476456277376;
-0,00956130058560485;
-0,00969313876509806;
-0,0100414163916699;
-0,0100693391270588;
-0,0100709028336655;
-0,00996008665287917;
-0,00955678556075801;
-0,00906377856948919;
-0,00841872540547672;
-0,0079239101815486;
-0,00769937586346086;
-0,00772701095815775;
-0,00789250831112128;
-0,00788109550500344;
-0,00753388417726974;
-0,00680474017395503;
-0,00583459260103124;
-0,00485455884403984;
-0,00401131080312206;
-0,00336246317791574;
-0,00284633023905814;
-0,00238483654813721;
-0,00193560484426016;
-0,00148211353737919;
-0,00101446905221497;
-0,000488159837516504;
0,000140172946100157;
0,000858516444644633;
0,00156607709204252;
0,00210107769807709;
0,00233964438381282;
0,00228419222621282;
0,00208575384072445;
0,00196971302520561;
0,00210989967125936;
0,00253707603105479;
0,00313472933997327;
0,00372180105907701;
0,00415764239810186;
0,0044004515838236;
0,00449354698131299;
0,00450700914630315;
0,00449042570933935;
0,0044680068072323;
0,00446384383840013;
0,00451746021771132;
0,00466234703476965;
0,00488151215693588;
0,00508333106657492;
0,00513267161893636;
0,00492898284122171;
0,00448050737818848;
0,00391860533845931;
0,00343469624323018;
0,00317721054423786;
0,00317475679619717;
0,0033329003188383;
0,00350039514591971;
0,00355542337375499;
0,00345611849023088;
0,00323307583385319;
0,0029455416051616;
0,00264296674969543;
0,00235743152063066;
0,00211839221515662;
0,00196052921985326;
0,0019056532581631;
0,00192997392549763;
0,0019498672398744;
0,00185111435433697;
0,00155289530519956;
0,00106588149419752;
0,000501055945036423;
1,71160932166976E-5;
-0,000263054308251073;
-0,000314460265715022;
-0,00021343399762865;
-8,55871988745295E-5;
-3,65683060581532E-5;
-0,000109159097888145;
-0,000285036287861101;
-0,000516128308182768;
-0,0100883381777777;
-0,0235938859538996;
-0,0174840570183499;
-0,0106001760489015;
-0,0132898937761554;
-0,00802757119060199;
-0,00652093303201082;
-0,00545295926618335;
-0,00185789578668231;
-0,00234779849746067;
-0,000481840698663156;
3,268794950488E-5;
0,000730302346701709;
0,00255017057301545;
0,0030878826140787;
0,00428892120367824;
0,00454454711362319;
0,0048511281225352;
0,0056304400607708;
0,00646689475570444;
0,00779096141975796;
0,00860861759866008;
0,00887065084536775;
0,00853459719576232;
0,00779719272075979;
0,0072387594618938;
0,00684459138563812;
0,00658585186153635;
0,00615137528467778;
0,00537132791717115;
0,0137605053226065;
0,0261907441373835;
0,0194102156115984;
0,012239807217762;
0,0147851486078077;
0,00926419603230239;
0,00728148525267867;
0,0056866065561686;
0,00175050222667258;
0,00219949159174045;
0,000468658965962543;
-1,69597361387653E-5;
-0,000997863930374042;
-0,00339839428434119;
-0,00459290045006595;
-0,00629198068360199;
-0,0068350401290813;
-0,00738308392878637;
-0,008595361575116;
-0,0101500091345055;
-0,0216628569538818;
-0,0364764214824218;
-0,0308023358036568;
-0,0234781529280119;
-0,0252770958200741;
-0,0194671524151045;
-0,0177399916911229;
-0,0165148913562155;
-0,012233253865207;
-0,011252356746478;
-0,00752735471129879;
-0,00539455841954443;
-0,00387961639302057;
-0,00200313655323194;
-0,00165852952141852;
-0,000358419901167095;
0,000457456628272838;
0,00141984458435994;
0,00243040555491581;
0,00284581859914215;
0,00339413617812916;
0,00370716971843561;
0,00419992336645246;
0,00480104864827204;
0,00522964352184888;
0,00554932033075997;
0,00560986226017918;
0,00571087781844253;
0,00603061702700928;
0,00660205227908455;
0,00731459254052202;
0,0078212256288831;
0,00794004269355724;
0,00764613307714335;
0,00713009393361901;
0,00664963971104359;
0,00631181976868084;
0,00607765319304499;
0,00579562378658142;
0,00537585734464857;
0,00486587031351574;
0,00439321041010879;
0,00405903247981087;
0,00383180839816728;
0,00358475288428125;
0,00321354210889448;
0,0027450262971928;
0,00234275279325043;
0,00218235263507092;
0,00230791767363116;
0,0119071499306618;
0,0253579943368819;
0,0189529897850895;
0,0115518020722944;
0,0136741066413995;
0,00797008721236113;
0,00617953887072276;
0,00485078541238248;
0,000835811037562036;
0,000680054411705643;
-0,00193710185798234;
-0,00308013235074922;
-0,00411279618107862;
-0,00598070693293652;
-0,00644345541289003;
-0,00763011066456922;
-0,00799293128713608;
-0,008433797553942;
-0,00922163458811274;
-0,00987126175103228;
-0,0202280323014157;
-0,0340997833788265;
-0,0280494913401949;
-0,020892518817158;
-0,0230500478407176;
-0,0174090067417644;
-0,015560268852308;
-0,0141670356921006;
-0,0100308875543476;
-0,00965936448724453;
-0,00679415912478841;
-0,00534008485826102;
-0,00399754616068701;
-0,00180607549134548;
-0,000983693980328766;
0,000604097260639417;
0,00142115178722926;
0,00231838727294287;
0,00352639554438046;
0,0045408910285705;
0,0058984037344676;
0,00684103576455718;
0,00749098793331499;
0,00779696421173902;
0,00777440859523853;
0,00780614630033487;
0,00782534343221891;
0,00792664052508379;
0,00798692670444346;
0,00791485293330835;
0,00778011540473911;
0,00759777360962532;
0,00745835965586429;
0,00732127487226616;
0,00710613919189597;
0,00677599554154572;
0,00635668815049619;
0,00599130074977939;
0,00580082465022932;
0,00581070678815334;
0,00591041493626764;
0,00590606359152908;
0,00565793507499862;
0,00515186085737904;
0,00450549384291382;
0,00387652221037105;
0,00335869752473426;
0,00294532381895528;
0,00256366327582799;
0,00215628860157326;
0,0017267761197878;
0,00132180506146196;
0,000973796607285843;
0,000658559929305706;
0,000314547570577135;
-9,46938989245136E-5;
-0,000528440038422595;
-0,000878555385893596;
-0,00104267348934933;
-0,00100604027701364;
-0,000868423867781418;
-0,000790173634780126;
-0,000894143833108174;
-0,00119353456626151;
-0,00159485395465538;
-0,00196907735858697;
-0,00223457334842675;
-0,00239275130884282;
-0,00249909160717073;
-0,00260313246039691;
-0,00271051186165918;
-0,0027944674723726;
-0,00283853190334088;
-0,002865487147691;
-0,00292206473828238;
-0,00303072458957103;
-0,00315215661717488;
-0,00319679121894137;
-0,00308399363795122;
-0,00280651191056445;
-0,00244952636449047;
-0,00214601632855453;
-0,00199797783255718;
-0,0020185811931832;
-0,00213402488324113;
-0,00223922082168068;
-0,00226375147446042;
-0,00220205949756294;
-0,0020938594174261;
-0,00197971046332618;
-0,0018714649288689;
-0,00175843012947055;
-0,00163606675815471;
-0,0015246554174996;
-0,00145644721718662;
-0,00144062597413987;
-0,00143849024856082;
-0,00137599847542093;
-0,00119080205149944;
-0,000880846067157947;
-0,000516784280841413;
-0,000205717788251127;
-2,9651347341674E-5;
-5,86564875194374E-7;
-6,13105665955718E-5;
-0,000127403290952207;
-0,000138001482488382;
-8,097418048644E-5;
1,84996224519358E-5;
0,000128700568018674;
0,000233423735485326;
0,000330384564645129;
0,000414651213217127;
0,000468856848831779;
0,000473827685990344;
0,000432072463345461;
0,000381631811684472;
0,000382844158983749;
0,000482169322357512;
0,000677559900566671;
0,000911779862138738;
0,00110113878651012;
0,00118171576883755;
0,0011427874510391;
0,00102694223691434;
0,0009001306297988;
0,000814358194735142;
0,000787076051220956;
0,000805605182410509;
0,000846027679001193;
0,000888643596239661;
0,000920221853274554;
0,000927828364913307;
0,000896618014876034;
0,000818456288429785;
0,000705406175728001;
0,000594195861107161;
0,00053259705567045;
0,000552858458310389;
0,000649275597818244;
0,000776409802796342;
0,000871110207821643;
0,000885246650010224;
0,000809044337803474;
0,000671950636668877;
0,000523212603624059;
0,000406378031985067;
0,000342811003464606;
0,000330196909361111;
0,000351216051567066;
0,000383250122244719;
0,000403816299933259;
0,000393187859263636;
0,000338567827012863;
0,000240912191878381;
0,000119851849778127;
1,02413757126226E-5;
-5,15934506624045E-5;
-4,59960344325034E-5;
1,81273652486936E-5;
0,000105657988236646;
0,000171352634267789;
0,000180810385188903;
0,000125018100805314;
2,18314457301706E-5;
-9,43552042179511E-5;
-0,000187851926565248;
-0,00023446235133371;
-0,000227910183256692;
-0,000179846243021415;
-0,000115100717462908;
-6,36669677924524E-5;
-5,07588137290667E-5;
-8,73514268766557E-5;
-0,00016495754175724;
-0,000257944303441473;
-0,000333565504624963;
-0,000365629041090429;
-0,000345324671913239;
-0,00028412534973705;
-0,000208009455803537;
-0,000146569879881989;
-0,00012220017000469;
-0,00014312024295322;
-0,000201406699766808;
-0,00027556394609969;
-0,000336959889711563;
-0,000359333235628982;
-0,000329253595668249;
-0,000253397190631939;
-0,00015802364126878;
-7,89184174407878E-5;
-4,5465067010081E-5;
-6,68950573822401E-5;
-0,00012847401328637;
-0,000199842850868687;
-0,000250416106261821;
-0,00026278500362391;
-0,000237270375740902;
-0,000187254130702751;
-0,000130612668514896;
-8,33309809047189E-5;
-5,73442915685183E-5;
-6,00059221593511E-5;
-9,17412266654528E-5;
-0,000142088167926211;
-0,000188665218743091;
-0,000203790252165993;
-0,000168163884203373;
-8,41263087963112E-5;
2,13175029187419E-5;
0,000108114880313198;
0,000143872760651141;
0,000121004564759518;
5,93129480312215E-5;
-7,27169190406629E-6;
-5,03607999681494E-5;
-6,00996532751168E-5;
-4,44044847023263E-5;
-1,80238318603568E-5;
8,24238391318617E-6;
3,00686249507325E-5;
4,44855560410547E-5;
4,5008510310143E-5;
2,4260695595746E-5;
-1,6659434021518E-5;
-6,09075625851471E-5;
-7,99948417365992E-5;
-4,99691511689425E-5;
3,05116728502874E-5;
0,000134224001850295;
0,000218129521738707;
0,000247784001084334;
0,000217083169814705;
0,000149782114220563;
8,23086798009554E-5;
4,08010641604648E-5;
2,8644025076996E-5;
3,16681606834672E-5;
3,41802699173705E-5;
3,14458831804424E-5;
2,8950671279411E-5;
3,12653641380321E-5;
3,27181186212884E-5;
2,02078325246962E-5;
-1,30384928103969E-5;
-5,50759304291041E-5;
-7,71722581376499E-5;
-5,18437671185415E-5;
2,52999789098184E-5;
0,000127229471773298;
0,000209007975553005;
0,000234945779080042;
0,000200239531175104;
0,00013158370996138;
6,69486616278236E-5;
3,01919882879211E-5;
1,92134524316535E-5;
1,47905333084633E-5;
6,40419936209335E-7;
-2,28497377535621E-5;
-4,20799222949751E-5;
-4,62478561723608E-5;
-4,02751081780376E-5;
-4,18793293695474E-5;
-6,43426485864242E-5;
-0,000100013835911699;
-0,000120390214899791;
-9,5442719984131E-5;
-1,8302886094344E-5;
8,45426951566747E-5;
0,000167204053836608;
0,000193447523174765;
0,000159610236096668;
9,44465613670658E-5;
3,66592076317604E-5;
7,84490131437927E-6;
1,33488920294654E-6;
-6,05554394517843E-6;
-3,0879149439667E-5;
-6,84768708142998E-5;
-9,86573778002723E-5;
-0,000105557333375682;
-9,33960123483424E-5;
-8,34980484949528E-5;
-9,44044970222048E-5;
-0,000122173099634905;
-0,000138907938197679;
-0,000112881972619652;
-3,52471599163386E-5;
6,83516517217726E-5;
0,000151891070522521;
0,000179203459080779;
0,000147630313362096;
8,72340144544038E-5;
3,67742992101449E-5;
1,56489356238735E-5;
1,34660916381404E-5;
4,06116772006917E-6;
-2,91056236478197E-5;
-7,78654975274789E-5;
-0,000116795827517766;
-0,000126015657355868;
-0,000109083287750419;
-9,00245463283057E-5;
-9,15087680902219E-5;
-0,000112752096915079;
-0,000126765706434258;
-0,000100852693006412;
-2,46262284815482E-5;
7,73532044200884E-5;
0,000159621425964592;
0,000186590726909034;
0,000156482297571324;
0,000100021332991424;
5,54607242198732E-5;
4,00844371913071E-5;
4,05401146718066E-5;
2,85493200118758E-5;
-1,21777640713729E-5;
-7,06514679314589E-5;
-0,000117432612498024;
-0,00012955534397734;
-0,000109962699880629;
-8,45861602714305E-5;
-7,92190738740946E-5;
-9,5731623386304E-5;
-0,000108283008185752;
-8,38331367660532E-5;
-1,08511754988877E-5;
8,7370581668931E-5;
0,000166495465583569;
0,000191934245674073;
0,000162667478416172;
0,00010952995064235;
6,97990645544377E-5;
5,87425813859016E-5;
6,07244462780063E-5;
4,6103742219308E-5;
-9,68665165119553E-7;
-6,7303730394595E-5;
-0,000120524911965901;
-0,000135411280189113;
-0,00011434217577464;
-8,44654228379386E-5;
-7,38164856350936E-5;
-8,64627914548767E-5;
-9,79005123612684E-5;
-7,52799623127161E-5;
-6,2773525109936E-6;
8,72149404548296E-5;
0,000162443822818258;
0,000186151628221126;
0,00015796396921638;
0,000108357919438136;
7,32544351577862E-5;
6,6013101067164E-5;
6,93111203930687E-5;
5,27914595288686E-5;
1,19696508841717E-6;
-7,06378522298235E-5;
-0,00012834685213805;
-0,000145183227301358;
-0,000123015777085944;
-8,96155839298622E-5;
-7,44906975534153E-5;
-8,34925404556497E-5;
-9,35939821522022E-5;
-7,2580640753261E-5;
-7,64212033728822E-6;
8,08183931069523E-5;
0,000151989978430057;
0,000174206261543416;
0,000147633306315591;
0,000102004830028175;
7,15862255697394E-5;
6,79470246839144E-5;
7,26020260483796E-5;
5,50300292205378E-5;
6,84733311598438E-7;
-7,44405468656747E-5;
-0,000134811562093879;
-0,000152787616401884;
-0,000129778353783382;
-9,36719196740937E-5;
-7,47824897760376E-5;
-8,03726009728475E-5;
-8,89863589418152E-5;
-6,94070842483444E-5;
-8,60051888286977E-6;
7,45733880520775E-5;
0,000141519146085685;
0,000162357597916631;
0,000137701486564294;
9,62305397256402E-5;
7,03293179712477E-5;
6,99030425483038E-5;
7,57608580090671E-5;
5,76830371392956E-5;
1,92471260888056E-6;
-7,47848607286056E-5;
-0,00013644687157853;
-0,000155067970587211;
-0,000131647678073249;
-9,37650210878321E-5;
-7,19697756424909E-5;
-7,46020041490148E-5;
-8,18325689351373E-5;
-6,3730783337914E-5;
-7,26127772894317E-6;
7,02826340593587E-5;
0,000132718340259598;
0,000152093029693788;
0,000129382203649601;
9,19676528845768E-5;
7,01922258593886E-5;
7,24264757946505E-5;
7,91667806225764E-5;
6,08808000681249E-5;
4,68995331248472E-6;
-7,23046804686236E-5;
-0,000134235180514917;
-0,000153213807562867;
-0,000129877143320585;
-9,11428980199486E-5;
-6,73153433381938E-5;
-6,75170179873413E-5;
-7,35683871984968E-5;
-5,70476620430411E-5;
-5,10518564828183E-6;
6,65290011981132E-5;
0,000124215492920197;
0,000142016637475443;
0,000121195451666532;
8,7650422492103E-5;
6,95773602992831E-5;
7,39425007099953E-5;
8,12625600442381E-5;
6,30056021959118E-5;
7,20111059836361E-6;
-6,89882406385451E-5;
-0,000130322295354046;
-0,000149401611236605;
-0,000126545262024768;
-8,77249174175105E-5;
-6,26004566411265E-5;
-6,08187530102425E-5;
-6,58453829071047E-5;
-5,09326716330729E-5;
-3,5709692888117E-6;
6,20470069941864E-5;
0,000114897103602321;
0,000131102016992975;
0,000112145206215441;
8,2308067531753E-5;
6,75819449391265E-5;
7,36577636181183E-5;
8,13507984569667E-5;
6,33769482119624E-5;
8,69564304464737E-6;
-6,57294524144146E-5;
-0,000125693086040025;
-0,000144597920353137;
-0,000122488740145917;
-8,41669637998763E-5;
-5,83236661350936E-5;
-5,49064103589972E-5;
-5,89984193214951E-5;
-4,56404815029559E-5;
-2,78758912803875E-6;
5,68605804809334E-5;
0,000104917529540173;
0,00011957450406163;
0,000102476319028868;
7,61987837658062E-5;
6,45124985921033E-5;
7,19593183170673E-5;
7,98815523574924E-5;
6,24321415978292E-5;
9,50558861959735E-6;
-6,23485325271083E-5;
-0,000120285759501006;
-0,000138762254785829;
-0,000117589034356004;
-8,02267205038834E-5;
-5,4140021328567E-5;
-4,93854527907941E-5;
-5,26173635265832E-5;
-4,073491700184E-5;
-2,25553347713457E-6;
5,15553681354324E-5;
9,49296461133883E-5;
0,000108104347775042;
9,28342254778591E-5;
6,99403483207977E-5;
6,09911010353477E-5;
6,95015154099384E-5;
7,75246189265082E-5;
6,07882296199209E-5;
1,01130680157839E-5;
-5,85391483440871E-5;
-0,000113937827081989;
-0,000131788029219427;
-0,000111704595501087;
-7,56841393576574E-5;
-4,97670477077185E-5;
-4,39565048535004E-5;
-4,64161510945907E-5;
-3,59351566326132E-5;
-1,66721730537671E-6;
4,64864710702382E-5;
8,53221995271597E-5;
9,70744885171414E-5;
8,35637412838925E-5;
6,38407252919336E-5;
5,73190061528478E-5;
6,66039230118476E-5;
7,46027318933621E-5;
5,87109513348905E-5;
1,06550355597748E-5;
-5,43278552740872E-5;
-0,000106809501227338;
-0,000123889615682968;
-0,000105021483068795;
-7,06559374791355E-5;
-4,52639288311341E-5;
-3,86600753742832E-5;
-4,04436011997006E-5;
-3,12928644769812E-5;
-1,05060876978694E-6;
4,16677052429921E-5;
7,61406155939653E-5;
8,65309796603622E-5;
7,46870754426509E-5;
5,79020918136483E-5;
5,35055863512118E-5;
6,3304296844609E-5;
7,11674681184392E-5;
5,62120569614401E-5;
1,10402595698721E-5;
-4,99390893453126E-5;
-9,92319105907718E-5;
-0,000115434686766873;
-9,78708202610176E-5;
-6,53995128032012E-5;
-4,08235369110398E-5;
-3,36583671271323E-5;
-3,48562751845396E-5;
-2,69568696519333E-5;
-5,26322683029124E-7;
3,70211986265768E-5;
6,73417732915568E-5;
7,64409897794633E-5;
6,61631768047496E-5;
5,20800963472818E-5;
4,95266524868741E-5;
5,96154092161809E-5;
6,7253853747149E-5;
5,33006037724505E-5;
1,11960653465373E-5;
-4,55539843970101E-5;
-9,14719988542186E-5;
-0,000106715326624276;
-9,05062259249084E-5;
-6,00971428966616E-5;
-3,65641830341785E-5;
-2,90353585838943E-5;
-2,97272579372755E-5;
-2,29904758263962E-5;
-1,3308445067781E-7;
3,25438468457766E-5;
5,89519108567205E-5;
6,68412559845054E-5;
5,80258507289557E-5;
4,6411278278979E-5;
4,54413804505732E-5;
5,56319012922537E-5;
6,29773791565198E-5;
5,00699682937208E-5;
1,11449678891425E-5;
-4,12442333090257E-5;
-8,36764557045185E-5;
-9,79012403312288E-5;
-8,30655283027735E-5;
-5,48257928234076E-5;
-3,25075195049449E-5;
-2,47828315690304E-5;
-2,50399876900818E-5;
-1,93723285692798E-5;
1,65331219621899E-7;
2,82949962555055E-5;
5,10490177801091E-5;
5,7814830349851E-5;
5,0354538543502E-5;
4,09779738404299E-5;
4,13519477299136E-5;
5,14854330134871E-5;
5,84851628012564E-5;
4,66451007225085E-5;
1,09479100652626E-5;
-3,70327607737268E-5;
-7,59357329417876E-5;
-8,91061409962088E-5;
-7,56385930699428E-5;
-4,96258891865549E-5;
-2,86481765270754E-5;
-2,08709138417221E-5;
-2,07594424507969E-5;
-1,60675200550985E-5;
4,09951283646035E-7;
2,43278155137829E-5;
4,36957266744841E-5;
4,94250516577402E-5;
4,32089299636989E-5;
3,5843540268468E-5;
3,73397876150808E-5;
4,728252472025E-5;
5,38956437974562E-5;
4,31238924866746E-5;
1,06469220510652E-5;
-3,29499434745217E-5;
-6,83387875957635E-5;
-8,04403029401543E-5;
-6,83170133765258E-5;
-4,45478716958255E-5;
-2,49973846327203E-5;
-1,72890792524636E-5;
-1,68705372131058E-5;
-1,30630051711856E-5;
6,14730317866831E-7;
2,066125494027E-5;
3,69148527188857E-5;
4,16939992212246E-5;
3,66096682368088E-5;
3,10350570874868E-5;
3,34504758473992E-5;
4,30919112123654E-5;
4,92884280758099E-5;
3,95690991326972E-5;
1,02585042055851E-5;
-2,90391122533073E-5;
-6,09773340171659E-5;
-7,20130241927093E-5;
-6,11942762181154E-5;
-3,96499652763178E-5;
-2,15786533666653E-5;
-1,40401918089635E-5;
-1,3370725059377E-5;
-1,035852261345E-5;
7,77705710039051E-7;
1,72934439309106E-5;
3,07047133082373E-5;
3,46190353628517E-5;
3,05554561363362E-5;
2,65607105563872E-5;
2,97115084173114E-5;
3,89629564271134E-5;
4,47232864101031E-5;
3,60274659002717E-5;
9,79226812321547E-6;
-2,53387637531193E-5;
-5,39287448098324E-5;
-6,39156925143205E-5;
-5,43484652627052E-5;
-3,49803683428294E-5;
-1,84097511854054E-5;
-1,11226668537402E-5;
-1,02524949693676E-5;
-7,94920430126501E-6;
8,98711503786932E-7;
1,42199291722166E-5;
2,5057638700211E-5;
2,8191003573181E-5;
2,50403740444867E-5;
2,2426035916911E-5;
2,61476647828279E-5;
3,49404131850627E-5;
4,02543214267146E-5;
