9,17699713226017E-7;
1,91519602882525E-6;
2,26120068260657E-6;
1,91161716910911E-6;
1,19553678951448E-6;
5,54840229403848E-7;
2,36925806626739E-7;
1,71909060073779E-7;
1,06661683505202E-7;
-1,39294094130943E-7;
-5,17934381919657E-7;
-8,19382062284199E-7;
-8,8673593919457E-7;
-7,78043285815435E-7;
-7,23367053099635E-7;
-9,06605453308536E-7;
-1,26097509999964E-6;
-1,46696351193652E-6;
-1,17824895388528E-6;
-3,07896321881119E-7;
8,54888328831304E-7;
1,80280143450263E-6;
2,1351182383176E-6;
1,80927385769891E-6;
1,13590173024889E-6;
5,3257162975521E-7;
2,33263694364842E-7;
1,72258965188202E-7;
1,10720197494612E-7;
-1,21706026558619E-7;
-4,7979811457008E-7;
-7,65623056356838E-7;
-8,31126897348366E-7;
-7,30819879535503E-7;
-6,8132304899835E-7;
-8,55870259958762E-7;
-1,19174702197052E-6;
-1,3883317446214E-6;
-1,11959448335554E-6;
-3,03228643842331E-7;
7,89539106678884E-7;
1,68234379610701E-6;
1,99854942278357E-6;
1,69744162360348E-6;
1,0696757957532E-6;
5,06425966649717E-7;
2,27062633664291E-7;
1,70321699118203E-7;
1,127916477255E-7;
-1,04951634108801E-7;
-4,40689725639586E-7;
-7,09349009843227E-7;
-7,72417269232354E-7;
-6,80640989849077E-7;
-6,36253391569191E-7;
-8,01072182369056E-7;
-1,1167032330626E-6;
-1,30267571114747E-6;
-1,05463719807261E-6;
-2,95315259039094E-7;
7,23058408995865E-7;
1,55691171121387E-6;
1,85519175063961E-6;
1,57927770797668E-6;
9,98871106936732E-7;
4,77382756800701E-7;
2,18791260829473E-7;
1,6646244358343E-7;
1,13130451243456E-7;
-8,91735700219371E-8;
-4,01362973653814E-7;
-6,5180920770981E-7;
-7,11975379298373E-7;
-6,2871799420561E-7;
-5,89304478554733E-7;
-7,43656522290946E-7;
-1,03785146104156E-6;
-1,21234019166216E-6;
-9,85296071485327E-7;
-2,84748802049526E-7;
6,566433374638E-7;
1,42916767290494E-6;
1,7082395490519E-6;
1,45752041521434E-6;
9,25240484363089E-7;
4,46308242784381E-7;
2,08876948025531E-7;
1,61016406837964E-7;
1,11982538933289E-7;
-7,44713534426792E-8;
-3,62451801909862E-7;
-5,94062188811867E-7;
-6,50972466736012E-7;
-5,76095714141062E-7;
-5,41460614302951E-7;
-6,8487198610569E-7;
-9,56933306284539E-7;
-1,11936282342434E-6;
-9,13247733130009E-7;
-2,72067457993849E-7;
5,91283816240477E-7;
1,30136310945583E-6;
1,56041617600931E-6;
1,33450962285704E-6;
8,50291005515761E-7;
4,13958089164436E-7;
1,97701595845108E-7;
1,54291254601494E-7;
1,09573670960552E-7;
-6,09155267864741E-8;
-3,24478926574239E-7;
-5,37000473472756E-7;
-5,90397567189392E-7;
-5,23655791985616E-7;
-4,93559125254352E-7;
-6,25782505402571E-7;
-8,75437767532846E-7;
-1,0254873338821E-6;
-8,39932007256273E-7;
-2,57753258760538E-7;
5,27796107238057E-7;
1,17538794043468E-6;
1,41401611310475E-6;
1,21222808710616E-6;
7,75308024957708E-7;
3,80985696260203E-7;
1,85606084244753E-7;
1,4656399865881E-7;
1,06116075591575E-7;
-4,85412658486043E-8;
-2,87864354953959E-7;
-4,81355499119882E-7;
-5,310683330855E-7;
-4,72133506302112E-7;
-4,4630274963224E-7;
-5,6728419717194E-7;
-7,9462121014143E-7;
-9,32193645794348E-7;
-7,6658095787183E-7;
-2,4223831471841E-7;
4,66829293195573E-7;
1,05279034643247E-6;
1,27093498888645E-6;
1,09232118560356E-6;
7,01367447576748E-7;
3,47950444987849E-7;
1,72892495986917E-7;
1,38084871405817E-7;
1,01804303466227E-7;
-3,73627730825294E-8;
-2,52940447954255E-7;
-4,27721200334046E-7;
-4,73655055641701E-7;
-4,22130647134753E-7;
-4,00271151081487E-7;
-5,10121638479339E-7;
-7,15524511384042E-7;
-8,40709536343209E-7;
-6,9422788193726E-7;
-2,25906704356355E-7;
4,08889633520073E-7;
9,34820227765533E-7;
1,1327137798143E-6;
9,76136899293686E-7;
6,29357700460198E-7;
3,15321758591012E-7;
1,59824938638166E-7;
1,29075152853279E-7;
9,68164423838286E-8;
-2,73685218642297E-8;
-2,19957890662775E-7;
-3,76559700587752E-7;
-4,18684377001087E-7;
-3,74129522693898E-7;
-3,55927994971802E-7;
-4,54897680633004E-7;
-6,39002726509887E-7;
-7,52041036326418E-7;
-6,23726294073334E-7;
-2,09093993034316E-7;
3,54352420746288E-7;
8,22450684714062E-7;
1,00057082897802E-6;
8,64745712273078E-7;
5,59994828021603E-7;
2,83489161919101E-7;
1,46629212231598E-7;
1,19732114423446E-7;
9,13126974207351E-8;
-1,85302406076678E-8;
-1,89093524027379E-7;
-3,28224550974002E-7;
-3,66564017873129E-7;
-3,28501703517348E-7;
-3,13643087451357E-7;
-4,02092068355574E-7;
-5,65728229020011E-7;
-6,66994022319337E-7;
-5,55769534945545E-7;
-1,92091547328516E-7;
3,03478984302511E-7;
7,16413746769975E-7;
8,75435879470472E-7;
7,58979551444533E-7;
4,93843316465676E-7;
2,52770885704552E-7;
1,33502959554338E-7;
1,10227855446675E-7;
8,54398387320036E-8;
-1,08073577558398E-8;
-1,60468004428003E-7;
-2,82968021469573E-7;
-3,17594151835185E-7;
-2,85528483285491E-7;
-2,73693754172129E-7;
-3,52068912194838E-7;
-4,96223099332595E-7;
-5,86191178083209E-7;
-4,90902177481194E-7;
-1,75152112948413E-7;
2,56432036274448E-7;
6,17230554245786E-7;
7,57986206618956E-7;
6,59449286199245E-7;
4,31328589400134E-7;
2,23417248416579E-7;
1,20608986827387E-7;
1,0070936595025E-7;
7,93247738013817E-8;
-4,14530892528372E-9;
-1,34143243015816E-7;
-2,40954431137814E-7;
-2,71977081489976E-7;
-2,45400663857139E-7;
-2,36276419231602E-7;
-3,05095922442634E-7;
-4,308697056998E-7;
-5,10094698964436E-7;
-4,29539094881908E-7;
-1,58485876811544E-7;
2,13291890717218E-7;
5,25234850974759E-7;
6,48676215979658E-7;
5,66579349348814E-7;
3,72755686525972E-7;
1,95618927023367E-7;
1,0808356408618E-7;
9,13047858876197E-8;
7,30819168360185E-8;
1,51595167292496E-9;
-1,10139998572136E-7;
-2,02274069318482E-7;
-2,29835018483398E-7;
-2,08241194377891E-7;
-2,01522910240584E-7;
-2,61353630375366E-7;
-3,69929811495651E-7;
-4,39026471157198E-7;
-3,71978806414691E-7;
-1,42270163513782E-7;
1,74063263380542E-7;
4,40599466128855E-7;
5,47768088122961E-7;
4,80629715964628E-7;
3,18324370397535E-7;
1,69518265923872E-7;
9,60397293286972E-8;
8,21165791016999E-8;
6,68107922713043E-8;
6,25013076179072E-9;
-8,84371325964761E-8;
-1,66951033515757E-7;
-1,91217006364993E-7;
-1,74108795208464E-7;
-1,69501855607875E-7;
-2,20946195607625E-7;
-3,13560777885303E-7;
-3,73184177096907E-7;
-3,18420505793525E-7;
-1,26649245270624E-7;
1,38692027960901E-7;
3,63362056032924E-7;
4,55359140682905E-7;
4,01712566052499E-7;
2,68144390544787E-7;
1,45208940412148E-7;
8,45606874329664E-8;
7,32350528668156E-8;
6,05942555933614E-8;
1,01256004303952E-8;
-6,8983915834747E-8;
-1,34958679838657E-7;
-1,56111266423033E-7;
-1,43005419908909E-7;
-1,40233597227952E-7;
-1,83912995158584E-7;
-2,61826789205825E-7;
-3,12659912436838E-7;
-2,68973334571529E-7;
-1,11736383862389E-7;
1,07076025512297E-7;
2,93444732846279E-7;
3,71406218881851E-7;
3,29827511112923E-7;
2,22244525397634E-7;
1,22743600700649E-7;
7,37159261991102E-8;
6,47305768128491E-8;
5,45059128071979E-8;
1,32159740246737E-8;
-5,17052609661599E-8;
-1,06225059076406E-7;
-1,24462670930059E-7;
-1,14891661921361E-7;
-1,13692650360969E-7;
-1,50238397862951E-7;
-2,14718459259868E-7;
-2,57455151148215E-7;
-2,23672705310199E-7;
-9,76219209888581E-8;
7,90733898468005E-8;
2,30675658236418E-7;
2,95750370455119E-7;
2,64868147501676E-7;
1,80588247901534E-7;
1,02142498716251E-7;
6,3551855593394E-8;
5,66565062145051E-8;
4,8606311576471E-8;
1,560079713102E-8;
-3,65018599645976E-8;
-8,0638958251645E-8;
-9,61675359412482E-8;
-8,96897525820972E-8;
-8,98220129440632E-8;
-1,19864104716932E-7;
-1,72159021253281E-7;
-2,07496816692118E-7;
-1,82490660131132E-7;
-8,43678171833924E-8;
5,45071136648417E-8;
1,74804118367647E-7;
2,28138822288639E-7;
2,06646136873022E-7;
1,43086859507611E-7;
8,3396257132026E-8;
5,41005939850605E-8;
4,90561433019852E-8;
4,29413873168765E-8;
1,7352843736551E-8;
-2,32593191557805E-8;
-5,80624166582443E-8;
-7,10925099635065E-8;
-6,72921945877169E-8;
-6,85311187831495E-8;
-9,26882253476952E-8;
-1,34021003968619E-7;
-1,62647150989596E-7;
-1,45345360447052E-7;
-7,20204330442211E-8;
3,31825638599334E-8;
1,25522743918622E-7;
1,68244137281743E-7;
1,54908427874505E-7;
1,09603236952504E-7;
6,64726025087331E-8;
4,53788324044193E-8;
4,19559354865743E-8;
3,75528863448625E-8;
1,85446958483841E-8;
-1,18572383701411E-8;
-3,83356508878697E-8;
-4,90792502187439E-8;
-4,75687967058681E-8;
-4,9709032766871E-8;
-6,8583982352611E-8;
-1,00135614750247E-7;
-1,22719166619792E-7;
-1,12107738643396E-7;
-6,06013229183158E-8;
1,48851658872255E-8;
8,24733326418601E-8;
1,15676281361411E-7;
1,09347334797393E-7;
7,996623001E-8;
5,13156779008792E-8;
3,73920039249709E-8;
3,53756466134883E-8;
3,24699144092878E-8;
1,92476544006163E-8;
-2,16361390735317E-9;
-2,12843372176757E-8;
-2,99505851928341E-8;
-3,03710945390498E-8;
-3,32282412022258E-8;
-4,7400431096187E-8;
-7,02982359858612E-8;
-8,74879110286928E-8;
-8,26237567783994E-8;
-5,01233803409732E-8;
-6,08273334308061E-10;
4,52694011340784E-8;
7,00059854310692E-8;
6,96166744738746E-8;
5,39788112563653E-8;
3,78564594220625E-8;
3,01325948420694E-8;
2,93231073322092E-8;
2,77136470680945E-8;
1,95274790711128E-8;
5,95709270962003E-9;
-6,71955391688216E-9;
-1,3513636355404E-8;
-1,55365934282479E-8;
-1,89453623693998E-8;
-2,89682829596439E-8;
-4,42791380077841E-8;
-5,66939351623531E-8;
-5,6701879915644E-8;
-4,05787894641369E-8;
-1,35289014893344E-8;
1,34970884175549E-8;
3,07706586831378E-8;
3,53410450520058E-8;
3,14212129820454E-8;
2,60130353480046E-8;
2,35878899538088E-8;
2,37987294036129E-8;
2,32970766615017E-8;
1,94480486929684E-8;
1,26435589099097E-8;
5,55038171059722E-9;
4,2947709020032E-10;
-2,89742420071942E-9;
-6,71028855960086E-9;
-1,31068563397354E-8;
-2,18362945246202E-8;
-3,00607367174945E-8;
-3,41367705000067E-8;
-3,19529232651007E-8;
-2,41043502695422E-8;
-1,32651809603036E-8;
-2,50831260048686E-9;
6,13027425113797E-9;
1,20635011989046E-8;
1,56937189596792E-8;
1,77354890898888E-8;
1,87966633174893E-8;
1,92294305021695E-8;
1,90677810352656E-8;
1,80288549066427E-8;
1,57201383132164E-8;
1,20833438088629E-8;
7,7200550305428E-9;
3,63120023359162E-9;
3,73468783944533E-10;
-2,70918847192483E-9;
-7,29656025950409E-9;
-1,47082438133046E-8;
-2,4219082800685E-8;
-3,25627385355145E-8;
-3,54458736482074E-8;
-3,03193381204522E-8;
-1,84184890775426E-8;
-4,33748748434169E-9;
6,79844798647507E-9;
1,25461083699698E-8;
1,43016374850941E-8;
1,55113219310808E-8;
1,84418458818732E-8;
2,22482228201131E-8;
2,39835910690742E-8;
2,16506573399501E-8;
1,64929744540818E-8;
1,22396363743808E-8;
1,16646132018434E-8;
1,33656628847764E-8;
1,19022603313929E-8;
1,81527056837664E-9;
-1,73457955721861E-8;
-3,91293970351811E-8;
-5,34697269642089E-8;
-5,31487130941074E-8;
-3,87079480247733E-8;
-1,80234417035074E-8;
-7,73592599419055E-10;
7,98996993785338E-9;
1,030013060125E-8;
1,21400416777697E-8;
1,76177821734012E-8;
2,543126278485E-8;
3,05335817977023E-8;
2,93327188018142E-8;
2,35913393926787E-8;
1,92701469624102E-8;
2,09585538794536E-8;
2,66498196777106E-8;
2,78355599157519E-8;
1,56661114975968E-8;
-1,12906031770316E-8;
-4,40138276011328E-8;
-6,77515025750337E-8;
-7,14766248031826E-8;
-5,51374932094904E-8;
-2,92389730465457E-8;
-7,12892635900356E-9;
4,02783430801987E-9;
6,76629519797633E-9;
9,10902809354068E-9;
1,66407524597854E-8;
2,76972445083307E-8;
3,55530996187496E-8;
3,53247549065345E-8;
2,91852694140014E-8;
2,4880030813218E-8;
2,84459032186453E-8;
3,74045711070784E-8;
4,08034714505257E-8;
2,70768014807604E-8;
-6,01066676341955E-9;
-4,74226173711257E-8;
-7,86982114797216E-8;
-8,57739428429095E-8;
-6,80983486224803E-8;
-3,82224421673459E-8;
-1,23698106225367E-8;
6,24863005981403E-10;
3,68009670918659E-9;
6,40853723348688E-9;
1,55505845572308E-8;
2,91671281745379E-8;
3,92192307219477E-8;
3,98157672045612E-8;
3,34404534697039E-8;
2,92154197349382E-8;
3,43117234967743E-8;
4,58886861735496E-8;
5,11008593259262E-8;
3,62803187041455E-8;
-1,45618582998455E-9;
-4,95480140545729E-8;
-8,66915392314579E-8;
-9,64879226491463E-8;
-7,79674418539434E-8;
-4,52050836938997E-8;
-1,66030224381396E-8;
-2,26127918663966E-9;
1,0138096045747E-9;
4,02286699831797E-9;
1,43835460522012E-8;
2,99495001553632E-8;
4,17000312660137E-8;
4,29875663663442E-8;
3,65128104710156E-8;
3,24231103431828E-8;
3,87350373748367E-8;
5,23436513457461E-8;
5,90118388437021E-8;
4,35007613952128E-8;
2,42143278382203E-9;
-5,05686207106859E-8;
-9,21016772974814E-8;
-1,04050412946838E-7;
-8,5103424563585E-8;
-5,04128529915401E-8;
-1,99306915713147E-8;
-4,67183195822336E-9;
-1,26205340580333E-9;
1,93913650254574E-9;
1,31703246394981E-8;
3,01449688380687E-8;
4,31534832750261E-8;
4,50056763422611E-8;
3,85486781763116E-8;
3,46397690259963E-8;
4,18837167454623E-8;
5,70084497632623E-8;
6,48098064200562E-8;
4,89521379165243E-8;
5,67405657069201E-9;
-5,06545969800053E-8;
-9,52702033314102E-8;
-1,08861759028773E-7;
-8,98496065617783E-8;
-5,4056344199055E-8;
-2,24464332885784E-8;
-6,64701010438398E-9;
-3,17610744186616E-9;
1,38956955530917E-10;
1,19363549614894E-8;
2,98497529229551E-8;
4,37274368858631E-8;
4,6032152029683E-8;
3,96903767189578E-8;
3,5993250924968E-8;
4,39212214412808E-8;
6,01047809895059E-8;
6,87513786062363E-8;
5,2843475027712E-8;
8,35443905840766E-9;
-4,99572923877643E-8;
-9,65185205837234E-8;
-1,11302844102654E-7;
-9,25234959370036E-8;
-5,63372518370572E-8;
-2,4248240134645E-8;
-8,22568484230003E-9;
-4,7564240253496E-9;
-1,39547835821806E-9;
1,0706520775261E-8;
2,91482351122321E-8;
4,355809247727E-8;
4,62122490340428E-8;
4,00640997243505E-8;
3,66063456829309E-8;
4,49976333677007E-8;
6,18410196811174E-8;
7,10803196890467E-8;
5,53682161042233E-8;
1,05135331095552E-8;
-4,8616521780094E-8;
-9,61428906662398E-8;
-1,11725869025924E-7;
-9,34261016898858E-8;
-5,74430785834447E-8;
-2,54226385412447E-8;
-9,45019438076823E-9;
-6,03383944795552E-9;
-2,6821721961439E-9;
9,49898558354673E-9;
2,81171584964372E-8;
4,2768722403761E-8;
4,56842812373166E-8;
3,97926671903943E-8;
3,65889439185213E-8;
4,5253109407559E-8;
6,2413957799497E-8;
7,20253771833402E-8;
5,67125735513748E-8;
1,22037737201937E-8;
-4,67599484154339E-8;
-9,44152544926244E-8;
-1,1045149631631E-7;
-9,28307300424034E-8;
-5,75487040656286E-8;
-2,60540303929058E-8;
-1,0356662023288E-8;
-7,03579384513382E-9;
-3,74391942866235E-9;
8,3284828234499E-9;
2,68294472794469E-8;
4,14743822655858E-8;
4,45710618342804E-8;
3,89832993955589E-8;
3,60419003903182E-8;
4,48161919670102E-8;
6,20027768306066E-8;
7,17933543460653E-8;
5,70437723703761E-8;
1,34721918296029E-8;
-4,45016720818128E-8;
-9,15825283352276E-8;
-1,07779047162412E-7;
-9,09919045641367E-8;
-5,68136034103526E-8;
-2,62206723736107E-8;
-1,09827648763499E-8;
-7,79137668457237E-9;
-4,5972589139787E-9;
7,2098877202854E-9;
2,53446264195148E-8;
3,97756858857597E-8;
4,29829481668106E-8;
3,77350443532437E-8;
3,50634671767871E-8;
4,38069786018554E-8;
6,07708992989116E-8;
7,05791289420736E-8;
5,65213382077574E-8;
1,43670762844472E-8;
-4,19413391867354E-8;
-8,78670413084259E-8;
-1,03971957551181E-7;
-8,81351743903227E-8;
-5,53835650925995E-8;
-2,59922518094798E-8;
-1,1363420170368E-8;
-8,32905744214958E-9;
-5,26311618417756E-9;
6,15134164970297E-9;
2,37198795968609E-8;
3,77659686707065E-8;
4,10238161498318E-8;
3,61410503453883E-8;
3,37351368250951E-8;
4,23315839971538E-8;
5,88711925860573E-8;
6,85577759298975E-8;
5,52875927941264E-8;
1,49330999713255E-8;
-3,91670131826734E-8;
-8,34688957975101E-8;
-9,92734733801358E-8;
-8,44686999451374E-8;
-5,33921990780622E-8;
-2,54367587563297E-8;
-1,15310225445518E-8;
-8,67289514941742E-9;
-5,76086636985202E-9;
5,15968329184738E-9;
2,20016990999809E-8;
3,55253644371985E-8;
3,87820290205747E-8;
3,42770370168616E-8;
3,21333017593732E-8;
4,0487473030865E-8;
5,64361580497712E-8;
6,58874164490801E-8;
5,3475115128892E-8;
1,52145599184966E-8;
-3,62558636053638E-8;
-7,85627285570845E-8;
-9,38951401619078E-8;
-8,01772356226879E-8;
-5,09581225095625E-8;
-2,46121798446482E-8;
-1,15156141551856E-8;
-8,84891929035675E-9;
-6,10835934352519E-9;
4,24081603494687E-9;
2,02328958687679E-8;
3,3126208621273E-8;
3,63357376810431E-8;
3,22172144934567E-8;
3,03260973406344E-8;
3,83574700863708E-8;
5,35886861288845E-8;
6,27122849484988E-8;
5,12024271410464E-8;
1,5249766195749E-8;
-3,32787272488131E-8;
-7,33061521503937E-8;
-8,8027371595054E-8;
-7,54258574717964E-8;
-4,81887440416135E-8;
-2,35757789950098E-8;
-1,13475443219663E-8;
-8,87834034664502E-9;
-6,32265129645389E-9;
3,39880385716683E-9;
1,84479463390454E-8;
3,06278689881454E-8;
3,37566047682467E-8;
3,0021904962986E-8;
2,83737562390043E-8;
3,6023961004853E-8;
5,04345482409754E-8;
5,91577956263619E-8;
4,85734801749115E-8;
1,50747255918738E-8;
-3,02865325318332E-8;
-6,78339224923995E-8;
-8,18370382467845E-8;
-7,03558036939321E-8;
-4,51780249273863E-8;
-2,23737187845989E-8;
-1,1051807441398E-8;
-8,78633628072475E-9;
-6,42122541355607E-9;
2,63201521118253E-9;
1,66763112280095E-8;
2,80862263421347E-8;
3,11020135805217E-8;
2,77466469385565E-8;
2,63265478347334E-8;
3,35506560017958E-8;
4,70722001358893E-8;
5,53345628809355E-8;
4,56835893730589E-8;
1,47273790888219E-8;
-2,7329533469983E-8;
-6,22596155536469E-8;
-7,54647184557895E-8;
-6,50934965249035E-8;
-4,20062819222341E-8;
-2,10493353401771E-8;
-1,06516439761084E-8;
-8,59006717676971E-9;
-6,41926425542058E-9;
1,94445883357718E-9;
1,49436201153606E-8;
2,55442362557491E-8;
2,84240045442447E-8;
2,54366909301741E-8;
2,42308300467012E-8;
3,099434602749E-8;
4,35797881364297E-8;
5,13441753500975E-8;
4,26152421493912E-8;
1,42352020910595E-8;
-2,44462091283586E-8;
-5,66831202496167E-8;
-6,90331628366948E-8;
-5,97462629692204E-8;
-3,87472347042714E-8;
-1,96409437283793E-8;
-1,0168000054725E-8;
-8,30825208749072E-9;
-6,33384819326799E-9;
1,33183878136027E-9;
1,32687699649031E-8;
2,30397073008914E-8;
2,57671530508617E-8;
2,31320407855003E-8;
2,21248279242707E-8;
2,84076867318601E-8;
4,00284765497525E-8;
4,72661210066593E-8;
3,9439567326305E-8;
1,36290276757234E-8;
-2,16687844233158E-8;
-5,11870508853789E-8;
-6,26453613669125E-8;
-5,44042783083163E-8;
-3,54603187366793E-8;
-1,81817922258695E-8;
-9,62125703267263E-9;
-7,95934665871277E-9;
-6,17825779166614E-9;
7,93058600793766E-10;
1,16688627552688E-8;
2,0604900455581E-8;
2,31661837158414E-8;
2,08656551070741E-8;
2,00401628928808E-8;
2,58315505063444E-8;
3,64797025611381E-8;
4,31741187654996E-8;
3,6218184455453E-8;
1,29330151603774E-8;
-1,90214277172092E-8;
-4,5840757918276E-8;
-5,63905810859059E-8;
-4,91436348823875E-8;
-3,21966293443061E-8;
-1,67017575338775E-8;
-9,0294128364641E-9;
-7,55684178922631E-9;
-5,96247839065743E-9;
3,26223327702629E-10;
1,0156240227923E-8;
1,82655313902715E-8;
2,06502031889757E-8;
1,86630018944444E-8;
1,80034325972774E-8;
2,33016843776859E-8;
3,29833629246961E-8;
3,91277896694818E-8;
3,30040271627634E-8;
1,21710393004972E-8;
-1,65225004110241E-8;
-4,06935050431398E-8;
-5,03329573662298E-8;
-4,40294165722435E-8;
-2,90007921282721E-8;
-1,52220641651832E-8;
-8,4054689026582E-9;
-7,11353827417595E-9;
-5,69979749786019E-9;
-7,50719047486772E-11;
8,73731142522106E-9;
1,60375171338726E-8;
1,82419575784295E-8;
1,6548972869784E-8;
1,60386998539749E-8;
2,08467805928397E-8;
2,95815440250749E-8;
3,51789535550624E-8;
2,98405484444864E-8;
1,13631495802552E-8;
-1,41870271315034E-8;
-3,57930892996455E-8;
-4,45311525762502E-8;
-3,91107799455066E-8;
-2,59064834935258E-8;
-1,37651394947995E-8;
-7,76457198458671E-9;
-6,64241025524211E-9;
-5,4014619568206E-9;
-4,13276710132334E-10;
7,42069276547746E-9;
1,39384586720946E-8;
1,5960573371047E-8;
1,4535527217284E-8;
1,41578783827891E-8;
1,84903892070863E-8;
2,63061489034667E-8;
3,13660430429708E-8;
2,67645188441434E-8;
1,0526425932082E-8;
-1,20196796203831E-8;
-3,11682798347107E-8;
-3,90292804307352E-8;
-3,44259221779399E-8;
-2,29414911478508E-8;
-1,23471708886577E-8;
-7,11670633423554E-9;
-6,15418116507362E-9;
-5,07594918522074E-9;
-6,9327495942763E-10;
6,20830362501821E-9;
1,19762930277727E-8;
1,38169791763356E-8;
1,26405773028791E-8;
1,23799832992236E-8;
1,62487912974932E-8;
2,31834028643742E-8;
2,7722698208314E-8;
2,38056454708836E-8;
9,67763789964865E-9;
-1,0029341161916E-8;
-2,68435995693369E-8;
-3,38559387647481E-8;
-3,00047505648551E-8;
-2,01266504927711E-8;
-1,09820338925919E-8;
-6,47379362896611E-9;
-5,65865691940613E-9;
-4,73131680960404E-9;
-9,19563839234714E-10;
5,10130589394722E-9;
1,01587348678694E-8;
1,1819741121002E-8;
1,08686102420948E-8;
1,07108637466394E-8;
1,4137432352046E-8;
2,02353593229871E-8;
2,42714854166469E-8;
2,09857972937048E-8;
8,82939882981358E-9;
-8,21691728736438E-9;
-2,28326636559005E-8;
-2,90349589091758E-8;
-2,58693090749873E-8;
-1,74787083663522E-8;
-9,68163101121838E-9;
-5,84135252224996E-9;
-5,16238377783605E-9;
-4,37637000681458E-9;
-1,09641211529565E-9;
4,0989251471615E-9;
8,48941364543623E-9;
9,9780700681048E-9;
9,22713585855942E-9;
9,15739371685339E-9;
1,21646074034154E-8;
1,74740664856946E-8;
2,10331684410926E-8;
1,83232796358415E-8;
7,99398003911836E-9;
-6,57762009302864E-9;
-1,91437640295585E-8;
-2,45767559064928E-8;
-2,20324790638163E-8;
-1,50102726423546E-8;
-8,45222346712343E-9;
-5,22823752273403E-9;
-4,67285922879049E-9;
-4,01683260924186E-9;
-1,2304054501429E-9;
3,19997275717015E-9;
6,96712751197126E-9;
8,28926302004261E-9;
7,71802207302647E-9;
7,72367501445103E-9;
1,03377432314199E-8;
1,49103287869431E-8;
1,80180351932877E-8;
1,58296399391452E-8;
7,17921135345101E-9;
-5,10811418665119E-9;
-1,57770193874882E-8;
-2,04892236672269E-8;
-1,8500049852271E-8;
-1,27253156714125E-8;
-7,30031653323389E-9;
-4,63835510314554E-9;
-4,19426423599788E-9;
-3,65596921889333E-9;
-1,32529662918853E-9;
2,40026735518613E-9;
5,59263488646775E-9;
6,75560543971843E-9;
6,34312834206858E-9;
6,41023221758327E-9;
8,65609858737638E-9;
1,25473182802393E-8;
1,52325193285407E-8;
1,35136262703187E-8;
6,39393965414213E-9;
-3,80651011566496E-9;
-1,27302763514722E-8;
-1,67691763932533E-8;
-1,52760564198809E-8;
-1,06279895073849E-8;
-6,23006375396633E-9;
-4,07808606034476E-9;
-3,73418954236327E-9;
-3,3027214140134E-9;
-1,38482261731773E-9;
1,69638040492935E-9;
4,3598144170228E-9;
5,37333688425417E-9;
5,0996265098037E-9;
5,21843352899419E-9;
7,12347136297466E-9;
1,03860048304618E-8;
1,26794520803952E-8;
1,13783321220172E-8;
5,643626946813E-9;
-2,66000964535954E-9;
-9,9961867132064E-9;
-1,34133418529776E-8;
-1,23547325720246E-8;
-8,7172796919028E-9;
-5,24221973699554E-9;
-3,54853812089778E-9;
-3,29342217196391E-9;
-2,95744297827863E-9;
-1,41438303426112E-9;
1,08297923704971E-9;
3,26583971585254E-9;
4,1390319698365E-9;
3,98529779026382E-9;
4,14505270724203E-9;
5,73716506967665E-9;
8,42778473201721E-9;
1,03584513852269E-8;
9,42396387172503E-9;
4,93154226854773E-9;
-1,66380481203125E-9;
-7,56209542451079E-9;
-1,04090797486032E-8;
-9,73036642057142E-9;
-6,99075569631549E-9;
-4,33869198559436E-9;
-3,05243478645902E-9;
-2,87520890624428E-9;
-2,62483755706972E-9;
-1,41751532337629E-9;
5,54429024058016E-10;
2,30195294707389E-9;
3,04489822010468E-9;
2,99291036315823E-9;
3,18510372752807E-9;
4,49277209953153E-9;
6,66362324212946E-9;
8,26501996036816E-9;
7,65273037739038E-9;
4,26404766129392E-9;
-8,05944549764342E-10;
-5,41662251043121E-9;
-7,74361676542034E-9;
-7,39035979352493E-9;
-5,44291201006601E-9;
-3,5178491542758E-9;
-2,59079833538796E-9;
-2,4833901109555E-9;
-2,30877421024934E-9;
-1,39917257825392E-9;
1,05217219593404E-10;
1,46370600643383E-9;
2,08542350736864E-9;
2,11938530298751E-9;
2,33512107137666E-9;
3,38471537027406E-9;
5,09018711969058E-9;
6,39070450001673E-9;
6,05607863201912E-9;
3,6410859474464E-9;
-7,78062060602198E-11;
-3,54216362587368E-9;
-5,40182008026028E-9;
-5,32680808322388E-9;
-4,06835668033928E-9;
-2,77958270970866E-9;
-2,16698686670991E-9;
-2,1169856961946E-9;
-2,00733907300104E-9;
-1,36195691252027E-9;
-2,72309843145936E-10;
7,40618103057637E-10;
1,25290584265511E-9;
1,35741598393067E-9;
1,58940159483964E-9;
2,40830001754058E-9;
3,69825475119267E-9;
4,7272341871089E-9;
4,62938452644946E-9;
3,06542345264155E-9;
5,30840236336035E-10;
-1,92380828620974E-9;
-3,3613050268672E-9;
-3,52028063877026E-9;
-2,85804519923872E-9;
-2,11962100560301E-9;
-1,77983031163129E-9;
-1,77965623207696E-9;
-1,72562531460785E-9;
-1,30996328890034E-9;
-5,83386186493338E-10;
1,25140302592999E-10;
5,37565869543447E-10;
7,00656145995036E-10;
9,4280464941273E-10;
1,55468702013001E-9;
2,47854470588701E-9;
3,26606593063162E-9;
3,36805131316925E-9;
2,53726419892717E-9;
1,03159422360944E-9;
-5,40724197670417E-10;
-1,60661167630805E-9;
-1,9563340076007E-9;
-1,80069300821246E-9;
-1,53602639778174E-9;
-1,42824245025061E-9;
-1,46908294246424E-9;
-1,46390323644937E-9;
-1,24596169483531E-9;
-8,33531156802321E-10;
-3,91707059957778E-10;
-6,86561255083398E-11;
1,40426535739386E-10;
3,8679465266664E-10;
8,17475414927902E-10;
1,42118141037822E-9;
1,99421283190031E-9;
2,26083053222088E-9;
2,05642057212395E-9;
1,4333789201781E-9;
6,22807236294925E-10;
-1,13596925933211E-10;
-6,19252473651444E-10;
-8,89918759567732E-10;
-1,02265534265788E-9;
-1,11106198947802E-9;
-1,18605886690415E-9;
-1,22136729165E-9;
-1,17361172845562E-9;
-1,03040443303923E-9;
-8,17272314352779E-10;
-5,74295355054606E-10;
-3,30599688513756E-10;
-8,49784344996289E-11;
1,87410303368643E-10;
5,13678442883012E-10;
8,97721592014344E-10;
1,29845999812495E-9;
1,62265856503556E-9;
1,7480089194581E-9;
1,58553613212965E-9;
1,13644706883465E-9;
5,09806393632685E-10;
-1,14185392129436E-10;
-5,77212901748399E-10;
-8,2816761637363E-10;
-9,31511294142176E-10;
-9,99448258074454E-10;
-1,09452933466346E-9;
-1,17892929230928E-9;
-1,1603003812336E-9;
-9,8895445533236E-10;
-7,19527329433386E-10;
-4,76972998542084E-10;
-3,42308490650555E-10;
-2,53843370122711E-10;
-3,30353459617422E-11;
4,72057069015419E-10;
1,23219580113528E-9;
1,98419097499953E-9;
2,3686576629945E-9;
2,1659991395605E-9;
1,44703816733222E-9;
5,38616110376356E-10;
-1,94266958445379E-10;
-5,78032989344419E-10;
-7,02503523317962E-10;
-7,9852185787001E-10;
-1,01207545118346E-9;
-1,28470498817439E-9;
-1,43004583102564E-9;
-1,32096967773937E-9;
-1,03442491413599E-9;
-7,9962164007369E-10;
-7,81583503108758E-10;
-8,94546645907563E-10;
-8,15208729420291E-10;
-2,27607901524786E-10;
8,85823220897759E-10;
2,14922256543227E-9;
2,98728668251649E-9;
2,99618315655977E-9;
2,21260640886643E-9;
1,0784024464785E-9;
1,29601749951057E-10;
-3,59225048628503E-10;
-4,99818830089412E-10;
-6,15728290045179E-10;
-9,24846765084964E-10;
-1,35324519266983E-9;
-1,63388987578445E-9;
-1,57851205176051E-9;
-1,28312680366221E-9;
-1,05887824544502E-9;
-1,13810712354274E-9;
-1,41698698950655E-9;
-1,45864928108455E-9;
-8,12172787148353E-10;
5,82479110761294E-10;
2,2557217018459E-9;
3,46079765659337E-9;
3,64668995227474E-9;
2,81917873916403E-9;
1,51352945310083E-9;
3,99405751993049E-10;
-1,69680524419684E-10;
-3,21560940842016E-10;
-4,53054130969301E-10;
-8,38259267156856E-10;
-1,39064766276244E-9;
-1,78017997217435E-9;
-1,7717512485704E-9;
-1,47224724292646E-9;
-1,25927443157649E-9;
-1,42251238624008E-9;
-1,83684124751778E-9;
-1,97683652783561E-9;
-1,29187649579054E-9;
3,17081196223186E-10;
2,31065747556979E-9;
3,80629676726315E-9;
4,13893787824369E-9;
3,28850144487674E-9;
1,85933018230174E-9;
6,21617718590023E-10;
-7,42934040557348E-12;
-1,65915443181577E-10;
-3,09362959531028E-10;
-7,51855072235771E-10;
-1,39952283425497E-9;
-1,87612464532866E-9;
-1,90662739884033E-9;
-1,6095709408491E-9;
-1,40981956049719E-9;
-1,63788033719323E-9;
-2,16123953062959E-9;
-2,38397447835098E-9;
-1,67623181377472E-9;
8,76027815255733E-11;
2,32126771058611E-9;
4,0390945577826E-9;
4,48913878167157E-9;
3,63298343913711E-9;
2,1206011440183E-9;
7,99072576559717E-10;
1,30507289108408E-10;
-3,23662846715533E-11;
-1,83109420521276E-10;
-6,68055948514782E-10;
-1,38597495448752E-9;
-1,92743044462346E-9;
-1,99162183346708E-9;
-1,70030912869958E-9;
-1,51392626841778E-9;
-1,79584495701854E-9;
-2,40307011893229E-9;
-2,69070334269964E-9;
-1,97530050298873E-9;
-1,071767151007E-10;
2,29469085784383E-9;
4,17444027357624E-9;
4,71780643973386E-9;
3,8690743104744E-9;
2,31031552367194E-9;
9,36901227953983E-10;
2,44732402199992E-10;
8,15562466299764E-11;
-7,3605933574113E-11;
-5,86343160930424E-10;
-1,35396512108681E-9;
-1,9425529699726E-9;
-2,03298544420993E-9;
-1,75161842573799E-9;
-1,58060336298196E-9;
-1,90246354914059E-9;
-2,57033975659021E-9;
-2,91072007352759E-9;
-2,19959980668422E-9;
-2,69614390913553E-10;
2,2385047056264E-9;
4,22625026313266E-9;
4,84108903625425E-9;
4,0112604365162E-9;
2,43506453051569E-9;
1,03969128548861E-9;
3,37535009267881E-10;
1,75740999067093E-10;
2,03074617078217E-11;
-5,08740331158963E-10;
-1,30660680480237E-9;
-1,92624777923404E-9;
-2,03819136780856E-9;
-1,7694018707931E-9;
-1,61290586480402E-9;
-1,96320959990108E-9;
-2,6738657480815E-9;
-3,05314295761845E-9;
-2,35539628545678E-9;
-4,04095622098849E-10;
2,15626856180106E-9;
4,20724055953775E-9;
4,87262335450018E-9;
4,07132941942651E-9;
2,50518720562213E-9;
1,1114528777958E-9;
4,11498398783296E-10;
2,5479040200018E-10;
1,00424446726715E-10;
-4,34987200294269E-10;
-1,24579673428541E-9;
-1,88447824558314E-9;
-2,01223841861581E-9;
-1,75618055517389E-9;
-1,61678145039448E-9;
-1,98738399647468E-9;
-2,72284402770343E-9;
-3,1303188161994E-9;
-2,45430457453885E-9;
-5,12357127584738E-10;
2,05422042705517E-9;
4,12951646595336E-9;
4,82869055559913E-9;
4,06266612715539E-9;
2,52825110968536E-9;
1,15644365248986E-9;
4,68137043048782E-10;
3,16457154759781E-10;
1,6648036415814E-10;
-3,66575138348536E-10;
-1,17764419549487E-9;
-1,82036898803142E-9;
-1,96121915843609E-9;
-1,72129920328421E-9;
-1,59602683063482E-9;
-1,97810951405209E-9;
-2,72487494066768E-9;
-3,15010516446011E-9;
-2,5026891994293E-9;
-5,97352160672094E-10;
1,93850631807187E-9;
4,00298275002321E-9;
4,72036418741983E-9;
3,99766396706204E-9;
2,51178361261386E-9;
1,17700514470601E-9;
5,09764898091693E-10;
3,65331866400248E-10;
2,19697878953195E-10;
-3,01411503956512E-10;
-1,10146052935737E-9;
-1,74084183837903E-9;
-1,88851246117386E-9;
-1,66651654188128E-9;
-1,55573931628062E-9;
-1,94294355478133E-9;
-2,68905042990967E-9;
-3,12063323592831E-9;
-2,50690483589012E-9;
-6,60177552630878E-10;
1,81300875995256E-9;
3,83847711603121E-9;
4,56149558419818E-9;
3,88458313117769E-9;
2,46153492088187E-9;
1,17846180665279E-9;
5,37548870530642E-10;
4,01779013983939E-10;
2,62319095291903E-10;
-2,4347510795445E-10;
-1,02186619433645E-9;
-1,64835979359852E-9;
-1,80058796455172E-9;
-1,59619744059715E-9;
-1,49945635559727E-9;
-1,88383035350016E-9;
-2,61871385340236E-9;
-3,05294428514044E-9;
-2,4768541328232E-9;
-7,04873684836923E-10;
1,68114378111641E-9;
3,64549124287445E-9;
4,36271352297817E-9;
3,73353805257804E-9;
2,38302048382185E-9;
1,16234796096752E-9;
5,53601191297781E-10;
4,26870422156497E-10;
2,95280163597251E-10;
-1,90275135809865E-10;
-9,38907473485625E-10;
-1,54518945326537E-9;
-1,70118967756202E-9;
-1,51365894798477E-9;
-1,42988072149816E-9;
-1,80951532396973E-9;
-2,5232758226139E-9;
-2,95166075640963E-9;
-2,41605144349496E-9;
-7,33135293214341E-10;
1,54455931161593E-9;
3,42959924585823E-9;
4,13278501160518E-9;
3,55424386698903E-9;
2,28502968983615E-9;
1,13388647259047E-9;
5,60039527539474E-10;
4,42748665046183E-10;
3,19446095989325E-10;
-1,4242851335527E-10;
-8,55802893430568E-10;
-1,43586454324929E-9;
-1,59126335199866E-9;
-1,42300546398305E-9;
-1,35174470684723E-9;
-1,71914209516448E-9;
-2,40656921056005E-9;
-2,82555678733647E-9;
-2,33101815404282E-9;
-7,47231924314836E-10;
1,40743198805896E-9;
3,19913921388768E-9;
3,87918676934258E-9;
3,35214655565206E-9;
2,16954843026466E-9;
1,09269939599487E-9;
5,5743439868074E-10;
4,48635633440014E-10;
3,34429079391138E-10;
-9,91466310914663E-11;
-7,73871860582864E-10;
-1,32504110983051E-9;
-1,4777651206486E-9;
-1,32655362120795E-9;
-1,26654295766833E-9;
-1,61940860483728E-9;
-2,27443147406685E-9;
-2,67933446590052E-9;
-2,22617949053241E-9;
-7,48019352236275E-10;
1,27041321924854E-9;
2,95776464641183E-9;
3,61102788769078E-9;
3,13324391574427E-9;
2,04102753694454E-9;
1,04396965204112E-9;
5,46793067144597E-10;
4,4905738489731E-10;
3,44390656092253E-10;
-6,18290675278463E-11;
-6,92713441567755E-10;
-1,21137615558418E-9;
-1,36007411877899E-9;
-1,22565035097195E-9;
-1,17660604456425E-9;
-1,51209221498074E-9;
-2,13116472206893E-9;
-2,51861472851534E-9;
-2,10745190498672E-9;
-7,39465893893996E-10;
1,13795902380622E-9;
2,71408094402662E-9;
3,33485263443293E-9;
2,90638720392145E-9;
1,90420671409169E-9;
9,8795581734209E-10;
5,32214120097952E-10;
4,42404189107545E-10;
3,4617610146094E-10;
-2,92744325400097E-11;
-6,14944157957111E-10;
-1,0982814247181E-9;
-1,24142654753023E-9;
-1,12321528914228E-9;
-1,0839466994919E-9;
-1,40046699885495E-9;
-1,98038977458073E-9;
-2,34835781169333E-9;
-1,97809137006708E-9;
-7,22377261029491E-10;
1,00927974927481E-9;
2,46997508347897E-9;
3,05397817549719E-9;
2,67303707636708E-9;
1,76194925733923E-9;
9,26550457228061E-10;
5,11684406660651E-10;
4,31341806961213E-10;
3,43947252574312E-10;
-1,17667216566492E-12;
-5,40845802648945E-10;
-9,88044555463409E-10;
-1,12451174018803E-9;
-1,02129924756376E-9;
-9,90063470935427E-10;
-1,28721248052654E-9;
-1,82594158397943E-9;
-2,1712956217831E-9;
-1,84175921416704E-9;
-6,97310787270666E-10;
8,87118700271581E-10;
2,22910695478984E-9;
2,77434388218514E-9;
2,43921283726997E-9;
1,61867910326584E-9;
8,61643011858207E-10;
4,86320171799384E-10;
4,16627089999863E-10;
3,37792264467341E-10;
2,34316059056953E-11;
-4,69206111905782E-10;
-8,81303570409766E-10;
-1,01044508229838E-9;
-9,21764782631022E-10;
-8,99769722259095E-10;
-1,17375173783048E-9;
-1,6696141968756E-9;
-1,99277287337548E-9;
-1,70104138722795E-9;
-6,67408362707619E-10;
7,71206479958934E-10;
1,99559722925909E-9;
2,50063631275088E-9;
2,208591024448E-9;
1,47430792547175E-9;
7,95224257946596E-10;
4,59108233121621E-10;
3,97398820500602E-10;
3,26989412659978E-10;
4,31319229325823E-11;
-4,03626575615281E-10;
-7,78312005587429E-10;
-8,9923322039354E-10;
-8,24286709090415E-10;
-8,07521924276763E-10;
-1,06119042166785E-9;
-1,51544979253864E-9;
-1,81317454872936E-9;
-1,55882417155664E-9;
-6,31783026344862E-10;
6,63188315412671E-10;
1,76984542043855E-9;
2,23542761088696E-9;
1,98342880553065E-9;
1,33194847438623E-9;
7,281159952584E-10;
4,29916710274408E-10;
3,76298658273176E-10;
3,13893892322893E-10;
5,95474704450374E-11;
-3,42298778150422E-10;
-6,81052938438882E-10;
-7,92629524562861E-10;
-7,29982061237181E-10;
-7,20603818777538E-10;
-9,51458833334666E-10;
-1,36429328160554E-9;
-1,63853042893872E-9;
-1,41730930428905E-9;
-5,95447319436165E-10;
5,6129134783704E-10;
1,55553401580363E-9;
1,97951275979118E-9;
1,76688735859E-9;
1,19470092341574E-9;
6,61152443958593E-10;
3,99138378215217E-10;
3,5239491559828E-10;
2,98578051550878E-10;
7,3579314339854E-11;
-2,85595137239291E-10;
-5,89065874212736E-10;
-6,92014066406772E-10;
-6,41338041751807E-10;
-6,37534872717079E-10;
-8,47081443370278E-10;
-1,21802472283872E-9;
-1,46748161122874E-9;
-1,27887282627244E-9;
-5,55298541034742E-10;
4,6949110235105E-10;
1,35459822196811E-9;
1,73825553579332E-9;
1,55881971896407E-9;
1,06124228184291E-9;
5,9672715799264E-10;
3,67361787651429E-10;
3,28323590961351E-10;
2,82836478696661E-10;
8,29932534419528E-11;
-2,33991737178516E-10;
-5,0369020299919E-10;
-5,99360639169765E-10;
-5,57731965168568E-10;
-5,57137808077896E-10;
-7,47252767386169E-10;
-1,07943340904105E-9;
-1,30350476214666E-9;
-1,14386059217053E-9;
-5,13734283700957E-10;
3,8474556841956E-10;
1,16630265031882E-9;
1,5103829341542E-9;
1,36208938829801E-9;
9,35812233395781E-10;
5,33911428979262E-10;
3,35789458580555E-10;
3,03384379405003E-10;
2,6406508505385E-10;
9,00979794679939E-11;
-1,87932667683077E-10;
-4,2494992102974E-10;
-5,11108665654809E-10;
-4,79794651161292E-10;
-4,83624987354239E-10;
-6,52217263696389E-10;
-9,4537259229848E-10;
-1,1476342674551E-9;
-1,01563706686905E-9;
-4,70934895133807E-10;
3,08411511177072E-10;
9,90026690991877E-10;
1,2975859341123E-9;
1,17818612561023E-9;
8,15663160837744E-10;
4,73317836440212E-10;
3,04798010138441E-10;
2,77427098470016E-10;
2,44848434162775E-10;
9,5996408825805E-11;
-1,45231356184141E-10;
-3,53093043887138E-10;
-4,30746641632322E-10;
-4,06713846105774E-10;
-4,13597297477213E-10;
-5,62763559044551E-10;
-8,20004137343149E-10;
-9,99959073062372E-10;
-8,92438694164339E-10;
-4,2895034812661E-10;
2,40195683704191E-10;
8,2941883483165E-10;
1,10050156522317E-9;
1,00663224742147E-9;
7,0325337909559E-10;
4,15596891568082E-10;
2,74577676743226E-10;
2,5305452494072E-10;
2,25746005760416E-10;
9,80904551355298E-11;
-1,08288284649336E-10;
-2,87294587309134E-10;
-3,5655475560051E-10;
-3,39733397215036E-10;
-3,49665428853492E-10;
-4,81174284376972E-10;
-7,04599527872044E-10;
-8,62603030780862E-10;
-7,76786976384686E-10;
-3,87941790974587E-10;
1,79217692458061E-10;
6,82639531606553E-10;
9,18837892736907E-10;
8,49010084566293E-10;
5,99611298517624E-10;
3,60159574204917E-10;
2,44779342164252E-10;
2,2864364402235E-10;
2,06555431778707E-10;
9,89875980335389E-11;
-7,5695322975559E-11;
-2,28143206789351E-10;
-2,89597042542909E-10;
-2,78841369429331E-10;
-2,90346308939255E-10;
-4,04161997402196E-10;
-5,96847283360953E-10;
-7,3530198478117E-10;
-6,6890332244657E-10;
-3,48157754390789E-10;
1,25273223466947E-10;
5,50142225570179E-10;
7,54337438809529E-10;
7,04625277278212E-10;
5,04937925484846E-10;
3,09846742966213E-10;
2,15502969184162E-10;
2,03978391528003E-10;
1,87077066263918E-10;
9,82608793125904E-11;
-4,69992807629451E-11;
-1,76040712686422E-10;
-2,30006124959559E-10;
-2,23515782828344E-10;
-2,37084802151307E-10;
-3,34568567427632E-10;
-4,97361010326717E-10;
-6,16995637924815E-10;
-5,67986865445703E-10;
-3,09185414546182E-10;
7,88197599252612E-11;
4,30968547263217E-10;
6,05423138791952E-10;
5,73126349085768E-10;
4,16901219679692E-10;
2,63620161479845E-10;
1,89641620010243E-10;
1,80762007305175E-10;
1,68151841036033E-10;
9,68530696539494E-11;
-2,1965049832594E-11;
-1,28848465901578E-10;
-1,76304430404251E-10;
-1,74831502119931E-10;
-1,88799437775012E-10;
-2,7189167810433E-10;
-4,07787648792963E-10;
-5,09493112738069E-10;
-4,76476083459324E-10;
-2,72206414072268E-10;
3,86693320464863E-11;
3,24638278665202E-10;
4,7269933790462E-10;
4,55602081838314E-10;
3,37951825966664E-10;
2,20648268697016E-10;
1,64272355897704E-10;
1,59756441628989E-10;
1,50341311834548E-10;
9,24062590388335E-11;
-1,60345960474868E-12;
-8,71474530925726E-11;
-1,27948330997613E-10;
-1,30892273081098E-10;
-1,45262179389086E-10;
-2,14069238631529E-10;
-3,26510838451591E-10;
-4,12889900467064E-10;
-3,93392844860671E-10;
-2,37836930348239E-10;
4,5953043255941E-12;
2,31121613045046E-10;
3,53630044541432E-10;
3,49529968542895E-10;
2,66055154336684E-10;
1,811757650831E-10;
1,41447513782851E-10;
1,38299659530365E-10;
1,32540101651985E-10;
8,95800578543603E-11;
1,53228735610931E-11;
-5,19724636239101E-11;
-8,54741823876676E-11;
-9,22534775242087E-11;
-1,07595940158535E-10;
-1,6388877219567E-10;
-2,5366398742141E-10;
-3,2500953233448E-10;
-3,17015233159905E-10;
-2,05270834335634E-10;
-2,43983494904757E-11;
1,50306507358802E-10;
2,49970445592577E-10;
2,5625810968143E-10;
2,03157233129866E-10;
1,44670257314123E-10;
1,18415454911405E-10;
1,18921067091094E-10;
1,15247132925928E-10;
8,48619498646028E-11;
3,0512283075207E-11;
-2,17430767443553E-11;
-5,0402564386947E-11;
-5,90448089987125E-11;
-7,34279128264382E-11;
-1,18164679963328E-10;
-1,88227235579356E-10;
-2,46178907812645E-10;
-2,47979795439734E-10;
-1,7450588678625E-10;
-4,73794010084611E-11;
7,99611819206014E-11;
1,59274077082992E-10;
1,75070933261233E-10;
1,46222447549951E-10;
1,12584497368594E-10;
9,90275648468199E-11;
1,01118843980312E-10;
1,00060674427159E-10;
7,97752468999739E-11;
4,28308912476375E-11;
4,53251201410259E-12;
-1,98121212406909E-11;
-2,96152365222455E-11;
-4,44285687653005E-11;
-7,98374092844625E-11;
-1,31940499349392E-10;
-1,77607337828428E-10;
-1,87053277654926E-10;
-1,46303144875615E-10;
-6,68667173626294E-11;
1,9320242260689E-11;
8,02245645556092E-11;
1,03101847826283E-10;
9,73887621115453E-11;
8,44306353650459E-11;
8,06264716127718E-11;
8,50557678197238E-11;
8,49473614333408E-11;
7,30007002650742E-11;
5,07529404286015E-11;
2,569979625776E-11;
7,56645292450294E-12;
-4,56988624958114E-12;
-1,96450586698032E-11;
-4,49957399454783E-11;
-8,20432831006246E-11;
-1,17723237802281E-10;
-1,34378446868973E-10;
-1,21324223130654E-10;
-8,04536505193703E-11;
-3,00562516566791E-11;
1,33178788609643E-11;
4,16996503772102E-11;
5,41313738637717E-11;
5,91862998969162E-11;
6,42116542589879E-11;
6,95121195755017E-11;
7,15913682690098E-11;
6,82170125373756E-11;
5,83412127879532E-11;
4,36588329571932E-11;
2,90929345488272E-11;
1,5335859438399E-11;
1,41470617676934E-12;
-1,5973162021736E-11;
-3,9930440795613E-11;
-6,51674219703778E-11;
-8,66954476152434E-11;
-9,84835262215327E-11;
-9,24462343726176E-11;
-7,15506584929543E-11;
-4,26170532035659E-11;
-9,9700002027058E-12;
1,85501354223804E-11;
3,83951063893178E-11;
4,98417483713901E-11;
5,52845065973003E-11;
5,99867062752823E-11;
6,23905725913887E-11;
6,12323997659041E-11;
5,77760575412091E-11;
4,71829470525763E-11;
3,25211187789571E-11;
2,03618535458573E-11;
9,5143005254234E-12;
-3,02224414648597E-12;
-2,04360851482346E-11;
-4,59795877816852E-11;
-7,62406833814656E-11;
-1,00013541166507E-10;
-1,06625737241051E-10;
-8,87576350061371E-11;
-5,19010649414237E-11;
-1,23882481640449E-11;
1,83543280888025E-11;
3,55189295763831E-11;
4,27054306377546E-11;
4,79793741511151E-11;
5,60204207470176E-11;
6,54235790488438E-11;
6,85510165318308E-11;
6,06081146283923E-11;
4,60068707110301E-11;
3,40884421992393E-11;
2,91713616212349E-11;
2,70689022460327E-11;
1,71170018287902E-11;
-1,18655703108634E-11;
-5,79271035273435E-11;
-1,05139653818357E-10;
-1,33093348234907E-10;
-1,26338697401163E-10;
-8,79770208085544E-11;
-3,83359313384818E-11;
2,99602240523718E-12;
2,57132716210635E-11;
3,23764265786122E-11;
3,75799339207448E-11;
5,03854199157137E-11;
6,64161497998254E-11;
7,65998150288377E-11;
7,29385809569531E-11;
5,77998412929736E-11;
4,55811412385235E-11;
4,613475462989E-11;
5,37091194759848E-11;
4,97812381622573E-11;
1,80213553660707E-11;
-4,06910263279073E-11;
-1,07302585183195E-10;
-1,52768917462261E-10;
-1,55537737955187E-10;
-1,16991431325539E-10;
-5,94877412117737E-11;
-1,0560643980124E-11;
1,41868884085004E-11;
2,14669891652167E-11;
2,92163702821896E-11;
4,51698248553179E-11;
6,71724669145076E-11;
8,32038282536013E-11;
8,07969965184959E-11;
6,64628365365982E-11;
5,54522439296494E-11;
5,89897005261923E-11;
7,29917792642057E-11;
7,467192847807E-11;
4,30910448946788E-11;
-2,49729053872339E-11;
-1,08171896045362E-10;
-1,68436123242904E-10;
-1,77913440156467E-10;
-1,38698858889795E-10;
-7,65131606284293E-11;
-2,22574867826658E-11;
6,44408025038618E-12;
1,40977032882439E-11;
1,99927667918727E-11;
3,95751909511056E-11;
6,67253603516514E-11;
8,5529834725919E-11;
8,61746905170155E-11;
7,16806985139906E-11;
6,21740627267024E-11;
7,07451275106828E-11;
8,92870304267061E-11;
9,57020474929312E-11;
6,26658387409739E-11;
-1,38516819178319E-11;
-1,06835343391669E-10;
-1,78070383090011E-10;
-1,94175465745606E-10;
-1,53979854720636E-10;
-8,87721394760909E-11;
-3,17118271638816E-11;
-1,743049862749E-12;
5,75975975290622E-12;
1,27562755353301E-11;
3,40046801206522E-11;
6,46198106080153E-11;
8,75600323697496E-11;
8,94798350001801E-11;
7,60382726265918E-11;
6,69222305102289E-11;
7,70870572440588E-11;
1,01590480541459E-10;
1,11282991217102E-10;
7,79089905224293E-11;
-2,10825483033338E-12;
-1,04490154373071E-10;
-1,83972291381447E-10;
-2,04447321468652E-10;
-1,66018121557222E-10;
-9,87071540062117E-11;
-3,90587548133305E-11;
-8,24269183636736E-12;
-6,62821142242981E-13;
7,36600730741007E-12;
3,04910579921366E-11;
6,2307616218587E-11;
8,69017289014691E-11;
9,12607690977336E-11;
7,90879817817371E-11;
7,07631452118107E-11;
8,31630782082381E-11;
1,1084238796365E-10;
1,23791199634436E-10;
9,12183583680375E-11;
7,07563708893543E-12;
-1,00990501008672E-10;
-1,85257383461232E-10;
-2,10830212623014E-10;
-1,73813337436446E-10;
-1,04536873643278E-10;
-4,44198182603125E-11;
-1,30786641322993E-11;
-5,41633440220229E-12;
1,27393012271327E-12;
2,47155520303633E-11;
5,93740375829602E-11;
8,62909315081165E-11;
9,1080261421804E-11;
7,94985691649288E-11;
7,23102390468698E-11;
8,6384822696423E-11;
1,1637312276841E-10;
1,3132102852747E-10;
9,93414329475162E-11;
1,4287166362004E-11;
-9,6213596599441E-11;
-1,8481214187335E-10;
-2,12909613326498E-10;
-1,7679064174638E-10;
-1,08356553223498E-10;
-4,78463792527933E-11;
-1,70894825412115E-11;
-9,58492713617615E-12;
-3,21661868935746E-12;
1,99219884306553E-11;
5,59531334910976E-11;
8,35301605195006E-11;
8,94407012119041E-11;
7,83671422106815E-11;
7,20167156131001E-11;
8,7934603544595E-11;
1,18637833353099E-10;
1,36052607649136E-10;
1,06341708624669E-10;
2,07837517510615E-11;
-9,11181758091853E-11;
-1,80869147853265E-10;
-2,10600475078034E-10;
-1,7823773937677E-10;
-1,11977947850164E-10;
-5,07777300405145E-11;
-2,05519380630025E-11;
-1,38933374298225E-11;
-6,51699438363266E-12;
1,73975482181316E-11;
5,27593215516387E-11;
8,02300859037993E-11;
8,73349965465913E-11;
7,7115103988404E-11;
7,09042276864286E-11;
8,84426140041761E-11;
1,20548764995456E-10;
1,37901800216157E-10;
1,09560497741824E-10;
2,58745174101828E-11;
-8,44998194852238E-11;
-1,74526751925118E-10;
-2,06801353047852E-10;
-1,75524779485973E-10;
-1,10678472501781E-10;
-5,24793748483088E-11;
-2,33875713120387E-11;
-1,65258216060974E-11;
-9,30913067245586E-12;
1,33996769546537E-11;
4,82548811034586E-11;
7,68622840223092E-11;
8,40790729696378E-11;
7,45498824307046E-11;
6,97263345045952E-11;
8,71289101712112E-11;
1,19388496417555E-10;
1,38002966488618E-10;
1,11373167135782E-10;
2,98464093697166E-11;
-7,8278630971396E-11;
-1,67343781766885E-10;
-2,00318076262238E-10;
-1,70894365690509E-10;
-1,08713018423294E-10;
-5,29817708179367E-11;
-2,5326261336E-11;
-1,87625790863902E-11;
-1,22091636457282E-11;
9,73626214966093E-12;
4,47361117433512E-11;
7,295748368233E-11;
7,9819554663259E-11;
7,09282389431246E-11;
6,71548923096349E-11;
8,45409959010386E-11;
1,16345385860625E-10;
1,3556689904279E-10;
1,10443947717944E-10;
3,29442522559085E-11;
-7,12435380567181E-11;
-1,58979893719106E-10;
-1,91496291929048E-10;
-1,64411532287022E-10;
-1,05951115458653E-10;
-5,18126591448517E-11;
-2,60484679463332E-11;
-2,0775664023363E-11;
-1,34107227569063E-11;
7,59891116658536E-12;
4,03269863934144E-11;
6,76152279699242E-11;
7,46513040757024E-11;
6,74902714936062E-11;
6,47943454719469E-11;
8,1275385812672E-11;
1,12780826032637E-10;
1,32242942871295E-10;
1,09185317187858E-10;
3,48500168923223E-11;
-6,61305765730384E-11;
-1,50009918407108E-10;
-1,81991163421659E-10;
-1,57104680017859E-10;
-1,01617520771031E-10;
-5,09012813787238E-11;
-2,62274578885974E-11;
-2,10554625091438E-11;
-1,53742149899557E-11;
4,81941660963913E-12;
3,69901256770558E-11;
6,2009407670051E-11;
6,97466877167667E-11;
6,36467428687529E-11;
6,00117560684487E-11;
7,75056371048222E-11;
1,08791170857165E-10;
1,27626423469956E-10;
1,06201741940397E-10;
3,60539683131338E-11;
-5,91682909138109E-11;
-1,39635649819326E-10;
-1,70418374513964E-10;
-1,48020841175828E-10;
-9,79626296805723E-11;
-5,03175141478454E-11;
-2,62602184538576E-11;
-2,18844662791432E-11;
-1,68199517209753E-11;
2,66342083462446E-12;
3,28029705944974E-11;
5,72594575509694E-11;
6,53744055134619E-11;
5,93908137507817E-11;
5,68625880444983E-11;
7,36897476799014E-11;
1,02882773706581E-10;
1,21284156460434E-10;
1,01902814772218E-10;
3,62298632662756E-11;
-5,34546674274961E-11;
-1,29418417368954E-10;
-1,58866906906881E-10;
-1,38409850991626E-10;
-9,20388701507585E-11;
-4,80426470935584E-11;
-2,61895950244689E-11;
-2,23334162349598E-11;
-1,71855074498135E-11;
6,55027216839473E-13;
2,91593974276658E-11;
5,32786933039255E-11;
6,04158116702687E-11;
5,47448526658497E-11;
5,34733848969911E-11;
6,9434806955185E-11;
9,68523171901812E-11;
1,15005322669418E-10;
9,7332327810146E-11;
3,6115416887952E-11;
-4,66515638518472E-11;
-1,17899641612839E-10;
-1,47395228175462E-10;
-1,29225630700391E-10;
-8,61409225513309E-11;
-4,55733762819589E-11;
-2,53988781185482E-11;
-2,18942264114989E-11;
-1,67967129612826E-11;
-2,66555581641921E-13;
2,55428241705793E-11;
4,80671998526658E-11;
5,45690651523152E-11;
4,93556694558165E-11;
4,8643036657452E-11;
6,38111672663089E-11;
9,11399036850974E-11;
1,08127225711117E-10;
9,11670890149744E-11;
3,56038298076326E-11;
-4,1267555243613E-11;
-1,06762393650556E-10;
-1,34525035086408E-10;
-1,19269312159814E-10;
-7,90281780338501E-11;
-4,29880167455518E-11;
-2,52509761251044E-11;
-2,09770891375555E-11;
-1,76037158656024E-11;
-2,62285982658346E-12;
2,25864722918778E-11;
4,29303554269616E-11;
4,91718748429926E-11;
4,52333261796656E-11;
4,4374704042892E-11;
5,83527923707693E-11;
8,28749277765529E-11;
9,89221490758702E-11;
8,55239534908892E-11;
3,5019180773592E-11;
-3,5818545212739E-11;
-9,65361833085098E-11;
-1,2255878617827E-10;
-1,08222034280209E-10;
-7,28826716071643E-11;
-4,03146052505978E-11;
-2,30675397824348E-11;
-2,09199767569315E-11;
-1,71489227269958E-11;
-2,26532351424229E-12;
1,89213923485799E-11;
3,78790855634686E-11;
4,37522902356626E-11;
4,0612261718243E-11;
4,11418761527566E-11;
5,31144408921213E-11;
7,64194811535178E-11;
9,23911307106423E-11;
7,96936670328732E-11;
3,39398563029337E-11;
-3,06519794050719E-11;
-8,61485553415711E-11;
-1,09887239199027E-10;
-9,86684655600351E-11;
-6,68750806134489E-11;
-3,68070949459629E-11;
-2,26282158689652E-11;
-2,02445664995704E-11;
-1,64241116404361E-11;
-3,58226918681751E-12;
1,64789047747041E-11;
3,38064850898691E-11;
3,98801581100713E-11;
3,697696767913E-11;
3,64428589319872E-11;
4,89846412548768E-11;
7,0223520470642E-11;
8,41621722790767E-11;
7,36889845329987E-11;
3,22286972019151E-11;
-2,63542906280536E-11;
-7,75576856556896E-11;
-9,96010636940173E-11;
-8,87823357641109E-11;
-6,05815717397492E-11;
-3,38626590360693E-11;
-2,0549063898588E-11;
-1,90404956131922E-11;
-1,69607391670935E-11;
-4,53674327497023E-12;
1,37694630730337E-11;
2,86712388272235E-11;
3,52171409261978E-11;
3,29007367611816E-11;
3,26822986728579E-11;
4,44629884593952E-11;
6,36733842658918E-11;
7,65411856265975E-11;
6,75139881969455E-11;
3,10485017022361E-11;
-2,12233263661874E-11;
-6,66877426689718E-11;
-8,71450128408897E-11;
-7,94775596915553E-11;
-5,5051977990379E-11;
-3,15181169352843E-11;
-1,98207805775139E-11;
-1,78997468738335E-11;
-1,54057115320017E-11;
-5,18351226883133E-12;
1,09583974948682E-11;
2,55160656459357E-11;
3,06787046566178E-11;
2,84448292550008E-11;
2,93394967091342E-11;
3,965375433459E-11;
5,71854204733617E-11;
6,97274953168657E-11;
6,12396577158084E-11;
2,86203321545258E-11;
-1,73211932424865E-11;
-5,83050165433245E-11;
-7,62878354339662E-11;
-7,05244078012284E-11;
-4,98252635527323E-11;
-2,72179381331532E-11;
-1,7610517200101E-11;
-1,67638518702046E-11;
-1,418402430515E-11;
-5,42147178610848E-12;
9,35786836247416E-12;
2,2086255793753E-11;
2,72004951296936E-11;
2,5496564688441E-11;
2,54052945217584E-11;
3,4462378497194E-11;
4,96870639676016E-11;
6,16093250392281E-11;
5,57372921557486E-11;
2,6636782032607E-11;
-1,43150499514626E-11;
-5,05931709234804E-11;
-6,6888416636839E-11;
-6,03216209069068E-11;
-4,2473419036563E-11;
-2,54997831595718E-11;
-1,69761980314853E-11;
-1,56394397401541E-11;
-1,3916979396617E-11;
-5,84524720079453E-12;
7,0719329946407E-12;
1,81351362940115E-11;
2,34311759553471E-11;
2,18899876252649E-11;
2,16358416026888E-11;
3,00479299773087E-11;
4,41760163991231E-11;
5,51893252982982E-11;
4,95252295793571E-11;
2,51928194454602E-11;
-1,01168763226175E-11;
-4,28405051267249E-11;
-5,68412007905853E-11;
-5,21884216082391E-11;
-3,74900129912163E-11;
-2,27803649879862E-11;
-1,54270316617786E-11;
-1,35817460834228E-11;
-1,22881320184304E-11;
-6,24494924679507E-12;
4,98224102826454E-12;
1,50794523284167E-11;
1,88825010442878E-11;
1,81964254006881E-11;
1,84131860282396E-11;
2,55244733021568E-11;
3,86262354031316E-11;
4,71383938155452E-11;
4,40226384461231E-11;
2,40299143274911E-11;
-8,10339506668169E-12;
-3,48989440759969E-11;
-4,79321515734779E-11;
-4,57129481581593E-11;
-3,26893002443536E-11;
-2,01007030077568E-11;
-1,36753506973223E-11;
-1,20581848771967E-11;
-1,12592225878977E-11;
-6,07556351063384E-12;
4,1370480103906E-12;
1,2158035114185E-11;
1,53536739335975E-11;
1,56565640209808E-11;
1,60264123617814E-11;
2,26708942562848E-11;
3,40438880793194E-11;
4,21163506742249E-11;
3,83119328037009E-11;
1,94729367963457E-11;
-5,96211020003969E-12;
-2,92240826340885E-11;
-4,1742907691348E-11;
-3,82235356156793E-11;
-2,74661088594093E-11;
-1,7416560848997E-11;
-1,14620125726889E-11;
-1,14637553346231E-11;
-1,10440668460463E-11;
-5,83208263132843E-12;
2,82764266028485E-12;
1,0651917934384E-11;
1,31342872994641E-11;
1,26517450605984E-11;
1,41654433367115E-11;
1,9545765291942E-11;
2,82960515362687E-11;
3,58039132350132E-11;
3,32164267356624E-11;
1,80331477662241E-11;
-3,36937386594883E-12;
-2,31036403028129E-11;
-3,32479846125103E-11;
-3,17032568077442E-11;
-2,36016872579619E-11;
-1,52761247634111E-11;
-1,10003011853932E-11;
-1,02537348449361E-11;
-9,49421587059466E-12;
-5,70326521263928E-12;
1,01478455198223E-12;
7,08231120790215E-12;
1,00932797539148E-11;
1,08123186858023E-11;
1,11638522948353E-11;
1,53658718531823E-11;
2,39075608128218E-11;
2,98560796541509E-11;
2,81383451721925E-11;
1,70815306294606E-11;
-8,86424320487102E-13;
-1,81754777541977E-11;
-2,67431409689045E-11;
-2,55028195695324E-11;
-1,99819160663345E-11;
-1,30486267419566E-11;
-9,35697678962911E-12;
-1,0154059787112E-11;
-8,98619330050061E-12;
-4,95206714055413E-12;
5,95671982782648E-13;
5,57655908906982E-12;
7,67091110190108E-12;
8,64332615761112E-12;
8,84901742901655E-12;
1,26229662097278E-11;
2,04212573680996E-11;
2,46337272261657E-11;
2,41982222392103E-11;
1,57991604456881E-11;
5,37325619104563E-13;
-1,2765882234125E-11;
-2,12451815471613E-11;
-2,13346026629733E-11;
-1,5235533107342E-11;
-1,04114099165566E-11;
-8,31319907337328E-12;
-8,46579578888967E-12;
-7,97748114085935E-12;
-4,66776367687854E-12;
-1,21049423278677E-12;
2,77612410810524E-12;
5,93753359203315E-12;
5,45320424304212E-12;
6,6722674204584E-12;
1,05330659080234E-11;
1,57126767478427E-11;
2,14283342189383E-11;
2,07056935194371E-11;
1,33827877858004E-11;
2,13627512480499E-12;
-9,82524883210589E-12;
-1,5474619467301E-11;
-1,52966233358201E-11;
-1,23974088265335E-11;
-8,65171793934458E-12;
-7,05059047667517E-12;
-7,22344662989474E-12;
-7,04053375015145E-12;
-4,97964648268035E-12;
-1,27892685834406E-12;
1,89451419011359E-12;
3,70362740082777E-12;
4,37123225388568E-12;
5,06027443789958E-12;
8,31996361298117E-12;
1,37351889865599E-11;
1,73638040206223E-11;
1,65921226829243E-11;
1,18285760481753E-11;
3,34395480560761E-12;
-6,21466633185036E-12;
-1,11474079502971E-11;
-1,14877868043032E-11;
-9,64835076360691E-12;
-7,1561271400059E-12;
-5,89067886748731E-12;
-5,5022368794568E-12;
-5,70162269847215E-12;
-4,85553511705472E-12;
-2,18503560134001E-12;
8,09227504541443E-13;
2,44800586252125E-12;
2,41432790355034E-12;
3,79915416281559E-12;
6,52825808993122E-12;
9,84318154786543E-12;
1,31218690042191E-11;
1,31189868886028E-11;
1,05847218522111E-11;
4,14687056372465E-12;
-3,95849691424092E-12;
-7,20135338823548E-12;
-8,54584035920016E-12;
-7,923622828547E-12;
-4,79267592651535E-12;
-4,23982223244817E-12;
-4,56764045039355E-12;
-3,95779038947416E-12;
-3,91834811217884E-12;
-2,09738446562097E-12;
3,10037041103062E-13;
2,02679126126011E-13;
1,12838412494095E-12;
2,85303123917246E-12;
3,89568501997501E-12;
6,56282700512187E-12;
9,82873961860342E-12;
1,11716869904245E-11;
9,0348910490854E-12;
4,90538653849666E-12;
8,58117320096398E-14;
-3,76033074882664E-12;
-5,02352775752216E-12;
-5,29203509668667E-12;
-4,30975859090971E-12;
-3,9574173204167E-12;
-4,66458518755476E-12;
-4,35297729271128E-12;
-4,0659436894224E-12;
-2,27011707607413E-12;
-7,36850170067319E-13;
-9,81497155950861E-13;
2,06442714629226E-13;
1,4034754931171E-12;
3,03417024171124E-12;
4,92033378070767E-12;
5,76813378191181E-12;
7,63786081729512E-12;
7,34883047085425E-12;
4,83486267451165E-12;
2,03554946744757E-12;
-1,16529414572719E-12;
-2,15205119149161E-12;
-2,70439856022239E-12;
-3,01984203042657E-12;
-2,76924809589257E-12;
-3,46475119315824E-12;
-3,56098528836207E-12;
-3,3395373917203E-12;
-2,52080942104956E-12;
-1,44254551613664E-12;
-8,73425536032124E-13;
-1,77880614689756E-13;
1,05370065157394E-13;
1,05105999915093E-12;
3,24621211214453E-12;
4,61468871021549E-12;
5,34332203192633E-12;
6,18053832756201E-12;
5,08984206839755E-12;
3,21095093879849E-12;
2,09421133405878E-12;
7,65783956418623E-13;
-8,66895700973883E-13;
-2,13059594311947E-12;
-2,41909493652542E-12;
-2,63465056842101E-12;
-3,19520710100353E-12;
-3,7350061211216E-12;
-2,6198965096987E-12;
-1,80463376305747E-12;
-2,35770016317004E-12;
-8,22388489378822E-13;
9,18180089440059E-14;
3,09627898316875E-13;
1,34057590682759E-12;
1,44424709782691E-12;
3,30399526823429E-12;
5,72911922261651E-12;
5,99087555396377E-12;
5,51882761354432E-12;
3,88700843377892E-12;
1,87746356085163E-12;
4,49486721362036E-13;
-1,08311903756755E-12;
-2,02665497761781E-12;
-2,22598908871157E-12;
-2,66657613773555E-12;
-3,20795284835236E-12;
-2,82819351353407E-12;
-2,74627387238633E-12;
-2,67927477757819E-12;
-1,76200230519584E-12;
-1,63785564832025E-12;
-1,10847011591994E-12;
7,89097099477406E-14;
1,01414241945648E-13;
1,08900501538536E-12;
3,90603319357954E-12;
5,32810158506837E-12;
5,98119335320915E-12;
6,45170788034697E-12;
3,72022627551863E-12;
1,3630251397467E-12;
1,14898752118755E-12;
-4,22870405421396E-13;
-1,1249848073412E-12;
-1,31649780901496E-12;
-2,48234197626059E-12;
-3,19411645169887E-12;
-4,02352775789681E-12;
-3,51323978015835E-12;
-1,95004967144277E-12;
-1,9455415536098E-12;
-2,1322852604042E-12;
-1,17769933306095E-12;
-5,74206589389544E-13;
4,6244949291454E-13;
2,98054311786829E-12;
5,54400060474723E-12;
7,18284922932474E-12;
6,75142673881141E-12;
5,46775434290311E-12;
3,47978289140211E-12;
6,2943177467611E-13;
-4,26438498599822E-13;
-1,45096276513999E-12;
-1,67526264774155E-12;
-1,53285914268026E-12;
-3,23307937662667E-12;
-2,91094394980147E-12;
-2,84415041831001E-12;
-2,97931032653134E-12;
-1,30858155673709E-12;
-2,66739051633034E-12;
-3,43253744729756E-12;
-1,72270188074917E-12;
-1,30535616290985E-12;
1,24554816065911E-12;
5,45069839233113E-12;
8,03370899931364E-12;
8,84867205653174E-12;
6,24690598761236E-12;
2,77339752520945E-12;
1,21791977620531E-12;
-1,988131407146E-13;
-2,92783084568768E-13;
-2,81239998566265E-13;
-1,70120976009405E-12;
-2,21879466535806E-12;
-3,53315993286347E-12;
-3,68600302172893E-12;
-1,98585988228146E-12;
-2,09313321454798E-12;
-2,0883483430377E-12;
-3,27629282426536E-12;
-3,98653551792167E-12;
-1,51732612200464E-12;
7,47333623023152E-13;
5,31248920996327E-12;
8,90721609593015E-12;
8,29163893786228E-12;
7,33634902416776E-12;
3,45791305215273E-12;
2,15309140578371E-13;
5,45141699100343E-13;
1,35134950141128E-13;
-8,66207916121142E-13;
-2,16464489954226E-12;
-2,95873603026862E-12;
-3,4987545565854E-12;
-3,49938883095024E-12;
-2,28288117758889E-12;
-2,63547115125102E-12;
-3,61321121327517E-12;
-3,8566513287398E-12;
-3,94578540276711E-12;
-1,94069321769162E-12;
1,48738547348211E-12;
5,3753621535766E-12;
9,61782862395127E-12;
1,01305967006691E-11;
7,54928562868061E-12;
4,99631635442724E-12;
2,10396980988279E-12;
7,03440897712772E-13;
5,03990019476062E-13;
-5,9945118783436E-13;
-1,29322264780509E-12;
-2,3752513250831E-12;
-4,26493054079006E-12;
-4,2127752684054E-12;
-3,03670151202747E-12;
-2,35577821585063E-12;
-2,15930336864916E-12;
-3,4153979297256E-12;
-4,88067275641874E-12;
-3,8379414508825E-12;
-9,78583378096652E-14;
4,93160771554234E-12;
8,75874810628105E-12;
9,80378464393252E-12;
7,72737112932625E-12;
4,54312990709767E-12;
2,97538682933457E-12;
6,70316469647347E-13;
-4,22204078452484E-13;
1,04189082754272E-12;
-2,04168300655735E-13;
-2,45083258197305E-12;
-3,36142412098448E-12;
-3,60645510080455E-12;
-3,18020722852946E-12;
-2,94733303428654E-12;
-3,06272668502664E-12;
-3,99988461914125E-12;
-5,12513718311731E-12;
-4,2411782092877E-12;
2,77935892000899E-13;
4,96068320952539E-12;
7,74466532886328E-12;
9,95695764971823E-12;
8,17178663671045E-12;
4,97821012184349E-12;
3,44290203793903E-12;
1,03742088824663E-12;
7,68409279105938E-13;
9,82010943962788E-13;
-7,08725295352178E-13;
-2,00573377158637E-12;
-3,25492333159458E-12;
-3,09205331836081E-12;
-2,69346581598088E-12;
-2,84296099960477E-12;
-2,77859545570095E-12;
-4,98628274636055E-12;
-6,53296218684767E-12;
-3,89696566403267E-12;
-2,77892327160948E-13;
3,89769524314205E-12;
8,24054289923254E-12;
9,41678594999991E-12;
7,9923885996462E-12;
5,15819517380893E-12;
2,90548556999601E-12;
1,92491328410555E-12;
1,06417465761309E-12;
5,02824974798486E-13;
-7,20678915266886E-13;
-2,2147302780005E-12;
-3,1584379407221E-12;
-2,93655712749078E-12;
-2,46352961040592E-12;
-3,30236307922275E-12;
-3,64824065239454E-12;
-4,30454717713828E-12;
-5,52151933962037E-12;
-4,27515258765859E-12;
-1,0055512846648E-12;
3,57211000568858E-12;
7,77611366808856E-12;
8,68737181683301E-12;
8,19319185049614E-12;
6,46345972666449E-12;
3,30162432275101E-12;
1,91210184364628E-12;
9,453805335664E-13;
8,65302062286177E-14;
1,41529017021329E-14;
-1,11869777431853E-12;
-2,49198295840746E-12;
-3,13508491396815E-12;
-2,62076683519133E-12;
-1,95770466871172E-12;
-3,00160855927325E-12;
-4,92724155836535E-12;
-5,86906503434599E-12;
-4,55068992991873E-12;
-8,24555173478252E-13;
4,35174397003812E-12;
8,31352059878848E-12;
9,20034898052335E-12;
8,05765262057461E-12;
5,47826029692061E-12;
2,75871708978232E-12;
9,03661481727289E-13;
3,7273718274358E-13;
8,56024380723576E-13;
2,23215635075651E-13;
-4,71662373854749E-13;
-1,88171700928928E-12;
-3,98268367834608E-12;
-3,26720284093162E-12;
-2,50124586469872E-12;
-3,58830310777194E-12;
-4,20725493765776E-12;
-5,74634039356208E-12;
-5,46855518981919E-12;
-7,10258224458E-13;
3,68517558848326E-12;
7,31126233524116E-12;
9,19135365904461E-12;
7,67387195663787E-12;
5,28267409651865E-12;
2,13347151740269E-12;
1,25984080955494E-12;
1,74144678881334E-12;
1,76005705591421E-13;
-2,60907209792384E-13;
-1,16781656933886E-12;
-2,90270963436948E-12;
-3,19131716198784E-12;
-3,13934794160723E-12;
-2,35342627497355E-12;
-2,95789787101437E-12;
-5,06209383583006E-12;
-5,93791877640317E-12;
-4,44278252351717E-12;
-7,90127952083864E-13;
3,58324683773844E-12;
7,85619799566343E-12;
8,46773331459175E-12;
6,67174290851821E-12;
5,37826022354335E-12;
2,50744572596351E-12;
9,73778967740552E-13;
1,64616591274021E-12;
1,55551314534427E-12;
3,74288130609024E-13;
-1,9053164876954E-12;
-2,74772672041747E-12;
-2,36551580032103E-12;
-2,72699499911794E-12;
-2,61515994600334E-12;
-3,38042366960291E-12;
-4,59859058820194E-12;
-5,61498390541522E-12;
-5,17458363354129E-12;
-9,7888406409028E-13;
3,10491159732563E-12;
5,82810321750891E-12;
7,33459593598133E-12;
7,03727031683691E-12;
5,24958594856505E-12;
2,06973762058723E-12;
1,45469174590425E-12;
2,13201285774001E-12;
1,25998609265423E-12;
3,91151198393339E-13;
-8,17164593809571E-13;
-1,62916107853844E-12;
-2,4329921776842E-12;
-2,50399445693838E-12;
-1,69919776210525E-12;
-2,85718199676389E-12;
-4,4796776128304E-12;
-5,04173106247584E-12;
-3,83958450507629E-12;
-9,97686852916203E-13;
2,23708268152355E-12;
5,75907524776978E-12;
7,91137301915432E-12;
6,69333813187881E-12;
3,97447311170092E-12;
2,77544630081445E-12;
2,1374148454924E-12;
1,9913725132757E-12;
2,20483357751191E-12;
4,40319833282925E-13;
-1,47595338481019E-12;
-1,96392591380083E-12;
-2,07322527903568E-12;
-1,56641195681559E-12;
-2,31660490957422E-12;
-3,66920330632044E-12;
-3,26290112518868E-12;
-3,68179466859604E-12;
-3,86537077204131E-12;
-1,43217194369671E-12;
2,18349000937779E-12;
5,85759671994809E-12;
7,42372461007627E-12;
5,95924225587672E-12;
3,74654563847327E-12;
2,73259350597209E-12;
2,25008952920568E-12;
1,12178723464911E-12;
6,0297417218607E-13;
1,14600189517096E-12;
2,27196262494559E-13;
-1,87191184779698E-12;
-2,28366209202091E-12;
-2,00084556077096E-12;
-2,0546538519219E-12;
-2,34490963758363E-12;
-4,32528458702159E-12;
-4,78220304065896E-12;
-3,03748954397087E-12;
-2,03278362571847E-12;
1,89005534621045E-12;
5,56014981626767E-12;
5,78505052141372E-12;
6,63969411593562E-12;
4,82819362498968E-12;
2,12766201892529E-12;
1,53982262618893E-12;
1,48486491485784E-12;
2,66223127346045E-12;
1,16559730847734E-12;
-9,19985725067952E-13;
-7,90277684868062E-13;
-1,74156637566717E-12;
-2,2182476659707E-12;
-1,995931937525E-12;
-2,97016784689775E-12;
-3,61163974451817E-12;
-3,44267448057092E-12;
-3,33289016707574E-12;
-8,34386838804175E-13;
2,28069424387102E-12;
3,90324709159512E-12;
6,20252136560216E-12;
5,89182639626614E-12;
3,04952454525103E-12;
1,74273486718213E-12;
1,71880245365401E-12;
1,3217533327893E-12;
7,48016115384352E-13;
5,24133234347078E-13;
-6,38784412489477E-13;
-1,32307834340254E-12;
-8,25539278618358E-13;
-1,23923809722322E-12;
-1,88392111263226E-12;
-1,7244653766788E-12;
-2,57358967449639E-12;
-4,2797850242029E-12;
-3,90202537372273E-12;
-1,42258379583245E-12;
1,6388350191991E-12;
4,3408296265728E-12;
5,02350485644114E-12;
4,14136296290314E-12;
3,13146011817513E-12;
2,26834371844477E-12;
1,71600682813198E-12;
1,60226429852589E-12;
2,24191966972905E-12;
1,50635870008852E-12;
-5,11593752736303E-14;
-6,97341657075795E-14;
-6,79467783762021E-13;
-1,52265706252333E-12;
-1,45370600443114E-12;
-1,88765970739619E-12;
-2,86859091135861E-12;
-3,82305835988565E-12;
-4,00963297769654E-12;
-2,11703196444136E-12;
1,25872126052816E-12;
3,54439675812053E-12;
4,55100056823032E-12;
4,56909693985644E-12;
3,23015679768501E-12;
2,05312032448608E-12;
1,32536663946734E-12;
1,21402051312973E-12;
1,65828240394416E-12;
9,2612157500611E-13;
-6,55273347735007E-13;
-1,31426212601052E-12;
-7,93335316199341E-13;
-4,83058207131393E-13;
-8,42565271978444E-13;
-1,2488733933993E-12;
-1,7424633818875E-12;
-2,68054372594902E-12;
-2,87728738311955E-12;
-1,42357047212806E-12;
9,57782353746545E-13;
3,30700548359504E-12;
4,18322599806117E-12;
3,74356135899808E-12;
2,81667341537874E-12;
2,17782040526857E-12;
1,60148011860004E-12;
5,36929315545737E-13;
5,11729118760246E-13;
1,83276940532822E-13;
-9,1156017646534E-13;
-7,09753376365789E-13;
-8,69990723581873E-13;
-1,04127559066E-12;
-6,08501014690466E-13;
-1,39076138657168E-12;
-1,92515922471839E-12;
-2,58665234566435E-12;
-2,65310268226109E-12;
-4,33766985236042E-13;
9,42349421369205E-13;
2,70222773994033E-12;
4,4186464149245E-12;
3,27936818754577E-12;
2,97072596772119E-12;
2,42755619288464E-12;
1,04711093240032E-12;
1,45703188769422E-12;
1,10356229054364E-12;
3,2022625829409E-13;
-2,35400603196555E-14;
-4,66272335714244E-13;
-4,29045198780244E-13;
-7,92718285049554E-13;
-1,43065113652988E-12;
-1,58265709443287E-12;
-1,5281731672538E-12;
-2,2514927395713E-12;
-2,80320498404998E-12;
-1,01647690935951E-12;
1,09846439779869E-12;
2,12108295704584E-12;
2,9221559646224E-12;
2,55926126745765E-12;
2,12265590817508E-12;
2,009725108404E-12;
1,17339185824373E-12;
9,47724159212674E-13;
1,34077750381896E-12;
7,33356499930927E-13;
-4,43286103771829E-13;
-7,4527798119146E-13;
-3,82298944802187E-13;
-8,38397719624372E-13;
-1,14539182317269E-12;
-6,54945663472071E-13;
-2,06103328834899E-12;
-2,8000608935413E-12;
-1,38660808309745E-12;
-7,60409184237966E-13;
6,48159991467767E-13;
2,46592334809103E-12;
2,61171942103575E-12;
2,77756602838455E-12;
2,65274342194074E-12;
1,03986004681615E-12;
1,11346936391848E-12;
1,99330977981377E-12;
1,37030826365121E-12;
8,79615957065619E-13;
1,91824204374074E-13;
2,84017561651773E-13;
-1,04368862202158E-13;
-1,13769714827187E-12;
-3,65447688591013E-13;
-7,70837442277211E-13;
-1,81641115130095E-12;
-1,6378980495902E-12;
-1,4465700153256E-12;
-6,98109396781615E-13;
9,44417898429565E-14;
1,2868285718532E-12;
2,98198257260723E-12;
3,0503355285192E-12;
2,09968522679483E-12;
1,01997428266721E-12;
8,21527735387791E-13;
1,89633394109637E-12;
1,52202660711498E-12;
4,67213989065478E-13;
3,7528791531351E-14;
-3,02665653168763E-13;
-2,57078132733347E-13;
-3,25341779536408E-13;
-5,06247419210148E-14;
3,07284101631761E-14;
-1,40401519261436E-12;
-2,63984021486358E-12;
-1,51175270643428E-12;
-3,86373361547195E-13;
5,47984038308713E-15;
2,0642473616488E-12;
2,97914252651707E-12;
2,18686874810008E-12;
1,86706538879513E-12;
1,30816419174511E-12;
9,86486937984767E-13;
9,94412823393736E-13;
6,31941387676281E-13;
9,26237879397538E-14;
-2,93052018958353E-13;
-4,76404959634953E-13;
-6,54757024279705E-13;
-6,35021078377838E-13;
-8,77229831600413E-14;
-3,1210846136573E-13;
-1,15238733142098E-12;
-1,09387084009255E-12;
-1,32151960372519E-12;
-1,14014302152797E-12;
7,453991076901E-13;
1,89220655565545E-12;
1,76667587746194E-12;
2,11532402341927E-12;
2,34498634336187E-12;
1,08310331483253E-12;
4,58928251851501E-14;
8,56102052256989E-13;
7,7950675033439E-13;
6,04470602306104E-13;
8,97123174411551E-13;
-1,85296261128404E-13;
-2,958241513486E-13;
-1,57031866243991E-13;
-1,73604424075441E-13;
-2,20850618904068E-13;
-6,94661747115405E-13;
-3,05806081082857E-13;
-3,54326559862828E-13;
-1,98247291956111E-13;
3,22474650031221E-13;
1,17648097087889E-12;
2,51457273908697E-12;
1,84686104340513E-12;
8,7324680024921E-13;
9,76044625777221E-13;
5,68612066258475E-13;
5,39763044492343E-13;
6,1903092035082E-13;
3,5351618197149E-13;
5,12232974786383E-13;
1,27646563944768E-13;
-3,15317722790203E-13;
-2,32817488254688E-13;
-6,87836816163485E-14;
-1,39222425497193E-13;
-7,32377265897495E-13;
-5,22763716203067E-13;
-4,20880984100762E-13;
-9,30633833590674E-13;
-1,11544974689779E-13;
1,31740834626034E-12;
1,81405125464981E-12;
1,27460599403774E-12;
8,75913826027428E-13;
1,16036478302232E-12;
1,69305614649052E-12;
1,48071129322698E-12;
5,20033667306253E-13;
6,44876640266616E-13;
7,68403368318391E-13;
3,63881293436288E-13;
7,5683696088665E-13;
3,23147517806635E-13;
-1,73648081214667E-13;
4,96143560637808E-13;
-6,70510808208749E-13;
-1,69146085718782E-12;
-7,02157392240485E-13;
-1,3900324033209E-13;
4,74476830683776E-13;
1,06387265523725E-13;
1,94825135286912E-13;
1,20861783212319E-12;
9,69071230694992E-13;
1,09292256202775E-12;
5,06086742364173E-13;
-1,60342133502026E-13;
5,39903286147221E-13;
9,1732029741496E-13;
1,84599403557708E-13;
-3,48765482377483E-13;
6,95280010429588E-14;
4,9036524112789E-13;
9,08837118276198E-13;
5,73712831872154E-13;
3,80912838316095E-13;
-1,29074351118729E-13;
-4,03529868312091E-13;
5,74675006026074E-13;
1,90737253484522E-13;
8,2073868511779E-13;
1,62264802128728E-12;
4,62908735797369E-13;
7,48832082608465E-13;
1,44008876319757E-12;
8,57244768942191E-13;
7,34636640931882E-13;
8,57794259556236E-13;
6,67307410137603E-13;
6,08909075326534E-13;
2,683148470771E-13;
5,06545373849543E-13;
5,36555985437127E-13;
-3,07588858307749E-13;
-3,81466282414502E-13;
-7,23854638031405E-14;
-1,77842648898337E-13;
-8,61147242908513E-13;
-4,34821848579024E-13;
8,51500425044596E-13;
5,96309829054959E-13;
2,94704402216048E-13;
1,12611783545097E-12;
9,63731527350919E-13;
7,51650439584343E-14;
6,94706564104656E-13;
9,94294658004313E-13;
5,05173318253814E-13;
5,40562506756026E-13;
2,86913303147511E-13;
2,2937898311929E-13;
3,44073131412513E-15;
7,4577816084915E-14;
7,41897277666635E-13;
2,06693593778719E-13;
-1,50467721526589E-14;
3,85746636433945E-13;
-3,27626112431312E-13;
-4,1530940548289E-13;
2,69557164278044E-13;
1,29237432378954E-13;
4,91060522106505E-13;
4,49640072247229E-13;
-3,16486568403403E-13;
6,42628579435964E-13;
9,28379574365728E-13;
1,7991598785229E-14;
6,01682515289245E-13;
1,1985770714041E-12;
3,19507355091018E-13;
-4,82506163912182E-13;
2,85242928557332E-13;
1,22614352132224E-12;
8,6086631640093E-13;
5,72800510660458E-15;
-5,21232386829811E-13;
-5,80414541144925E-13;
-2,84516583359402E-13;
5,98027167238597E-13;
8,5438591652472E-13;
1,15993752790663E-13;
7,89555556840549E-13;
9,41760833360313E-13;
-3,91586038159663E-13;
-3,22853206682244E-13;
3,6594075293693E-13;
5,22355872487015E-13;
1,95755029051943E-13;
7,78453563390943E-14;
1,10122566916137E-12;
1,17729915297793E-12;
-4,29325825769195E-14;
3,25576702857673E-13;
6,0412813255291E-13;
1,86698257577336E-13;
7,63516974745942E-13;
3,47522331569506E-13;
2,73500815478606E-13;
7,96451800445187E-13;
-1,13975285186439E-13;
-1,69739210482777E-13;
3,50131343512947E-13;
4,01983927603098E-13;
7,34508082186828E-13;
2,49186315574E-13;
-8,89622840538506E-14;
9,2464971128421E-13;
1,34251721050856E-12;
8,07538560184173E-13;
1,04794538097939E-12;
3,74255394661211E-13;
-1,12264963945255E-13;
1,15153513214167E-12;
2,99128332635725E-13;
3,8832626844761E-13;
1,41015948161204E-12;
2,77922274026428E-13;
7,50205515805159E-13;
3,32745881807478E-13;
-4,35999330079024E-13;
-7,5613000624271E-14;
-1,61977639112084E-12;
-8,40782745026139E-13;
5,88605876803919E-13;
2,6293284751335E-13;
9,01647441829699E-13;
4,66560172794655E-13;
2,4461213291097E-13;
5,62763685927568E-13;
6,74979326171006E-13;
1,04499223557596E-12;
4,97886639944411E-13;
4,46365828631629E-13;
3,75128052243169E-13;
5,96071705200099E-13;
9,10165352035012E-13;
3,43990806122793E-13;
7,78633558748414E-13;
1,63246846939002E-13;
-8,24702264241981E-13;
-6,89779302325415E-14;
-2,19808213261291E-13;
3,19560374385251E-14;
1,11365624615526E-12;
6,22053106021057E-13;
7,99051133910254E-13;
1,35426753672424E-12;
8,87463918238763E-13;
7,90777154210109E-13;
5,22896301753696E-13;
8,7011518606156E-13;
9,12677392197083E-13;
5,69922325169866E-14;
5,4495995303492E-13;
8,99210480221556E-13;
1,1412308608849E-12;
1,02054338193241E-12;
7,34083425034052E-14;
4,40888895618891E-13;
4,53330076065002E-13;
1,2735752612534E-13;
4,49927252362591E-14;
-1,58488767429901E-13;
2,79554240326661E-13;
2,66801382715857E-13;
9,8453742893733E-13;
1,39727036169471E-12;
5,93116164876411E-13;
5,69669977464269E-13;
3,60003755703961E-13;
6,7527984371164E-13;
1,11936407319739E-12;
2,39874994751283E-13;
4,98958659931483E-14;
1,32834121743394E-13;
-8,65352338916529E-14;
6,67517670204723E-13;
2,64517154760067E-13;
-4,74077935401403E-13;
6,1302552652556E-13;
7,31408956082248E-13;
5,70427353238568E-13;
8,60469883942234E-13;
2,92167163916116E-13;
2,23837979349273E-13;
3,70403276953813E-14;
2,05149161136191E-13;
8,14782892840734E-13;
9,28483300689783E-14;
-9,24852991406064E-14;
5,58579924368164E-13;
9,52707065010894E-13;
8,56215737937001E-13;
7,72919800491344E-14;
-2,58434097491972E-13;
-7,6916968842336E-15;
2,30816421413815E-13;
2,06846332672904E-13;
6,54982657320276E-13;
3,78090809497913E-13;
-2,60816700981313E-13;
3,64273247798599E-13;
-6,62076708419605E-13;
-5,51121917823284E-13;
1,36432283876615E-12;
4,01266312124536E-13;
-5,03167772471696E-13;
-2,45416421408425E-13;
-2,26752931100275E-14;
7,68936361446924E-13;
8,44533316564506E-13;
3,54093411254729E-13;
4,59742012001225E-13;
8,61496382556499E-13;
5,10884831855011E-13;
-1,64689081344167E-13;
4,02575716731141E-13;
1,51536540838285E-12;
9,99855350183186E-13;
1,90389112303005E-13;
5,53287398236231E-13;
3,91163059234985E-13;
2,58228610446522E-13;
1,42931881295044E-14;
-2,40114509307055E-13;
6,59026014382492E-13;
4,32896274807741E-13;
2,25349040792948E-14;
4,21770830374469E-13;
3,28858742063787E-13;
4,15127404911279E-13;
4,27603216619868E-13;
2,01366607091291E-13;
4,01281843917064E-13;
8,91207597200287E-13;
6,05261649302429E-13;
6,00402031079222E-13;
7,0390450225379E-13;
1,31831510663049E-13;
7,67102629723776E-13;
6,24080724195148E-13;
-7,06790407409905E-14;
4,3246521428404E-13;
-1,49961334907254E-13;
2,17574558924602E-14;
1,51344344905922E-12;
1,31731354041826E-12;
7,6340520626057E-14;
-4,71296805494165E-14;
1,20130597329159E-12;
1,03562279490777E-12;
1,96380531760096E-13;
5,2354730964765E-13;
-1,94926132044897E-13;
-1,02780197132897E-13;
1,30455187735076E-12;
1,16876173506122E-12;
6,28059730702107E-13;
4,28223696878724E-13;
-2,33775324375161E-14;
-3,6893375622024E-13;
-3,91857184180049E-13;
1,6956028859267E-13;
5,60716382743254E-13;
1,3861422362294E-13;
-1,06912370271919E-13;
-1,66476854046503E-13;
1,547469563951E-13;
7,54610997104917E-13;
1,26139264871267E-13;
-3,07359578947853E-13;
9,96238046373893E-13;
1,49692242168133E-12;
6,25064160262327E-13;
6,03013316177796E-13;
9,4660216291925E-13;
1,24722744663097E-12;
7,36953805128062E-13;
-8,37281696050049E-13;
-3,64333620538708E-13;
5,14174444014862E-13;
-3,9563682763095E-13;
-1,67293201877776E-13;
3,94548866513594E-13;
3,0035754449269E-13;
9,63450353977686E-13;
9,94964600199705E-13;
5,5713683914491E-13;
5,01619777322958E-13;
3,54314806202489E-13;
3,74476126568891E-13;
3,11385162638925E-13;
6,98214107291565E-13;
9,86814692710662E-13;
3,90832901759303E-13;
7,3919899853831E-13;
1,09181613819782E-12;
2,26303512698927E-13;
1,71396252076078E-13;
-6,27531350436079E-14;
-4,93688022226361E-13;
8,42350466115467E-13;
7,66973072525164E-13;
-1,05348983580131E-13;
5,65019850203251E-13;
1,7359707557669E-14;
-4,16107665078546E-13;
6,23699535175683E-13;
1,08728653969529E-12;
8,78918814757337E-13;
6,70111403219313E-13;
2,7584035933315E-13;
3,54691906874396E-13;
2,48816384783645E-13;
-5,61820989687935E-13;
2,10175601890232E-13;
7,08990154614369E-13;
1,2101830926828E-13;
-3,3510231431587E-13;
-1,01049516276932E-12;
-1,22033350653414E-14;
9,33161984119619E-13;
-7,28855573998632E-14;
-5,05932725740913E-13;
5,56795976004037E-13;
9,43864283335236E-13;
3,22848595326478E-13;
1,64404642844092E-13;
-1,57552265586638E-14;
5,31148138230547E-13;
1,20305722970008E-12;
6,30584772644614E-13;
5,13377325427762E-13;
3,96164289582792E-13;
2,10187420034978E-14;
8,18378726107461E-13;
1,00651628896863E-12;
-7,01480459803417E-14;
4,32905014996693E-13;
5,30271410435961E-13;
-8,68351534192824E-13;
-1,74540392844262E-14;
5,08870665867917E-13;
-4,52546605891006E-13;
7,99033997523501E-14;
8,42858412758394E-13;
7,42315341507257E-13;
2,82350796238508E-13;
-4,21157880057264E-13;
2,17820572430221E-13;
1,54548152605403E-12;
9,87525495799071E-13;
7,08164211256245E-13;
7,61976506630588E-13;
4,70533993673056E-13;
9,4390600274178E-13;
3,6960441985384E-13;
1,08691577181459E-13;
6,59859227838307E-13;
7,1581850297492E-13;
3,16498027529762E-13;
-6,20246479257299E-13;
-2,62001783015223E-13;
1,66287073769469E-13;
-1,20143882113365E-13;
6,08831531443588E-15;
-2,52191412214829E-13;
3,48494641725364E-13;
5,44925464784399E-13;
7,83242223770422E-14;
6,67658507664974E-13;
1,43726422200043E-13;
6,6173860663443E-14;
7,51913914286732E-13;
5,96369180850738E-13;
1,29399420732191E-12;
1,41441964137586E-12;
5,59659891501773E-13;
1,85977644139943E-13;
1,78948336523288E-13;
1,62122118216735E-13;
-1,35361488015255E-14;
8,61061840953067E-14;
8,13375849534625E-14;
1,80393714461762E-13;
7,27184908740315E-13;
6,53758272094132E-13;
6,32760183650923E-13;
8,62203513623696E-13;
-1,2144401741103E-13;
-8,44408012342546E-14;
7,90414298050284E-13;
3,96572624590395E-13;
7,62529916782657E-13;
8,40358463395913E-13;
3,79539487568666E-13;
9,36552459002965E-13;
5,53098897078565E-13;
1,76204110024305E-13;
3,2709661493325E-13;
-1,27896172557211E-13;
3,76661466536889E-13;
1,82283328716464E-13;
-9,86182536799294E-13;
2,64902255891122E-14;
9,66741601229477E-13;
8,99792572480324E-13;
1,21781074931327E-12;
5,14254807090435E-13;
6,23832482726803E-13;
1,26270390595759E-12;
8,23406488631141E-13;
5,13281103497485E-13;
-2,36332330122758E-13;
3,51854457594661E-13;
1,00156666495449E-12;
-1,01522426072205E-14;
8,31255400821035E-13;
1,11001587186757E-12;
2,36985391501893E-13;
1,01744242567881E-12;
7,74331335259532E-13;
3,43883055184797E-13;
7,2038538970504E-13;
6,70508856089478E-13;
2,47254371414316E-13;
-5,8827053509876E-13;
8,41349822559659E-14;
5,32678205925434E-13;
5,45231537591462E-13;
9,16129889448837E-13;
1,7102355447428E-13;
7,7142411569196E-13;
7,78696065890762E-13;
-1,79405293283232E-13;
5,43210020341682E-13;
3,9072171069664E-13;
2,457727299134E-13;
1,01863060771944E-12;
4,15304265319348E-13;
-5,52197524381672E-13;
-3,86106869913699E-13;
2,88568870655393E-13;
5,55479161124991E-13;
5,67483185654798E-14;
-3,68948525623686E-13;
1,59032030491756E-13;
2,91624670778325E-13;
1,22505906438819E-13;
7,28573873175173E-13;
2,34250373871989E-13;
1,29465896153229E-13;
8,55035117706022E-13;
-2,24485141013708E-14;
2,71869099662062E-13;
1,19777809774259E-12;
6,09491450591727E-13;
4,18365935148954E-13;
1,47525698347576E-13;
4,90468947634621E-14;
5,94275639127199E-13;
1,47904717974453E-13;
1,33035219892239E-13;
6,69984431638659E-13;
3,86705122336858E-13;
5,66297600648232E-13;
8,07887651616077E-13;
5,83064657083178E-13;
9,75377994071415E-14;
-2,07219100404335E-13;
6,22746297575272E-13;
9,23304010383144E-13;
-1,34037086081619E-14;
1,39386401534574E-14;
5,72984462831543E-13;
4,80560069317296E-13;
5,89407804995946E-13;
6,61589182730408E-13;
3,62226593187936E-13;
1,6880494004907E-13;
-3,64237345018091E-14;
2,36591148742946E-13;
9,30634390307973E-13;
5,01600831452362E-13;
4,98051075343248E-14;
2,4658052348667E-13;
5,34554553919406E-13;
6,74443446928864E-13;
1,6160345073002E-13;
6,89403379271682E-13;
1,12843339909582E-12;
6,40030119515771E-13;
9,40930980944966E-13;
6,66224659163536E-13;
1,69204734802127E-13;
3,82721698213019E-13;
6,29427583983562E-13;
1,00853172110763E-12;
7,93607668923847E-13;
3,42662536720001E-13;
1,16908521225911E-13;
2,00137706215287E-13;
2,55680125328759E-14;
-9,59098919456288E-14;
7,81074008336166E-13;
5,03193845374631E-13;
-2,41057186172156E-14;
-8,69217531768965E-14;
-4,24696803350447E-13;
2,31309949128959E-13;
9,95269468249512E-13;
1,04717557421287E-12;
1,04433968327975E-13;
-5,31589871605706E-13;
3,79054234550006E-13;
3,2201510043821E-13;
-4,83620207909677E-13;
1,84854152960855E-13;
7,00682169823424E-13;
3,09283288040064E-13;
7,69380922995246E-13;
1,25320578194589E-12;
1,68330635915004E-13;
-5,23578990808223E-13;
2,1160161293768E-14;
-1,28549438145976E-13;
-3,23504109271517E-13;
2,47695311099489E-13;
6,90989039051421E-13;
6,43242376643918E-13;
1,92990573205126E-13;
4,06892055701839E-13;
2,65925895097521E-13;
-6,00862099940533E-13;
3,31327186402259E-13;
7,01498852690306E-13;
-3,29734652535117E-13;
3,41195431008559E-13;
7,9628021025794E-13;
5,9178956281333E-13;
1,08548637802003E-12;
4,38862888225063E-13;
3,28172257983625E-14;
1,24082463280863E-12;
7,30658744995136E-13;
-6,58310444640839E-13;
4,2346203196598E-13;
1,27636179641862E-12;
6,50764110588815E-13;
7,71677772620693E-13;
1,78895929467035E-13;
-4,54024540478852E-13;
6,75270701038614E-13;
8,74784800216392E-13;
2,26986282535499E-13;
2,51721950422423E-13;
2,14376931452979E-13;
1,75293826019101E-13;
2,2121332849322E-13;
7,42026619865248E-13;
9,46703620666474E-13;
1,64346454385745E-13;
-1,30327262084537E-13;
-4,14484225030889E-13;
3,66618457427413E-13;
1,44565695259976E-12;
1,81511140940558E-13;
5,7475683855573E-14;
6,22534339994061E-13;
2,0616237421812E-13;
3,23601291798185E-13;
2,79288829435993E-13;
7,79442387952962E-13;
8,54735445869219E-13;
3,74153632567916E-13;
6,26809896778413E-13;
3,59429025802866E-13;
-4,06890885209124E-14;
2,87327657540577E-13;
9,04023145338656E-13;
6,43342741193292E-13;
2,58323109549133E-13;
6,43190782599617E-13;
3,7796748032399E-13;
1,49701698169611E-13;
2,15146434537543E-13;
3,21774633266459E-13;
8,20584958303853E-13;
3,18686346980984E-13;
-5,28665130978384E-13;
9,19453807470574E-14;
9,10469624953137E-13;
7,12047010125411E-13;
1,56133230432876E-13;
1,26411924963058E-13;
7,56948607863101E-13;
5,38707666266265E-13;
3,85803646115054E-13;
6,64932805026702E-13;
2,3869292328424E-13;
8,85632704240345E-13;
6,71433154259493E-13;
-2,46922600456402E-13;
7,86045393154326E-13;
3,54601523153942E-13;
-1,3773840392227E-13;
7,96840796735219E-13;
-1,70703302490777E-14;
-4,43444370864019E-13;
2,60693391404757E-13;
3,24710420117554E-13;
1,88936188026627E-13;
4,34633598311332E-13;
5,90205510149658E-13;
5,35793599062361E-13;
6,77917137661863E-13;
5,55025685999093E-13;
1,1182934166889E-12;
1,00235323021637E-12;
9,7883835278226E-14;
7,13268416224745E-13;
5,92062167557043E-13;
6,27639856296398E-13;
9,73616561529026E-13;
1,07425315666063E-13;
6,17314786695499E-13;
3,89167794343208E-13;
-1,86722547052193E-13;
5,32246630668129E-13;
-2,08819611841353E-13;
-2,24683333249767E-13;
3,88120887177357E-13;
2,50306784355531E-13;
8,70709816175353E-13;
6,4261583474288E-13;
-1,21784704675519E-13;
4,59737877710331E-13;
9,69314049040707E-13;
5,46924893474006E-13;
2,95100416419654E-13;
-3,05401314861258E-13;
-3,46206409046652E-13;
8,31289843625724E-13;
4,87224253773106E-13;
4,41000008806612E-13;
9,90984549050281E-13;
-4,01358569989476E-14;
2,03078696852619E-13;
8,45257128635057E-13;
8,35433135047379E-13;
9,22852523761274E-13;
2,04133589762326E-13;
-6,23119166899099E-15;
1,88592763608787E-14;
9,47458804327516E-13;
1,36555065575927E-12;
-3,99578015065357E-13;
1,26793081273633E-13;
9,92682929571706E-13;
3,64343267366761E-15;
1,88592804941007E-14;
-7,9523592261758E-14;
-6,05839387681712E-13;
-5,83332472064076E-13;
2,92853697070011E-13;
8,65554366392235E-13;
2,13128837178684E-13;
3,97747749146412E-13;
8,66183527494689E-13;
3,28260864429116E-13;
-1,52333673831496E-13;
2,07434036628784E-13;
1,14742365655595E-12;
7,93032711516367E-13;
1,56619805968046E-14;
3,76917037859408E-13;
6,80062665801882E-13;
3,83590140018166E-13;
-3,92316668788262E-13;
2,61814983388196E-15;
7,21291956596946E-13;
6,41307992513413E-13;
5,73224359578731E-13;
-2,18247895552863E-13;
-5,50834074405551E-14;
2,58279028559437E-13;
-1,13212519493362E-13;
1,79327599832699E-13;
6,19370341034524E-14;
4,21410520923026E-13;
8,44668607599316E-13;
1,11734188828862E-13;
-6,22018006027758E-13;
-4,57191394305741E-13;
6,92121569828013E-14;
3,09661952571805E-13;
1,12342173929699E-12;
1,06403336690962E-12;
2,94941503465495E-13;
8,02594371351734E-13;
4,19803713562736E-13;
1,28158611040996E-13;
6,94583827072243E-13;
6,00596203536879E-14;
4,67252989743236E-13;
1,39897470587143E-12;
5,84459021517123E-13;
1,29127255854426E-13;
8,68275765902831E-13;
5,3090789212097E-13;
-2,30130833059859E-13;
7,27540869835476E-13;
8,46864452169893E-13;
-6,65067583018874E-15;
3,13765381438792E-13;
6,64810913407797E-13;
5,84083653925138E-13;
1,42902153286615E-13;
2,86295414876902E-14;
1,38598122081628E-14;
-8,81413224667509E-14;
2,54563413047811E-13;
1,79798514115685E-13;
-2,89673055435254E-13;
1,27902976368495E-13;
1,34235762206063E-12;
8,12637045228136E-13;
2,64310609892899E-13;
8,14811676655449E-13;
6,19236382240535E-13;
5,60725036323039E-13;
-1,14696963982424E-13;
-2,76936615512112E-13;
4,50793800038972E-13;
6,89695296601983E-13;
9,6016929033938E-13;
1,67693910174212E-13;
-7,72309513970428E-13;
-2,96879835296871E-13;
1,13293853696938E-13;
2,44515005062326E-13;
8,6061729622673E-13;
8,50379269505403E-13;
9,01722982990322E-13;
6,68148441820472E-13;
-3,37362501459225E-13;
6,60990382347022E-13;
9,77614919915199E-13;
-3,92130123839123E-13;
2,34238993127481E-13;
7,17352817570129E-13;
6,31768784243957E-13;
1,19744720972127E-12;
6,23217980191713E-13;
6,95383679188859E-13;
1,17869192303162E-12;
3,02693941034327E-13;
5,55221335928342E-13;
7,00749947331074E-13;
1,27433336549258E-13;
5,65267878898695E-13;
9,17978885738436E-13;
1,13480942110712E-12;
4,74595113571508E-13;
3,30734628332686E-13;
9,62289751817261E-13;
8,44594668340422E-14;
-4,89310488533907E-13;
3,31129866109078E-13;
1,06414620658375E-12;
4,94221696415936E-13;
4,85663325611842E-14;
3,95020320937736E-13;
7,12474376563518E-13;
8,58465843705035E-13;
6,17128467502312E-13;
3,56056856114716E-13;
3,7051087926223E-13;
7,15966759638657E-13;
5,66352831955151E-14;
-7,62218708750716E-13;
-3,86453522807909E-14;
9,2499325138085E-13;
1,04540330068851E-12;
4,15342809535121E-13;
5,4044112460029E-13;
9,52141709103628E-13;
5,35955484663531E-13;
5,6342677445371E-13;
4,75655106015692E-13;
1,36660881540989E-13;
1,26891287791319E-13;
1,49910638295548E-13;
8,49764183254928E-13;
6,69348173154674E-13;
-1,92330863474093E-13;
2,69548321142747E-13;
4,97062741119129E-13;
7,16426435916386E-13;
7,49202965654795E-13;
-1,63162480370428E-13;
-2,3520750109859E-13;
3,61714895438577E-13;
3,99214659951342E-13;
2,35594217556509E-13;
1,16382235531324E-13;
-2,30255215206151E-13;
8,02108608543292E-13;
1,37557957987701E-12;
2,54622748632061E-13;
3,34630276412974E-13;
6,28203071222344E-13;
3,12557804827248E-13;
2,9322488491282E-14;
4,27919928787217E-13;
6,8962017283565E-13;
-1,48007944449768E-13;
3,3821299003726E-13;
1,14439564226889E-12;
8,00936657197783E-13;
3,85150969019958E-13;
4,94447425385818E-13;
7,18179218423049E-13;
1,61620234478187E-13;
8,306564946361E-13;
8,01137514630025E-13;
-4,20613580953487E-13;
5,95445984419058E-13;
1,09702873059996E-12;
2,68083382753225E-13;
5,13603287782113E-13;
1,4745773122364E-12;
6,6308660723781E-13;
-3,26447664876817E-13;
1,0074633402048E-12;
7,07481442085676E-13;
-1,07044972404294E-13;
1,45203336485944E-12;
1,10575415355625E-12;
-2,2216855616795E-13;
5,88498431100878E-13;
7,16522740685228E-13;
2,75445402336631E-13;
3,81162195507853E-13;
3,88556937381861E-14;
-7,20076857314137E-14;
4,36796868190515E-13;
7,03361862307814E-13;
2,41271085720508E-13;
5,56715196625356E-13;
1,05593430450898E-12;
5,89076248623684E-13;
5,83879691058363E-13;
3,33522651076149E-13;
1,63186943824388E-13;
2,69825348783786E-13;
2,97712362358729E-14;
7,1857800234928E-13;
8,70235255760268E-13;
4,23154118207484E-13;
2,44325704947316E-13;
2,6820310284038E-15;
6,03641891044784E-13;
7,60810292878317E-13;
2,84783325411849E-13;
2,3015266604581E-13;
1,09213359169828E-13;
2,00600437800249E-14;
4,37677622448872E-13;
7,63063210478165E-13;
6,17758701499853E-13;
5,76170933482776E-13;
-5,22718221221701E-14;
1,28367373951425E-13;
8,83919605457571E-13;
-4,80411117634022E-13;
-6,73564381096927E-13;
5,76746608647727E-13;
6,60209782291251E-13;
9,03058010895434E-13;
6,2863379870814E-13;
2,0264802784074E-13;
2,21456421243537E-13;
-2,48625382989735E-13;
1,35087473497915E-13;
2,79294146997554E-13;
-3,41284454352334E-13;
3,53954155192986E-13;
4,30603653425581E-13;
-1,18952737110237E-14;
1,72336369274502E-13;
-1,24912291554603E-13;
2,01522995669558E-13;
2,42850273138963E-13;
5,03442676762603E-14;
8,69569481114219E-13;
1,1760851711885E-12;
5,19102991020343E-13;
2,56570033467226E-13;
1,79245678185697E-14;
-4,28848068664438E-13;
3,76437804519366E-13;
6,45642922540286E-13;
3,74693003194423E-13;
3,41294141049286E-13;
3,20739438857436E-13;
1,23070128446858E-12;
1,18193028587132E-12;
8,7625538746681E-13;
5,13605371219035E-13;
1,97628257547674E-14;
1,12035140998304E-12;
6,2841168045002E-13;
-6,47899003924565E-14;
6,1755037492955E-13;
-2,61160637028592E-13;
8,9676066275339E-14;
1,21729790094391E-12;
3,83500575538202E-13;
-2,39886385409594E-13;
4,0499830382109E-13;
8,04480866752578E-13;
2,10309021779103E-13;
8,00932711857947E-14;
1,29190691756543E-13;
-1,29176971568653E-13;
1,8018198774516E-13;
6,42227939332301E-13;
4,24994821139874E-13;
-2,29141185945784E-14;
3,13507554043459E-13;
4,09989605130999E-13;
1,39615457845217E-13;
1,69148976742745E-13;
8,24048979318872E-14;
2,52177991276278E-13;
5,56456415412115E-13;
5,03705237210244E-13;
4,31736195553025E-13;
5,53168168588456E-13;
2,80271704847985E-13;
4,73239318489741E-13;
1,09945484850176E-12;
4,54056527382203E-13;
-1,64670299390437E-13;
-1,29598672255256E-13;
7,33801505675561E-14;
5,2360943667542E-15;
-4,89259111530002E-13;
3,15174293602725E-13;
4,28528453948317E-13;
-2,476560631899E-13;
3,95597934829773E-13;
5,6764877687947E-13;
4,22147140992122E-13;
4,32490752676049E-13;
2,4618256697617E-13;
-5,86110982686043E-14;
1,32633166570359E-13;
4,80015255237753E-14;
-1,5342279385362E-13;
9,13018245073062E-13;
3,05639069499013E-13;
-3,20811533300882E-13;
6,76063332422249E-13;
-9,62235881077446E-14;
-6,05663505640373E-13;
-1,44923875227347E-15;
-3,56979536061081E-14;
4,94044459266128E-13;
9,13531329163998E-13;
8,5009368458126E-13;
1,21830288951068E-12;
1,07372018546851E-12;
4,30305176376133E-13;
2,39130506359552E-13;
6,77641540737436E-13;
8,07267890459901E-13;
3,95434616943671E-13;
4,41829265881657E-13;
-1,40404133254639E-13;
-9,60808638907558E-14;
7,59505556882341E-13;
-9,41930045913529E-14;
7,10194166692095E-13;
1,4510274740564E-12;
5,63432307376443E-14;
4,89297591317117E-13;
6,75856127383135E-13;
9,54171621379587E-14;
-1,08074094742811E-13;
-7,31872908653608E-14;
5,84343368076815E-13;
4,90960397552958E-13;
5,62227830018658E-13;
9,32876311955729E-13;
2,49070312257748E-13;
-4,12561440625468E-13;
3,91940837592535E-13;
7,73602384965639E-13;
5,09983139974014E-13;
1,2529908039193E-12;
5,70114395052205E-13;
1,87852481911744E-13;
2,28377852716329E-13;
-5,8801671426249E-13;
8,3987847236475E-13;
7,31326769116783E-13;
-2,49564489519044E-13;
1,57324259076274E-13;
-9,14872517586525E-14;
7,29816306450286E-13;
7,89958180618858E-13;
6,91496722897288E-13;
9,91119010749412E-13;
-2,8217693821134E-13;
8,34706739635642E-14;
1,42885428011216E-12;
4,71497589179152E-13;
-3,19090007275953E-13;
8,88304051981508E-15;
5,27238755960349E-13;
9,95172717093554E-13;
-1,78746522793971E-14;
2,53289266182155E-13;
1,31972812940554E-12;
3,40335246114137E-13;
2,2089298793119E-13;
1,02355115072896E-12;
9,31620134869959E-13;
2,07512228292868E-13;
-3,73587237879062E-13;
1,603314710741E-13;
3,08488318502933E-13;
-7,00516055315082E-14;
7,83505031592502E-13;
8,53780329979137E-13;
5,06153125235151E-13;
4,28732551598907E-13;
2,07156844350768E-13;
1,37746547304036E-12;
5,495476820033E-13;
-7,8651318026262E-13;
7,15007986224581E-13;
8,92669442481333E-13;
-1,60472455077456E-15;
2,37199815530063E-13;
1,79339114153213E-13;
-4,21622425460013E-13;
-2,34316209734546E-13;
2,19755514406813E-13;
2,9875359087216E-13;
7,74988145897591E-13;
1,08885262291447E-12;
2,50244817091571E-13;
-5,61687143565076E-13;
3,94545889644782E-13;
6,19381517250229E-13;
-2,04644306282378E-13;
8,13394510010991E-13;
1,20371030277739E-12;
3,59597008625488E-13;
4,79760982753246E-13;
5,92530052087148E-13;
4,07915011689274E-13;
1,76023167551655E-13;
-4,18375919837041E-14;
2,2076871585594E-13;
3,0037565879278E-13;
4,88094343274579E-13;
4,18707326368412E-13;
-1,68423555833734E-13;
5,19795541934917E-13;
6,5421159128808E-13;
1,27906666012346E-13;
8,1381524845843E-13;
6,82058532990478E-13;
4,45508873663082E-14;
4,06391964749574E-13;
7,95990689840235E-13;
5,56530100072277E-13;
3,89183476908458E-13;
5,23160701384992E-13;
7,76866161324458E-13;
8,49529125471898E-13;
6,36463649640431E-13;
7,07110374118745E-13;
8,13146463954076E-13;
8,51835794535837E-13;
-5,75433195863584E-15;
-1,96698454341028E-13;
9,3350425008014E-13;
6,12026316509577E-13;
4,05620508873351E-13;
4,55407183774708E-13;
1,70773013418631E-13;
5,19346206992411E-13;
2,64416360964997E-13;
-3,52526778294567E-13;
-1,12596411265788E-13;
6,36175198417767E-13;
2,40824053988777E-13;
1,24855982515383E-14;
9,82777161794046E-13;
1,11496744299046E-12;
5,45108677905583E-13;
4,04840351553285E-13;
5,84251122931782E-13;
1,05312937983312E-13;
-5,90118193197496E-13;
1,9958783122454E-14;
7,14910316399512E-13;
1,08351217899821E-13;
2,22810010713557E-14;
4,45990073450147E-13;
3,44757498024202E-13;
5,29181905240073E-13;
3,23718460440099E-13;
5,76997335138293E-14;
-4,02785331536282E-14;
-2,041657589928E-13;
4,62989179140295E-13;
6,28489202117495E-13;
-1,27336284334432E-13;
1,1459277509688E-13;
9,69021879089362E-13;
6,09975853975198E-13;
2,81187419901729E-13;
5,03769419969316E-13;
3,35779004660159E-13;
1,40826478258004E-13;
2,07225536414669E-13;
1,12657520226325E-12;
5,6286469779497E-13;
-4,77587803434891E-13;
1,02094385022685E-13;
-1,31008101650562E-13;
6,88175453767581E-13;
1,17059885318203E-12;
4,50391695364741E-14;
5,88364932104421E-13;
2,1568166110179E-13;
-5,40581735585918E-13;
2,77040184297049E-13;
8,02511905844112E-14;
2,30456579158536E-14;
2,41762643704686E-13;
8,74943973313839E-14;
4,82711993747005E-13;
3,65064393699293E-13;
8,16874499838234E-14;
-8,91909065273177E-14;
1,83227411924301E-13;
7,31823045901891E-13;
2,69697747632915E-13;
-1,41919184256581E-13;
4,2594352841053E-13;
1,14219272150223E-12;
8,20894515210483E-13;
1,20493635251851E-13;
-4,4438514270018E-14;
9,9147049144625E-14;
1,01341204843764E-12;
1,35682256854343E-12;
1,39670270082762E-13;
-5,17359255790653E-13;
-9,78560775544594E-14;
2,06288808640067E-13;
4,69904386840398E-13;
5,97945006279136E-13;
5,37512594837475E-13;
4,7327955241824E-13;
2,010460451594E-13;
1,41058782843925E-13;
1,89951395781176E-13;
3,66611865924677E-13;
4,02333933089274E-13;
4,22766258988741E-14;
1,24170021435044E-13;
5,2685164083925E-15;
8,55974421094464E-15;
6,85777184236302E-13;
8,64529877332727E-13;
9,31879206581194E-13;
9,76267380886844E-13;
2,97364690109596E-13;
-3,53937410393146E-13;
5,45978734945163E-13;
1,51814758485838E-12;
8,00681072014783E-13;
3,80618938748726E-13;
2,46600707301361E-13;
4,50808958388082E-13;
8,64803646881664E-13;
3,19188761361864E-13;
2,40383781404842E-13;
1,28507023210634E-13;
-2,2353547599797E-13;
-3,06040597370669E-13;
9,17374330984646E-15;
5,54562252966641E-13;
-1,68748603377297E-13;
-5,52464538383662E-13;
2,48187890536879E-13;
5,07517117824138E-13;
2,86347553146701E-13;
3,76066676806089E-13;
3,15019858977959E-13;
-2,79748163088829E-14;
3,45465507092152E-13;
2,93336143909185E-13;
3,16449442516888E-13;
1,11589248474582E-12;
2,17295880706527E-13;
-5,65131408403012E-14;
1,04120840137205E-12;
4,91100535981718E-13;
1,6216171516142E-13;
6,78355133357261E-13;
5,79925529536536E-13;
2,71588386380114E-13;
-2,3038590840729E-14;
-7,16425229545683E-14;
2,51770732469212E-13;
4,28946607832558E-13;
3,05207514116109E-13;
5,05902750712279E-13;
7,42555025189365E-13;
5,025240313472E-13;
4,05352733594707E-13;
2,35428741397688E-13;
9,68269547777777E-14;
2,56453298557331E-13;
-1,34545333339135E-13;
-4,67429521113052E-13;
1,42375051491855E-13;
5,83981523879949E-13;
1,94656974617014E-13;
5,3166666078533E-13;
1,21798953638177E-12;
1,07950581583295E-12;
5,96534194102799E-13;
-4,73086922772315E-13;
-7,6430309001762E-13;
2,94828581066015E-13;
6,57340836662154E-13;
9,29019588256651E-14;
4,85072759356714E-13;
1,01965750539579E-12;
5,70938015834683E-13;
9,23314209593254E-13;
6,16285880143532E-13;
-2,08994261245513E-13;
4,53422004368281E-13;
4,45158713294476E-13;
1,95643602654618E-13;
4,9663713744466E-13;
-7,82667229987331E-14;
-1,37737096458888E-13;
4,57625898626105E-13;
2,75456469759085E-13;
4,57242563645178E-13;
7,26397913407904E-13;
-2,20388663718593E-13;
-4,71128389990799E-13;
8,83195382889125E-15;
1,04500372676885E-13;
9,29420335864673E-13;
7,54628641503222E-13;
-2,74711015313765E-13;
-6,71568444953432E-14;
4,51467710509179E-13;
5,48009381213319E-13;
8,0863641114731E-14;
2,76518705319363E-13;
8,40707246403004E-13;
7,80621060176806E-13;
3,88793541466974E-13;
6,97914786285701E-15;
8,73365153740085E-13;
9,29729843225951E-13;
3,02750020403898E-14;
6,33522775039301E-13;
1,35263546986262E-13;
-5,58656478963544E-13;
3,801172661998E-13;
1,84304194268674E-13;
-6,46389226011948E-14;
-6,67018769265555E-15;
-7,14651841664606E-14;
3,39817461891755E-13;
2,16216748038841E-13;
6,65265650132015E-13;
5,35570097299254E-13;
-1,42013475940185E-13;
3,3425417086031E-13;
3,50590948078975E-13;
7,566432792999E-13;
1,00451860043756E-12;
3,34832141965176E-13;
8,99651222472855E-14;
4,67921172668917E-14;
1,59357272046581E-13;
4,0333349966809E-13;
7,21237171309103E-13;
5,09904788545739E-13;
7,88568296847124E-13;
1,05921669232028E-12;
2,62660477178297E-13;
2,62083558000105E-13;
4,36051975787195E-13;
2,29734728725486E-13;
3,25314974164735E-13;
5,42002116592256E-13;
-1,66580305586223E-13;
-1,30814216446401E-12;
-5,4756934601986E-13;
9,27638929442877E-13;
4,90870429942305E-13;
-3,5981601931698E-13;
9,92497522708753E-13;
1,61712756592216E-12;
7,43453224263376E-13;
8,14646581849991E-13;
5,30085320581958E-13;
4,45365405370216E-13;
2,59869335721395E-13;
3,11011078719313E-13;
9,69955581121739E-13;
2,83196306556911E-13;
3,61595063224282E-13;
2,68509956131262E-13;
-2,34266730991862E-13;
2,99917347061525E-13;
-2,47988073899828E-14;
5,74566449792568E-13;
1,19763036318418E-12;
7,75693463543983E-13;
1,17749293795224E-12;
9,5596758330148E-13;
4,03338349479271E-13;
1,46343979424975E-13;
1,52696052993847E-13;
2,39583189855199E-13;
1,18913027048169E-13;
8,65385630148501E-13;
9,77612379915597E-13;
1,74516796746547E-14;
-2,71324155240229E-13;
-1,03792600442634E-15;
4,30900467371769E-13;
8,48603359544884E-13;
7,07016263147389E-13;
3,25879115603148E-13;
3,84941227677013E-13;
1,62504842369044E-14;
1,82388294225944E-13;
9,00730537381898E-13;
2,5116340927986E-14;
2,34745098300883E-15;
1,90778252576186E-13;
-5,67447167905343E-13;
5,38606619591566E-13;
8,75928009145267E-13;
-2,03560262993866E-13;
-2,73322959505176E-13;
2,92716541315961E-14;
4,12737758929643E-13;
4,66418854650899E-13;
2,12445155788648E-13;
8,16446355103276E-13;
1,14430806421743E-12;
3,14539419319518E-13;
5,13044544986067E-13;
6,66486225423158E-13;
-1,42145417407235E-13;
9,17185402665363E-13;
1,18380930245614E-12;
-7,55963026083432E-13;
-1,00637739263497E-13;
1,13986963899062E-12;
2,39717712973101E-13;
3,46652000008132E-13;
1,05309010028598E-12;
7,41401080256232E-13;
3,19027500567641E-13;
3,69516169932641E-13;
6,50144412432798E-13;
5,75026881372887E-13;
3,91726649349703E-14;
-5,55239178909876E-14;
3,50640354521105E-13;
1,43233631090636E-13;
9,88109466905729E-14;
1,07162037258694E-12;
9,60786681984163E-13;
2,64230080330098E-13;
1,28004958250676E-12;
8,91898379209645E-13;
-1,90879722735611E-13;
5,39208152917932E-13;
4,44103287897083E-14;
-2,25211617037467E-13;
2,91455025841666E-13;
3,22006512665568E-13;
7,9965947630765E-13;
4,49539030690319E-13;
-1,62417805205643E-13;
-1,04509121615434E-13;
1,73749086586896E-13;
4,80461963480817E-13;
3,5659397827278E-13;
2,15035940845241E-13;
6,17391885293621E-13;
1,01713063941224E-12;
4,6837477207517E-13;
4,79393644662554E-14;
5,97938511536315E-13;
2,3044904371993E-13;
-1,58929013393576E-13;
-1,91818400469157E-14;
-1,2365908449321E-13;
1,02535918565663E-12;
9,89788964543906E-13;
-6,03742561458475E-14;
1,18829916882056E-13;
-1,72904429568193E-13;
1,4580516516461E-16;
1,70283502203279E-13;
1,42579170353517E-13;
1,01255223625963E-12;
7,11029055417208E-13;
-1,01259287941937E-13;
5,2767808921543E-15;
6,76003703855619E-13;
1,12703483748173E-12;
4,50843091506886E-13;
-8,26541618373996E-14;
2,04459807326889E-13;
8,28995013925641E-13;
4,3323319079939E-13;
-8,17306203787271E-13;
2,17122182456921E-13;
1,43912587028932E-12;
6,48480086457262E-13;
8,28285386562347E-13;
1,1177627674439E-12;
5,77968045763588E-13;
4,67754971817367E-13;
-2,07073124349444E-13;
-4,09150957320727E-13;
3,94719476697678E-13;
5,23808102088396E-13;
7,55735665784526E-14;
2,70270121230257E-13;
1,11861187534715E-12;
8,126797296612E-13;
2,60178724217336E-13;
2,70000878555123E-13;
-6,88049753113585E-14;
4,79922450140499E-13;
9,37019118323679E-13;
7,13158586973173E-13;
7,56598205189925E-13;
4,26267137254371E-13;
4,11094217505709E-14;
-2,41886681573354E-13;
-9,18028856083117E-14;
4,08154954237934E-13;
5,14936701352518E-13;
3,50521581551961E-13;
9,83774760964631E-14;
-1,66479959061844E-13;
-1,84125948388634E-13;
5,11564839482727E-13;
5,9914265852949E-13;
3,52595256140197E-13;
8,82170056562457E-13;
1,06616695585312E-12;
1,52096672107131E-12;
1,21911168183266E-12;
-1,96258083238092E-13;
-1,78713116603912E-13;
8,37314698421461E-14;
3,65868957402965E-13;
7,87738793808889E-13;
1,84402162683903E-13;
3,96039089714548E-13;
4,03886317239332E-13;
-2,03329332031981E-13;
1,05953295554394E-13;
-6,6595597265878E-14;
1,32243276549341E-14;
7,9136815070844E-13;
8,99822600690042E-13;
6,51536635224195E-13;
4,09675139435893E-13;
1,52938847510072E-13;
1,68958312047087E-13;
5,55278251599351E-13;
5,37221552209549E-13;
2,04291061617433E-13;
4,18414872610461E-13;
5,38256072748025E-13;
1,97739185867937E-14;
-4,08073021472691E-13;
6,62355756731643E-13;
9,35520861310894E-13;
-5,0707228947785E-14;
8,57046577117088E-13;
1,89210124699281E-13;
-5,83062133690149E-13;
8,61740425333215E-13;
6,98087763173473E-13;
6,91333131038906E-13;
6,34498781814842E-13;
2,28848688004389E-13;
3,56128752614392E-13;
-1,41531004998975E-13;
3,79182287104232E-13;
2,95117986472813E-13;
-1,36620368789056E-13;
7,41331062836287E-13;
5,55421770326249E-13;
7,28963361963942E-13;
1,86885955917021E-13;
-6,65346022073641E-13;
7,91353713939159E-13;
7,21072260660267E-13;
4,46438158268085E-13;
1,11917800695962E-12;
4,06311216499047E-13;
1,46306918170035E-14;
3,3724733159253E-13;
8,76316095159811E-13;
4,55391312400799E-13;
-7,00599574289577E-13;
-6,6448331714852E-13;
2,81811520859852E-14;
4,42646321610273E-13;
5,22001613455552E-13;
7,16468040831377E-13;
3,39581878101991E-13;
-1,87139832669592E-14;
-2,78023896921541E-13;
-3,96168202200489E-13;
1,17450591429139E-12;
8,94260580670302E-13;
-4,4172875189085E-13;
8,17077649183846E-13;
1,32235607242147E-12;
9,90884761288345E-13;
1,14913057927885E-12;
6,58939178673238E-13;
7,32914194889904E-13;
3,38434847228074E-13;
-1,77081335542981E-14;
6,36955567993021E-13;
-4,74776052627877E-14;
4,1553356246324E-13;
7,87247924037852E-13;
-2,70243643184553E-13;
3,59265175908767E-13;
3,28971673812019E-13;
3,19044203533251E-13;
8,60788924457209E-13;
8,98824555009517E-13;
1,01974619736498E-12;
4,38307795826612E-13;
9,0285650688865E-13;
1,08589447528169E-12;
-9,12765023112459E-14;
-1,67270335824375E-13;
8,36116066167722E-13;
5,87095863869573E-13;
-8,0158026086571E-13;
2,59373285943181E-14;
3,15425467116257E-13;
-1,12910036879006E-12;
-2,73550163288448E-13;
5,3699183653919E-13;
1,81681973903324E-13;
8,53948192099565E-13;
1,02322657447838E-12;
-4,21305963330084E-14;
-4,23726722173154E-13;
2,07839478505902E-13;
1,40560494848149E-14;
7,65624431972523E-14;
3,60311647069096E-13;
-4,70132645001521E-13;
4,44486234620964E-13;
1,03507271070715E-12;
-5,0511964329386E-13;
-5,25365922969759E-13;
3,67893545373438E-14;
4,37023152766834E-14;
2,67902187589522E-13;
2,94280405412312E-13;
7,23438023592836E-13;
7,15507599515532E-13;
-2,20373160679914E-13;
-1,33518649467447E-13;
3,86151188856751E-13;
7,27904858907727E-14;
-1,48708395246736E-13;
-1,91035502219103E-15;
5,23955287217031E-13;
6,33230568087828E-13;
-1,99429070257793E-13;
-1,27935362438002E-13;
1,05410888939133E-12;
1,05503932531031E-12;
-3,79852610770484E-13;
-2,04609251679996E-13;
5,24279558426402E-13;
5,03306492585978E-14;
5,53858415624786E-13;
9,77928484748452E-13;
7,16942613447563E-13;
5,01207605718866E-13;
3,7114293758228E-13;
2,59119969560608E-13;
3,44976824581573E-13;
1,21696807725955E-12;
1,00548671924405E-12;
6,65299571470076E-13;
1,34261563658853E-12;
6,61093236828754E-13;
-3,09135792870348E-14;
3,74609239516042E-13;
1,76759452203061E-13;
3,86427480842262E-13;
1,14210726930618E-12;
6,61186395968106E-13;
9,63860423449017E-14;
1,62998643451129E-13;
-3,39741251339541E-14;
1,85875256573591E-13;
7,65719043762469E-13;
9,11170531941107E-13;
6,19983725008573E-13;
4,96187680895954E-13;
6,17502782775424E-13;
2,00341710728542E-13;
-2,38918823749737E-13;
2,69507784530985E-13;
8,22403118820378E-13;
3,43325748470981E-13;
-9,50104763960643E-14;
-1,24830772500556E-13;
3,05635894372647E-13;
9,01495308446954E-13;
6,45380682652139E-13;
4,36698281500646E-13;
-1,19883849784846E-14;
1,37244503159819E-13;
8,6149230740692E-13;
-5,33452401374458E-14;
1,31609573085278E-13;
7,51063370908401E-13;
-1,92421439122306E-13;
6,73102584857744E-13;
1,13218273370785E-12;
-1,58781837361582E-13;
-2,5571302313801E-13;
1,07414646216808E-13;
7,17949698681132E-13;
3,28686999273882E-13;
-7,93120535013537E-13;
7,92900682930202E-14;
5,60639470707038E-13;
-1,25339431876597E-13;
6,01227377669589E-13;
1,32813618186837E-12;
6,7614027488635E-13;
3,44927918908289E-14;
5,54267829234457E-14;
2,4826303122969E-13;
7,33702612437443E-13;
9,81604894331327E-13;
2,03872264481498E-13;
9,10964188871715E-14;
2,80782665803324E-13;
6,51326586980876E-13;
1,17327795014484E-12;
6,6824429037782E-14;
2,89500200254016E-13;
1,18503259580223E-12;
2,36857710997345E-13;
5,69801535580074E-13;
1,10040325970599E-12;
-2,16716534309336E-13;
-2,29952450197998E-13;
5,53375830830934E-13;
5,02975919093633E-13;
8,93839581284009E-13;
5,71300418007927E-13;
4,50566429833622E-15;
5,81573727771895E-13;
1,17590278552299E-12;
3,72400593335282E-13;
-1,52351254261327E-13;
8,33937874088347E-13;
4,82834105682664E-13;
-6,33896569624581E-14;
1,83335567460723E-13;
1,38009486826939E-13;
6,33339752157949E-13;
5,29557036425214E-13;
1,18003264130132E-13;
3,97151956681197E-13;
1,48007440312649E-13;
2,6001195823645E-13;
8,46871825449457E-13;
1,70686385966273E-15;
3,92767579124803E-13;
1,77113783305084E-12;
3,0875787903462E-13;
-1,68346127961841E-13;
7,02577388065698E-13;
-4,92707162453671E-14;
5,60854225205236E-13;
6,38059676771279E-13;
-5,44685896686663E-13;
2,17209203058866E-13;
4,71572196738562E-13;
3,64978788929741E-13;
5,64569701324841E-13;
-1,24865568148015E-13;
3,81010963448226E-13;
8,60703068824955E-13;
7,05191373048858E-14;
-4,61792968783275E-13;
-3,46360398268131E-13;
7,02612905041446E-13;
6,03069185189644E-13;
-6,42096249071153E-14;
7,75925303227616E-13;
4,66156248600274E-13;
-2,37748475764339E-13;
6,63350064614256E-14;
-4,00134315375723E-13;
-1,68901758190553E-13;
9,71512389306542E-13;
8,6797518419164E-13;
5,31637562725039E-14;
2,76746637355334E-13;
1,37664694834618E-12;
9,88049278591898E-13;
-2,69843121584277E-13;
2,49420033535953E-13;
1,00028003391418E-12;
2,15704830550484E-13;
-5,32451402080242E-13;
-2,43993395887875E-13;
5,04955248124533E-13;
8,41845522036938E-13;
3,68402052509107E-13;
-1,70498080838182E-13;
2,25047901028857E-13;
8,21907391960445E-13;
4,15333700223083E-13;
1,06509915506265E-13;
3,02638610024066E-13;
6,08648510300103E-13;
5,61178059806117E-13;
1,10785458620697E-13;
6,63386541292984E-13;
8,97209462983951E-13;
4,54184754479165E-13;
6,85806649042964E-13;
1,04118438204619E-12;
8,56786728778681E-13;
1,15106453209207E-13;
1,29122784840838E-15;
4,90962070213324E-13;
6,08091933653565E-13;
2,18073312125536E-13;
-2,55413309542003E-13;
1,00652476861154E-13;
8,52616498440965E-13;
1,11866754660467E-12;
1,1797165824198E-12;
6,98794241840254E-13;
9,18643988736363E-13;
1,43138015526257E-12;
-1,2492745836984E-13;
-1,79192211471235E-13;
7,30641448658918E-13;
-5,00213726894603E-13;
-3,16524398204597E-13;
1,17194147374519E-12;
1,22537002307524E-12;
3,21755618568003E-13;
8,39044401843556E-14;
4,62681170360637E-13;
1,2263236137648E-13;
2,3387090849891E-13;
6,54453030782671E-13;
1,98298776807592E-13;
2,59370052782629E-13;
7,92820579474349E-13;
1,13619978785148E-12;
8,1355601556978E-13;
1,97390114300409E-13;
4,07854130855012E-13;
9,42869330861134E-14;
-1,10948513685975E-13;
5,53883729171021E-13;
4,98169798326398E-13;
3,87490506389698E-13;
3,35153007128729E-13;
8,75411244038008E-14;
4,7271120877049E-13;
3,41456751908252E-14;
-4,31881857117004E-13;
3,15116841565716E-13;
3,98433996188138E-13;
5,49376701662948E-13;
5,0340308704022E-13;
-2,13817705439796E-13;
-2,25340573363811E-14;
5,68813083318312E-13;
5,92594347543371E-13;
9,96080965649661E-14;
1,85929028710878E-13;
7,99223327074423E-13;
1,05307863265535E-12;
6,48032600077049E-13;
-1,31918011835979E-13;
-2,03439813728046E-13;
-7,2677224034468E-14;
-4,0365477501679E-13;
-1,40024532514505E-13;
6,772863464739E-13;
7,47333157365694E-13;
2,17091883732449E-13;
2,15914629528953E-13;
7,17742105980953E-13;
7,1828274622119E-13;
3,63412884059187E-13;
1,54739908780055E-13;
3,59661413423242E-13;
8,61215410460179E-13;
9,39995258968631E-13;
5,69837960805182E-13;
3,3775908616298E-13;
1,07400236682674E-12;
7,34477173142825E-13;
-6,18070697951538E-14;
6,78327734324337E-13;
3,56640874191967E-13;
3,73404987174031E-13;
9,34576327995477E-13;
6,3034233357509E-13;
6,4777307769708E-13;
2,34531211979993E-13;
-5,71393354464152E-14;
-2,57743091407112E-13;
-4,17347398519505E-14;
5,40001443679737E-13;
2,6982614949559E-13;
2,73234420924606E-13;
1,37615343014116E-13;
4,89021653107679E-14;
4,03252621743846E-13;
4,60213237824409E-14;
-5,49034526124537E-14;
6,23252271299085E-13;
5,5570363209983E-13;
1,71403270084614E-13;
5,46677892090442E-13;
2,07548224612529E-13;
-3,44374536965839E-13;
1,31277875693082E-13;
7,42959311736345E-13;
3,75214606818894E-13;
-4,48075612414515E-13;
3,94860413752757E-13;
8,68734171615277E-13;
4,03371868367754E-13;
9,66511395895198E-13;
9,53156014223005E-13;
9,01234763907717E-13;
5,64851471809614E-13;
-5,22815461910858E-15;
4,45561491996544E-13;
2,20546844838236E-13;
4,21427490707431E-13;
9,1333685719501E-13;
4,72840928357068E-13;
2,0624415893561E-13;
7,70825118593489E-13;
9,5375032721379E-13;
6,38542593024209E-14;
6,99150217313638E-13;
8,42800900928836E-13;
3,74436185853261E-13;
6,00093158802131E-13;
-3,54223659250875E-13;
2,94315826002879E-13;
7,3568455719077E-13;
6,35279621310115E-14;
6,79917751270806E-13;
3,30045738129306E-13;
-7,7514391319172E-15;
3,93170688563971E-13;
2,648886549193E-13;
6,13522788795369E-13;
3,67573693020582E-13;
-5,55653700921173E-13;
1,73439772915212E-13;
7,1823232562058E-13;
2,4291680717476E-13;
-1,69435005818283E-13;
-1,04969250218982E-14;
9,59889464982544E-13;
3,02246327168676E-13;
-6,718860967028E-14;
7,6549874289718E-13;
-1,44693103993837E-13;
3,10246060922369E-13;
1,84816476248155E-12;
9,27385400496563E-13;
5,50458785432921E-14;
4,98896956797097E-14;
-4,39224257556966E-14;
-1,53925257454261E-13;
-4,48907220716334E-13;
9,13387103736229E-14;
5,11430824826334E-13;
1,25284875697961E-13;
6,57554504738242E-13;
1,25893311064156E-12;
5,6740092693758E-13;
2,6946951796867E-13;
8,69692964532637E-13;
7,94489336868936E-13;
-9,81750343455965E-14;
-1,20430142413072E-13;
5,98866381516901E-13;
2,46531327899228E-13;
-1,13612199098569E-13;
4,29803245871137E-13;
7,94196068354895E-13;
1,48212836799293E-13;
-5,04603434891882E-13;
6,29728318166253E-13;
1,52018310126335E-12;
4,36488077451851E-13;
-5,43512912279196E-14;
2,7860590911634E-13;
-1,88314427063276E-14;
8,66125772334825E-15;
-5,02595176064912E-14;
1,55349420007181E-13;
1,05485988845926E-12;
5,1518566002542E-13;
-7,35722306580248E-14;
3,53148065479592E-13;
3,95156178654313E-13;
5,70943251062811E-13;
6,85088214371762E-13;
7,62275687687688E-13;
2,61909662462124E-13;
-2,77420379468652E-13;
4,38107182346724E-13;
4,58803099831724E-13;
8,63401603479408E-14;
-1,48958474026329E-13;
-1,10847137095641E-13;
4,55054319836083E-13;
1,90403698858396E-13;
2,71000482845126E-13;
5,89097458754757E-13;
5,49709387881131E-13;
6,11434301837129E-13;
5,27677641344361E-13;
7,12332545739943E-13;
3,56869190820859E-13;
-3,9354287459616E-13;
-3,4316492070302E-13;
2,66328942077351E-13;
2,6078534283892E-13;
1,94557065384445E-13;
2,66894352596569E-13;
-3,16244570454996E-13;
1,10759705648002E-13;
1,01683305464525E-12;
9,87580786664338E-13;
3,44190482010703E-13;
5,82083176447454E-13;
1,17440150694204E-12;
6,86972811952655E-15;
-2,09965745478538E-13;
6,36081756350914E-13;
6,47743950791466E-13;
7,62047677127842E-13;
5,61394714085134E-13;
2,12074123255393E-13;
2,21334133578522E-13;
-1,02826599418226E-13;
-3,05929248917777E-13;
3,27030419822131E-13;
4,39941819261488E-13;
5,26160303585713E-13;
1,42937702919276E-12;
9,1150602309744E-13;
3,41087047037836E-13;
9,84041512874193E-13;
1,11862993254704E-13;
-3,06730808950943E-13;
8,86715567875118E-13;
7,60434007809037E-13;
6,60258639822783E-13;
8,52066473671681E-13;
3,03501114499883E-13;
9,51794041029102E-14;
2,77604203626178E-13;
6,7825887852337E-13;
4,34307397054237E-13;
1,1604422529313E-13;
-2,35011716871512E-13;
-5,70234227232721E-13;
3,93471980484484E-13;
5,53808735586919E-13;
-5,21388273908934E-14;
1,4890452786727E-13;
4,32317430123809E-13;
7,7117704557593E-13;
5,98240265876271E-13;
6,81476966646309E-13;
1,63708423154114E-12;
9,69115484603468E-13;
-2,09338606164977E-13;
2,82064262190593E-13;
6,84928321981569E-13;
-8,65476564802685E-14;
6,15737491497403E-14;
1,25262872498706E-12;
3,22434698912614E-13;
-2,13237594615969E-13;
6,07706197139883E-13;
-2,98066993523973E-14;
-4,34146418459943E-13;
-8,30611365226538E-14;
7,45655538404977E-13;
1,05679582881661E-12;
6,15441985582955E-13;
7,21906416057176E-13;
2,06223563758427E-13;
-1,74642938084703E-13;
2,73201824851812E-13;
6,48079169839791E-13;
5,3324549137793E-13;
1,24926432004513E-13;
8,33553240122519E-13;
