5,35870852136339E-7;
1,15625072648793E-6;
1,37854855796909E-6;
1,17402083597465E-6;
7,43099513549775E-7;
3,55843917328402E-7;
1,63819464272518E-7;
1,2496279636592E-7;
8,53285693279025E-8;
-6,49733075413015E-8;
-2,96911272424481E-7;
-4,83048228336302E-7;
-5,27960284964914E-7;
-4,66422260590358E-7;
-4,37409596955875E-7;
-5,52168906523541E-7;
-7,70689450441672E-7;
-9,00426541820818E-7;
-7,32329213437299E-7;
-2,1299847773148E-7;
4,85064761961428E-7;
1,0581052151224E-6;
1,26549083474223E-6;
1,08024423155448E-6;
6,86280134922485E-7;
3,31718921029166E-7;
1,55947265296989E-7;
1,20520824258157E-7;
8,41907633550547E-8;
-5,39212357220236E-8;
-2,67237357412182E-7;
-4,38873029531124E-7;
-4,81238196093133E-7;
-4,26083671656421E-7;
-4,00693764714186E-7;
-5,07016650069967E-7;
-7,08516057707659E-7;
-8,28950776173923E-7;
-6,76834424803874E-7;
-2,02954244719487E-7;
4,35328439043233E-7;
9,6049985298302E-7;
1,15247105557484E-6;
9,86116592505626E-7;
6,28839998439715E-7;
3,06808171536011E-7;
1,47205994494902E-7;
1,15175058205199E-7;
8,21434290367103E-8;
-4,37665337122926E-8;
-2,38418506662068E-7;
-3,95451262063002E-7;
-4,35098295363855E-7;
-3,86112094660358E-7;
-3,64147957448995E-7;
-4,61902735766595E-7;
-6,46279002013251E-7;
-7,57231810790809E-7;
-6,20737451947566E-7;
-1,91779501222022E-7;
3,87237916306005E-7;
8,64782251690588E-7;
1,04113131593005E-6;
8,93051694363129E-7;
5,71698442805172E-7;
2,81585212909064E-7;
1,37843235021183E-7;
1,0912914169182E-7;
7,9345017545E-8;
-3,45286247551556E-8;
-2,10751397430686E-7;
-3,53304296201847E-7;
-3,90122557509881E-7;
-3,47030427451799E-7;
-3,28273357907563E-7;
-4,17468895509235E-7;
-5,84878662886918E-7;
-6,86328054400903E-7;
-5,64919874620514E-7;
-1,79789757905087E-7;
3,4124683051402E-7;
7,72045829963697E-7;
9,32813228082747E-7;
8,02221496166518E-7;
5,15625932103178E-7;
2,56452225875729E-7;
1,28079185025979E-7;
1,02565741441586E-7;
7,59372206227209E-8;
-2,62125388062389E-8;
-1,84463455742945E-7;
-3,12845636026221E-7;
-3,46780881671665E-7;
-3,09263349176045E-7;
-2,93480305989256E-7;
-3,74242193819121E-7;
-5,25055406120684E-7;
-6,17113934856024E-7;
-5,10121067669477E-7;
-1,67266189360537E-7;
2,97705735663782E-7;
6,83168087740194E-7;
8,28601538837087E-7;
7,14574812117397E-7;
4,61249946577939E-7;
2,31742796028535E-7;
1,18104204111968E-7;
9,5648864720288E-8;
7,20519338420279E-8;
-1,88042346048437E-8;
-1,59726130171787E-7;
-2,74400223526378E-7;
-3,0544225190461E-7;
-2,73146883557479E-7;
-2,60097228086684E-7;
-3,32647251236191E-7;
-4,67408444979294E-7;
-5,50300790135879E-7;
-4,56943776170924E-7;
-1,5444992512402E-7;
2,56865183652567E-7;
5,9881861700067E-7;
7,29340685370838E-7;
6,3085950346364E-7;
4,09072503076662E-7;
2,07734745078243E-7;
1,08085095194647E-7;
8,8520098316068E-8;
6,78065836275148E-8;
-1,22787293927144E-8;
-1,36658092247478E-7;
-2,3820475437486E-7;
-2,66386060522611E-7;
-2,38939661602827E-7;
-2,28376447142034E-7;
-2,93016208174497E-7;
-4,12407488893856E-7;
-4,86448233696961E-7;
-4,05876528842361E-7;
-1,41553211278813E-7;
2,18897585520295E-7;
5,19495762040848E-7;
6,35669774402598E-7;
5,51646414315895E-7;
3,59484320560254E-7;
1,84651733458176E-7;
9,81606618390444E-8;
8,13036782575207E-8;
6,33084983564395E-8;
-6,60016463187179E-9;
-1,1533468455077E-7;
-2,04426774076701E-7;
-2,29810847451496E-7;
-2,06828073122512E-7;
-1,9850698985688E-7;
-2,55598925886669E-7;
-3,60409725251282E-7;
-4,25983606314358E-7;
-3,5729395242406E-7;
-1,28759010672942E-7;
1,83900145589255E-7;
4,45541652697989E-7;
5,48035972181769E-7;
4,77345844929836E-7;
3,12775730685748E-7;
1,62667964714753E-7;
8,84490829632568E-8;
7,41090589139339E-8;
5,86528177417943E-8;
-1,72530329670983E-9;
-9,57891529795587E-8;
-1,73169874396176E-7;
-1,95849630289452E-7;
-1,76938705342824E-7;
-1,70620334673896E-7;
-2,20574777294706E-7;
-3,11673369371858E-7;
-3,69222579616415E-7;
-3,11482486955237E-7;
-1,16216679313787E-7;
1,51912470618934E-7;
3,77161807381675E-7;
4,66731068027721E-7;
4,08233685754036E-7;
2,69146888583884E-7;
1,41914340224245E-7;
7,9047526910816E-8;
6,70229590296238E-8;
5,39205148254636E-8;
2,39858944576193E-9;
-7,80245340276064E-8;
-1,44482413764417E-7;
-1,64572489328912E-7;
-1,4934573385532E-7;
-1,44796323880831E-7;
-1,88058349845579E-7;
-2,6636521759993E-7;
-3,16370436713082E-7;
-2,6863775135662E-7;
-1,04050958708232E-7;
1,2291882490633E-7;
3,14447406716397E-7;
3,9190486786923E-7;
3,44463043658474E-7;
2,28726187036498E-7;
1,22485382105747E-7;
7,00325285113203E-8;
6,01253986096769E-8;
4,91849431540887E-8;
5,82360914716917E-9;
-6,20153936155301E-8;
-1,18368016488482E-7;
-1,3599787955287E-7;
-1,24076399859513E-7;
-1,21076113510118E-7;
-1,58110397971491E-7;
-2,24579285540502E-7;
-2,67549518037217E-7;
-2,28887273519977E-7;
-9,23663021069119E-8;
9,68643589969492E-8;
2,5739264429213E-7;
3,23588071554761E-7;
2,8608725703016E-7;
1,9157130802165E-7;
1,04440215123392E-7;
6,14656860150707E-8;
5,34773256137399E-8;
4,45065850402573E-8;
8,6050707914804E-9;
-4,77149407661248E-8;
-9,47913521357288E-8;
-1,1010605880027E-7;
-1,01121841047562E-7;
-9,94592609009524E-8;
-1,3074339403141E-7;
-1,86341359013418E-7;
-2,22801591550503E-7;
-1,92292708231519E-7;
-8,12418084260825E-8;
7,36562031983733E-8;
2,05906143066688E-7;
2,61712977296026E-7;
2,33072724639966E-7;
1,57684565911073E-7;
8,78117999113993E-8;
5,33942475249752E-8;
4,71271438524394E-8;
3,99386849790797E-8;
1,08032572788488E-8;
-3,50584645646406E-8;
-7,36839337462081E-8;
-8,68345909129576E-8;
-8,04360994399153E-8;
-7,99161662934496E-8;
-1,05933484869537E-7;
-1,51623659327256E-7;
-1,82103762003412E-7;
-1,58862349534175E-7;
-7,0741303770046E-8;
5,31736266118244E-8;
1,59832649530411E-7;
2,061280316707E-7;
1,85313045154051E-7;
1,27022694516982E-7;
7,26043573032517E-8;
4,58488939823102E-8;
4,11155067580039E-8;
3,55225294487738E-8;
1,24758934729033E-8;
-2,39630673343331E-8;
-5,49527953449015E-8;
-6,60989294340032E-8;
-6,19545298188558E-8;
-6,23937635136558E-8;
-8,36225846406005E-8;
-1,20354915235276E-7;
-1,4538295506362E-7;
-1,28557849392646E-7;
-6,0906175626071E-8;
3,52756538010365E-8;
1,18962697274402E-7;
1,56616115425263E-7;
1,42642436999558E-7;
9,95032393721188E-8;
5,88051170379094E-8;
3,88486140887801E-8;
3,54694824790836E-8;
3,12942879267475E-8;
1,36792772558256E-8;
-1,43414556971868E-8;
-3,84867171034727E-8;
-4,77880484526138E-8;
-4,55843443999823E-8;
-4,68161781811982E-8;
-6,37242216794437E-8;
-9,24215611697377E-8;
-1,12520236264036E-7;
-1,01302786937301E-7;
-5,17621812357302E-8;
1,98067609532247E-8;
8,30433661459042E-8;
1,12906638176678E-7;
1,04850753457427E-7;
7,50099256906093E-8;
4,63844159007032E-8;
3,24070287553098E-8;
3,02072387126188E-8;
2,72812258556151E-8;
1,44707895799449E-8;
-6,09542781162736E-9;
-2,41563424873105E-8;
-3,17723758840232E-8;
-3,12215678717464E-8;
-3,30952153480258E-8;
-4,61355622482427E-8;
-6,76842691091414E-8;
-8,33575208539334E-8;
-7,69927688259905E-8;
-4,33292407878468E-8;
6,59868266049136E-9;
5,17906698726225E-8;
7,46870227742372E-8;
7,16911630780825E-8;
5,34047747507379E-8;
3,52922972962268E-8;
2,65206804862128E-8;
2,53408897490986E-8;
2,35038667283242E-8;
1,49022490265702E-8;
8,77978903841239E-10;
-1,18222861871762E-8;
-1,79126106104697E-8;
-1,874741156109E-8;
-2,11241407318694E-8;
-3,07323399262387E-8;
-4,59791960545372E-8;
-5,77140896532662E-8;
-5,54956434529784E-8;
-3,5607602437008E-8;
-4,52431513114773E-9;
2,4899625950556E-8;
4,16208357371543E-8;
4,2889264381445E-8;
3,4530286345644E-8;
2,54752140724867E-8;
2,11857945761193E-8;
2,08778104744547E-8;
1,99773499745118E-8;
1,50238456957025E-8;
6,68316099831158E-9;
-1,34181149856239E-9;
-6,05968658866258E-9;
-8,03515879764322E-9;
-1,07944459953464E-8;
-1,73850709473314E-8;
-2,71269704743987E-8;
-3,53851400212573E-8;
-3,66628915979981E-8;
-2,85913483936634E-8;
-1,3736645963528E-8;
2,0485394756186E-9;
1,33438733593182E-8;
1,81518759413907E-8;
1,82134696900979E-8;
1,68664000821988E-8;
1,63877187038509E-8;
1,68112951900188E-8;
1,67105567960338E-8;
1,48850349720816E-8;
1,14254548869979E-8;
7,43517519845906E-9;
3,94036776507781E-9;
1,04645703557513E-9;
-1,98715023091682E-9;
-5,9506086853048E-9;
-1,09344149108989E-8;
-1,61541795857466E-8;
-2,03327170728803E-8;
-2,22669574583989E-8;
-2,12161565694602E-8;
-1,70841013137082E-8;
-1,05103322831944E-8;
-2,82586943834982E-9;
4,27537045499139E-9;
9,39390527658448E-9;
1,21096116633251E-8;
1,31393819516941E-8;
1,37071899641407E-8;
1,45273178241442E-8;
1,52080268621614E-8;
1,4660011438966E-8;
1,2245696781547E-8;
8,62754877895179E-9;
5,41688747173998E-9;
3,71887586032846E-9;
2,79527291431346E-9;
2,04930233072026E-10;
-6,33325837467856E-9;
-1,66127441194101E-8;
-2,71350459036761E-8;
-3,2830321893756E-8;
-3,03180814592664E-8;
-2,03495169628727E-8;
-7,47095529900263E-9;
2,97977034215333E-9;
8,32864047233107E-9;
9,84853355993555E-9;
1,09689884416106E-8;
1,39947272085536E-8;
1,8132427160137E-8;
2,04780010062957E-8;
1,90105015483637E-8;
1,4846691457043E-8;
1,15382317999879E-8;
1,17666413358544E-8;
1,42671199682232E-8;
1,39239275744753E-8;
5,51267587116411E-9;
-1,15999538981904E-8;
-3,16636372073495E-8;
-4,55134698747507E-8;
-4,64520253847119E-8;
-3,47298626871018E-8;
-1,72104233564926E-8;
-2,4541798080173E-9;
5,01736973091697E-9;
6,92625901779868E-9;
8,49157608048108E-9;
1,33192610290011E-8;
2,02978264478607E-8;
2,50370420400588E-8;
2,43875697024404E-8;
1,98334218019967E-8;
1,64973374437904E-8;
1,83422963517577E-8;
2,36802169777654E-8;
2,52328497878912E-8;
1,53837093234269E-8;
-7,19854642476765E-9;
-3,49619183654396E-8;
-5,54483655637172E-8;
-5,92760990453722E-8;
-4,62684026395267E-8;
-2,51275465859988E-8;
-6,98602564443499E-9;
2,15062027274461E-9;
4,35377370692238E-9;
6,26935289432519E-9;
1,25379953734076E-8;
2,17942005430293E-8;
2,84736478908407E-8;
2,85260800726178E-8;
2,37160497937586E-8;
2,0410752519296E-8;
2,35896416051105E-8;
3,12334901492994E-8;
3,43590509943396E-8;
2,34574501045051E-8;
-3,37297947911673E-9;
-3,71847527848631E-8;
-6,29403498329243E-8;
-6,91439356498804E-8;
-5,52617093461079E-8;
-3,1406226867468E-8;
-1,06981053992868E-8;
-3,02199776170944E-10;
2,11378509287433E-9;
4,29494121868626E-9;
1,16788923999774E-8;
2,27111828820329E-8;
3,09229678801967E-8;
3,15667195493232E-8;
2,66186255648212E-8;
2,33927460072836E-8;
2,76474649800275E-8;
3,71192492673369E-8;
4,1526417268399E-8;
2,99080430335063E-8;
-8,7796636310243E-11;
-3,84755663889978E-8;
-6,82779982843959E-8;
-7,639427245978E-8;
-6,19932130938461E-8;
-3,62196152958884E-8;
-1,36707838182386E-8;
-2,37264744929598E-9;
1,86755310747707E-10;
2,55670416166737E-9;
1,07689764118502E-8;
2,31302310653487E-8;
3,25101753113003E-8;
3,36458559566374E-8;
2,86578028017149E-8;
2,55494973315875E-8;
3,06500376105028E-8;
4,15233154372693E-8;
4,69475283395269E-8;
3,49047619259564E-8;
2,69780426030967E-9;
-3,89680207555865E-8;
-7,17372781534346E-8;
-8,13494990669675E-8;
-6,6734153560544E-8;
-3,97367652231506E-8;
-1,59777268412399E-8;
-4,09146586478553E-9;
-1,45089143871168E-9;
1,04202004628465E-9;
9,82814949920127E-9;
2,31269723734363E-8;
3,33542704277431E-8;
3,48889701730519E-8;
2,99450609068366E-8;
2,69868008862394E-8;
3,27267405176322E-8;
4,46220381918867E-8;
5,08281480888964E-8;
3,86117063123115E-8;
5,02199929821174E-9;
-3,8788243065707E-8;
-7,35741062570904E-8;
-8,43108736954424E-8;
-6,97403745945497E-8;
-4,21169764291102E-8;
-1,76925539272814E-8;
-5,48988341654798E-9;
-2,82130616303368E-9;
-2,60414417567321E-10;
8,88018407889147E-9;
2,27728375173136E-8;
3,35640290572091E-8;
3,54156130689118E-8;
3,0585602263868E-8;
2,77991370808045E-8;
3,39968547676957E-8;
4,65826758006482E-8;
5,3360201260235E-8;
4,11826147502475E-8;
6,9243237754077E-9;
-3,80507713702222E-8;
-7,40289912747905E-8;
-8,55617935247337E-8;
-7,12486613112079E-8;
-4,35088027662979E-8;
-1,88865376680345E-8;
-6,59678883225012E-9;
-3,94445262870734E-9;
-1,36585417306759E-9;
7,93895351591458E-9;
2,21295135000525E-8;
3,3241127246061E-8;
3,53359773835772E-8;
3,0674667872004E-8;
2,80765841190992E-8;
3,45721169554752E-8;
4,75598853915026E-8;
5,47265595847794E-8;
4,27635140412477E-8;
8,4429287892511E-9;
-3,68570427362648E-8;
-7,33194244001405E-8;
-8,53628986831345E-8;
-7,14816322286564E-8;
-4,40523835357212E-8;
-1,96257447070076E-8;
-7,44368832960919E-9;
-4,84611809456605E-9;
-2,29141209238379E-9;
7,01901318984381E-9;
2,12557304124986E-8;
3,24757908095429E-8;
3,47480072075977E-8;
3,02995269987281E-8;
2,79010273122195E-8;
3,45586108000586E-8;
4,77008023664434E-8;
5,50946655779657E-8;
4,34906790557146E-8;
9,6185393082013E-9;
-3,53020214929045E-8;
-7,16506089956411E-8;
-8,39539792774223E-8;
-7,06435221043683E-8;
-4,38793228186983E-8;
-1,99728383347479E-8;
-8,05885956733945E-9;
-5,54538091714686E-9;
-3,04740386259576E-9;
6,13169567165088E-9;
2,02028915437764E-8;
3,13559626554818E-8;
3,37458724898872E-8;
2,95432565649443E-8;
2,73502878432422E-8;
3,4049321610566E-8;
4,71369061952834E-8;
5,46210451160163E-8;
4,34896169803733E-8;
1,04852259275147E-8;
-3,34686058851702E-8;
-6,91998099695617E-8;
-8,15515109859567E-8;
-6,89207280503701E-8;
-4,31044835450187E-8;
-1,9983763050649E-8;
-8,47103143992411E-9;
-6,06445235123292E-9;
-3,65018778497081E-9;
5,28534116143197E-9;
1,90154630047663E-8;
2,99540799980331E-8;
3,24122309669286E-8;
2,84791118647507E-8;
2,64922089812466E-8;
3,31332065407999E-8;
4,59905644595956E-8;
5,34478631953662E-8;
4,28781774107289E-8;
1,10804510580581E-8;
-3,14287693104312E-8;
-6,61336157420592E-8;
-7,83550272591924E-8;
-6,64814287765275E-8;
-4,18392704943938E-8;
-1,97137723667409E-8;
-8,70341425856193E-9;
-6,42412513461845E-9;
-4,11667215706863E-9;
4,48782784761548E-9;
1,77353941411306E-8;
2,83363552570748E-8;
3,08187809704684E-8;
2,71719571221521E-8;
2,53897622921992E-8;
3,18904056220095E-8;
4,43725501848841E-8;
5,17038128620953E-8;
4,17624770734029E-8;
1,14360228450794E-8;
-2,92514285006757E-8;
-6,25976869621372E-8;
-7,45385222920079E-8;
-6,34776487533844E-8;
-4,01792556655472E-8;
-1,92101266743633E-8;
-8,78168206428004E-9;
-6,64230922346954E-9;
-4,45823243833292E-9;
3,74353134503982E-9;
1,63967097052805E-8;
2,65649325940026E-8;
2,90336663803007E-8;
2,56822274947419E-8;
2,4099859333309E-8;
3,0391059591692E-8;
4,23825746443681E-8;
4,95057562257841E-8;
4,02388091572767E-8;
1,15855630689618E-8;
-2,69891781203876E-8;
-5,87191451164434E-8;
-7,02594063753596E-8;
-6,00453217850708E-8;
-3,821363058932E-8;
-1,85185483019342E-8;
-8,72918855719296E-9;
-6,73880227165681E-9;
-4,68929807032488E-9;
3,0557660898857E-9;
1,50281220192269E-8;
2,46893393600072E-8;
2,71134465469785E-8;
2,4059104953936E-8;
2,26688383310233E-8;
2,86970332029573E-8;
4,01089697720019E-8;
4,69604202440999E-8;
3,83940308387721E-8;
1,15572537805393E-8;
-2,4691678347449E-8;
-5,46143277611952E-8;
-6,56555353143226E-8;
-5,63024953581825E-8;
-3,60185978566479E-8;
-1,76774636285491E-8;
-8,56680776120263E-9;
-6,73092840825044E-9;
-4,82413435864266E-9;
2,42759553215701E-9;
1,36579604867279E-8;
2,275640488016E-8;
2,51089682403655E-8;
2,23487632666446E-8;
2,11419810593406E-8;
2,68644137710883E-8;
3,76284174768324E-8;
4,41571355654518E-8;
3,63053835027768E-8;
1,13793446267551E-8;
-2,23987153488236E-8;
-5,03783350817214E-8;
-6,08483768175646E-8;
-5,23553977150244E-8;
-3,36617680039731E-8;
-1,67224155497628E-8;
-8,31294123838256E-9;
-6,63300526147661E-9;
-4,87622637538925E-9;
1,85701941631792E-9;
1,23052452826048E-8;
2,08017135071271E-8;
2,30632516059579E-8;
2,05912894091166E-8;
1,95570306600728E-8;
2,49435720698198E-8;
3,5012452067139E-8;
4,11795086077067E-8;
3,40411637157838E-8;
1,10767421204737E-8;
-2,01451347123018E-8;
-4,60971341708246E-8;
-5,5938821588868E-8;
-4,82920145618533E-8;
-3,12052954070071E-8;
-1,56852699410157E-8;
-7,98549865509563E-9;
-6,46173426255191E-9;
-4,85445354874857E-9;
1,34758862555236E-9;
1,09890991764657E-8;
1,88590101873845E-8;
2,10128146426266E-8;
1,88195888910743E-8;
1,79460394659105E-8;
2,29751160022898E-8;
3,23181076536345E-8;
3,80951745119142E-8;
3,1661145476901E-8;
1,06725915294981E-8;
-1,79583452500701E-8;
-4,18380491560779E-8;
-5,10158945534367E-8;
-4,41921805966081E-8;
-2,8698619181378E-8;
-1,45928257326918E-8;
-7,60052033501311E-9;
-6,2310881924612E-9;
-4,77252537342129E-9;
8,95061648336194E-10;
9,72254852118158E-9;
1,69556782387078E-8;
1,89887447939024E-8;
1,70622088828755E-8;
1,63373814292118E-8;
2,09962786853351E-8;
2,95984867786726E-8;
3,49664634834172E-8;
2,9216701150238E-8;
1,01869375065885E-8;
-1,58604278026638E-8;
-3,7661315904753E-8;
-4,61533637961413E-8;
-4,01194540225356E-8;
-2,61869311009241E-8;
-1,34712217776001E-8;
-7,17128471119651E-9;
-5,95022726183349E-9;
-4,63921018442117E-9;
4,98460033065481E-10;
8,51776502142348E-9;
1,51134157598943E-8;
1,70172635905807E-8;
1,53419418682958E-8;
1,4752764167336E-8;
1,90358163642802E-8;
2,68946055808566E-8;
3,18472006180202E-8;
2,67553476546001E-8;
9,6397741932901E-9;
-1,38674571403087E-8;
-3,36155973686476E-8;
-4,14141743374813E-8;
-3,61305378570411E-8;
-2,37072110934562E-8;
-1,23389435304912E-8;
-6,71126992006386E-9;
-5,63334985244736E-9;
-4,46412043833628E-9;
1,55068450284954E-10;
7,38188204993025E-9;
1,33499606416392E-8;
1,5117789762686E-8;
1,36780479983243E-8;
1,32116218229316E-8;
1,71175342332443E-8;
2,42435303837922E-8;
2,87782194465601E-8;
2,43113276385407E-8;
9,04788404652482E-9;
-1,1994195142177E-8;
-2,97387360284164E-8;
-3,68440247070645E-8;
-3,22665042894998E-8;
-2,12881400373212E-8;
-1,12152655434232E-8;
-6,23224164520615E-9;
-5,29016120695002E-9;
-4,25723516304446E-9;
-1,37112866089605E-10;
6,32127226229692E-9;
1,1676627279507E-8;
1,33061710494185E-8;
1,20855388808674E-8;
1,17303488319854E-8;
1,52659177388105E-8;
2,16751990738142E-8;
2,5794208027421E-8;
2,19170014485214E-8;
8,42634314078735E-9;
-1,02487629127913E-8;
-2,60605849123903E-8;
-3,24828056911515E-8;
-2,85646906412211E-8;
-1,89558299301668E-8;
-1,01119650590058E-8;
-5,74188487539169E-9;
-4,92746469600077E-9;
-4,02385676519813E-9;
-3,82367555624185E-10;
5,33970369687611E-9;
1,01056073890208E-8;
1,15973890477159E-8;
1,05771189440212E-8;
1,03190696577513E-8;
1,34946458562071E-8;
1,92117335719382E-8;
2,29248610586743E-8;
1,95988804509704E-8;
7,7870858187492E-9;
-8,63500250319573E-9;
-2,26013319308524E-8;
-2,83623262704088E-8;
-2,50524411700877E-8;
-1,67292199986192E-8;
-9,04335392016253E-9;
-5,24984672784094E-9;
-4,55456713165471E-9;
-3,771531768762E-9;
-5,84949446122941E-10;
4,43717335662821E-9;
8,64277082138762E-9;
9,99667308530969E-9;
9,15880199087549E-9;
8,98743477571804E-9;
1,18158287423608E-8;
1,6872237106199E-8;
2,01929635945342E-8;
1,73762089942762E-8;
7,14120815908224E-9;
-7,15826301802282E-9;
-1,9376780054585E-8;
-2,44991193756722E-8;
-2,17484126142607E-8;
-1,4622072036277E-8;
-8,01728212574182E-9;
-4,76278594884716E-9;
-4,17710898390433E-9;
-3,50728923375142E-9;
-7,460605735915E-10;
3,61771999190192E-9;
7,29041431112397E-9;
8,51025157528435E-9;
7,83911143556107E-9;
7,74233472539606E-9;
1,02391692229106E-8;
1,46699869972636E-8;
1,76147738104881E-8;
1,5265448929329E-8;
6,49861237382452E-9;
-5,81650630994001E-9;
-1,63956128694403E-8;
-2,09098037655315E-8;
-1,86673348532168E-8;
-1,26484049027751E-8;
-7,04374728495849E-9;
-4,28536585620137E-9;
-3,800819869755E-9;
-3,23635350727589E-9;
-8,71908950967109E-10;
2,87825744142181E-9;
6,0537221073465E-9;
7,1423921244585E-9;
6,61963469870609E-9;
6,58788806573118E-9;
8,77090998181842E-9;
1,261380261002E-8;
1,52014276104394E-8;
1,327794382784E-8;
5,86809553503211E-9;
-4,60712784604456E-9;
-1,36617304341822E-8;
-1,76033092999039E-8;
-1,58178021601355E-8;
-1,08118191058359E-8;
-6,12663509052319E-9;
-3,82436902175175E-9;
-3,4313800628427E-9;
-2,96316267039696E-9;
-9,64540075432289E-10;
2,21743046393366E-9;
4,92874606729465E-9;
5,89339657816362E-9;
5,50313965235943E-9;
5,5244703348414E-9;
7,41450727871185E-9;
1,07095304959048E-8;
1,29608857513527E-8;
1,14234452786248E-8;
5,25624872955862E-9;
-3,52787419550346E-9;
-1,11745267196898E-8;
-1,45790135130523E-8;
-1,32033616121555E-8;
-9,11802358836811E-9;
-5,2689580264497E-9;
-3,38248504698851E-9;
-3,07208435821303E-9;
-2,6910314245578E-9;
-1,02954306682049E-9;
1,63093325960399E-9;
3,91726637070696E-9;
4,76283802853901E-9;
4,48766835763597E-9;
4,55403440399981E-9;
6,17192672222821E-9;
8,96095483755592E-9;
1,08968759005218E-8;
9,70497473788723E-9;
4,66705936738626E-9;
-2,57479277940393E-9;
-8,92997907692942E-9;
-1,1836227758274E-8;
-1,0822754648684E-8;
-7,56626012126398E-9;
-4,47529763764912E-9;
-2,96339943555625E-9;
-2,72740214020266E-9;
-2,42510075224269E-9;
-1,06684971320443E-9;
1,11701238827712E-9;
3,01251270944473E-9;
3,7458884905489E-9;
3,572265444796E-9;
3,67636092897658E-9;
5,03970274778575E-9;
7,36559006355836E-9;
9,01209645094122E-9;
8,12508564611472E-9;
4,10660227937483E-9;
-1,73875892514053E-9;
-6,9231571099105E-9;
-9,36914039838427E-9;
-8,67311492362128E-9;
-6,15809632414912E-9;
-3,74538282893795E-9;
-2,56936522476439E-9;
-2,39708001046417E-9;
-2,16554559630427E-9;
-1,0840875681774E-9;
6,70401878900501E-10;
2,2110724357153E-9;
2,84146208823982E-9;
2,75521795295651E-9;
2,88664981617982E-9;
4,02009860026401E-9;
5,92348628374038E-9;
7,30275354482284E-9;
6,68462122199543E-9;
3,57638330225626E-9;
-1,0136417650537E-9;
-5,14311948511246E-9;
-7,16796687543199E-9;
-6,74660233110635E-9;
-4,8892216547152E-9;
-3,07774297526141E-9;
-2,20036586130692E-9;
-2,08565217912161E-9;
-1,91585503322017E-9;
-1,08083278814923E-9;
2,8814918744461E-10;
1,50920418686516E-9;
2,04254970184491E-9;
2,03007420565253E-9;
2,18375794637109E-9;
3,1078436720386E-9;
4,63026387654021E-9;
5,76442904146959E-9;
5,38033711389657E-9;
3,07920405094281E-9;
-3,95184183575431E-10;
-3,57839810515159E-9;
-5,22149039941246E-9;
-5,03684035411148E-9;
-3,75450660479816E-9;
-2,47470757966846E-9;
-1,85998014835006E-9;
-1,79373993559538E-9;
-1,67973069822217E-9;
-1,06311747690563E-9;
-3,56226003835735E-11;
9,00115785168993E-10;
1,3442256960925E-9;
1,39398882913321E-9;
1,56443636807882E-9;
2,29839999999378E-9;
3,4791831015802E-9;
4,39281644542762E-9;
4,2089827283328E-9;
2,61812002228613E-9;
1,29715661626905E-10;
-2,2179054631781E-9;
-3,5170352966567E-9;
-3,53212631501362E-9;
-2,75015039659401E-9;
-1,93145891400448E-9;
-1,54580956769059E-9;
-1,52338321655692E-9;
-1,45585641167221E-9;
-1,03002500969138E-9;
-3,05222103845845E-10;
3,77988625655493E-10;
7,41287617141419E-10;
8,40919092933856E-10;
1,02212765645554E-9;
1,58730365555835E-9;
2,46492900886658E-9;
3,18037571973408E-9;
3,16704281681986E-9;
2,19283631548915E-9;
5,65145723160522E-10;
-1,04858668317337E-9;
-2,03953008040531E-9;
-2,22068992742024E-9;
-1,86937965198666E-9;
-1,44903428241841E-9;
-1,26015711735929E-9;
-1,27285538979702E-9;
-1,24571731578737E-9;
-9,8822362000814E-10;
-5,26854901148087E-10;
-6,4363302109307E-11;
2,25396869572992E-10;
3,66326920983295E-10;
5,53842555723671E-10;
9,68804010008227E-10;
1,57994576105098E-9;
2,11802580083111E-9;
2,24776540516389E-9;
1,80342484261416E-9;
9,19202557024526E-10;
-5,43057739258244E-11;
-7,72611768258981E-10;
-1,09116883189435E-9;
-1,10487593912821E-9;
-1,02377030193478E-9;
-1,00141776979037E-9;
-1,04406487878708E-9;
-1,05229501362104E-9;
-9,3752298349118E-10;
-7,02809121985935E-10;
-4,32177975594829E-10;
-2,08428173207419E-10;
-3,66479279150288E-11;
1,52816906546072E-10;
4,34991904053557E-10;
8,14226909143432E-10;
1,19694926748832E-9;
1,44299945386125E-9;
1,44963741970844E-9;
1,20195976362018E-9;
7,76787301019688E-10;
2,98319882276315E-10;
-1,28323052849812E-10;
-4,46978268132871E-10;
-6,51471991548551E-10;
-7,70044873955011E-10;
-8,35880290395234E-10;
-8,72582977426746E-10;
-8,80908405068528E-10;
-8,40075248555181E-10;
-7,3444200349763E-10;
-5,68293991615995E-10;
-3,72233722805015E-10;
-1,85096647097395E-10;
-1,67570135715994E-11;
1,61914329952932E-10;
4,06747755284193E-10;
7,48018294844345E-10;
1,130273667898E-9;
1,41867961004997E-9;
1,46184974703187E-9;
1,18992884285591E-9;
6,78747699091517E-10;
1,10623347296761E-10;
-3,29014296507122E-10;
-5,62708745697575E-10;
-6,49885454308139E-10;
-7,09197413183332E-10;
-8,17710973938456E-10;
-9,41304755426381E-10;
-9,75776771454714E-10;
-8,62566140286836E-10;
-6,4959966599019E-10;
-4,64288798966604E-10;
-3,95612190734266E-10;
-3,87669056428324E-10;
-2,6051290803965E-10;
1,54220668781189E-10;
8,4625847860026E-10;
1,5785742756063E-9;
2,01267554494485E-9;
1,91913284002251E-9;
1,34346707657374E-9;
5,76046326075269E-10;
-5,36318098411796E-11;
-3,81023814547235E-10;
-4,81511285079675E-10;
-5,61046582633133E-10;
-7,53705489394071E-10;
-1,01053323242262E-9;
-1,16299137104189E-9;
-1,09458782952804E-9;
-8,70079818101856E-10;
-6,91858004404823E-10;
-7,0776890947442E-10;
-8,44053080537269E-10;
-8,17396016400125E-10;
-3,47595026195406E-10;
5,92953630479292E-10;
1,68898490216289E-9;
2,44219563228244E-9;
2,49981941238684E-9;
1,88328667193433E-9;
9,58334570361976E-10;
1,78341333547712E-10;
-2,21901046504809E-10;
-3,33465166582968E-10;
-4,26886850949585E-10;
-6,86996134767621E-10;
-1,05338622424781E-9;
-1,30198883971951E-9;
-1,27269148463339E-9;
-1,04324775463603E-9;
-8,73407682864392E-10;
-9,58148844920203E-10;
-1,21269646851118E-9;
-1,27335405556798E-9;
-7,63905083805485E-10;
3,71685703206734E-10;
1,75391542226855E-9;
2,76649288294295E-9;
2,95073264646568E-9;
2,30592573808041E-9;
1,26428727474671E-9;
3,70646853519726E-10;
-8,47213384454649E-11;
-2,03945735199657E-10;
-3,08121911889461E-10;
-6,20207583951145E-10;
-1,07321060289114E-9;
-1,3977740280651E-9;
-1,40210745673356E-9;
-1,17243183768104E-9;
-1,0113670906321E-9;
-1,15609053518601E-9;
-1,50659382582631E-9;
-1,63664559808181E-9;
-1,10260043232604E-9;
1,79355348239607E-10;
1,78227105884605E-9;
2,9968898336763E-9;
3,28493298012745E-9;
2,6281027752033E-9;
1,50394997042637E-9;
5,26365155077008E-10;
3,25544358905301E-11;
-8,99122586484625E-11;
-2,03231165584097E-10;
-5,55463577519922E-10;
-1,07400962771355E-9;
-1,45912377981854E-9;
-1,49099665803827E-9;
-1,2632048842332E-9;
-1,11315950015175E-9;
-1,30387005508648E-9;
-1,72947285649594E-9;
-1,91875322737258E-9;
-1,37208465269311E-9;
1,4529052446141E-11;
1,77910019697459E-9;
3,1453754738361E-9;
3,51723122591393E-9;
2,8588984455038E-9;
1,68195819503144E-9;
6,51269815816071E-10;
1,31072270677854E-10;
5,47736279626803E-12;
-1,12128173663646E-10;
-4,9139561691739E-10;
-1,05675696422382E-9;
-1,48668562373272E-9;
-1,54274373823893E-9;
-1,32093875135768E-9;
-1,18233182972571E-9;
-1,40974861104354E-9;
-1,89254325613627E-9;
-2,12761590470087E-9;
-1,57792885487918E-9;
-1,25954489661044E-10;
1,74891898527215E-9;
3,22302869022006E-9;
3,65881827715872E-9;
3,01162995594785E-9;
1,80829387891052E-9;
7,4630544161778E-10;
2,11507570863297E-10;
8,67547592136544E-11;
-3,19409401108391E-11;
-4,30183456139042E-10;
-1,02773718316351E-9;
-1,48816586703107E-9;
-1,5631049816886E-9;
-1,35062859216124E-9;
-1,22251645790501E-9;
-1,47633819355591E-9;
-2,00106142766438E-9;
-2,27216779271227E-9;
-1,72896641196987E-9;
-2,41970206504174E-10;
1,69755323786656E-9;
3,24165007788392E-9;
3,72635334107251E-9;
3,09517239917186E-9;
1,8879246288698E-9;
8,17020536041302E-10;
2,77847361289869E-10;
1,54650939553988E-10;
3,5854387937897E-11;
-3,71244753140796E-10;
-9,86402397953453E-10;
-1,46732140351174E-9;
-1,55782149350761E-9;
-1,35405577368905E-9;
-1,23782011683612E-9;
-1,51274864429326E-9;
-2,06469763653155E-9;
-2,36222636573285E-9;
-1,8321285469797E-9;
-3,36996904344961E-10;
1,62870070022063E-9;
3,20799573217268E-9;
3,72705235539274E-9;
3,12152497789892E-9;
1,92781137674221E-9;
8,63731668004818E-10;
3,30072075909344E-10;
2,10310228032562E-10;
9,36062440904361E-11;
-3,15993985241367E-10;
-9,38951445519599E-10;
-1,42846263060047E-9;
-1,52969331858173E-9;
-1,33811657208868E-9;
-1,23412516224577E-9;
-1,5208515938254E-9;
-2,08671078880501E-9;
-2,40333869672246E-9;
-1,89257826414933E-9;
-4,12411433401875E-10;
1,5470963966488E-9;
3,13303880078178E-9;
3,67250696159097E-9;
3,09692444265057E-9;
1,93321897785607E-9;
8,9070379179951E-10;
3,68499789476238E-10;
2,54350115872739E-10;
1,40293053653942E-10;
-2,64467364266839E-10;
-8,82548860440485E-10;
-1,37482736607959E-9;
-1,48472537785382E-9;
-1,30533945170454E-9;
-1,21211810795934E-9;
-1,50525177075313E-9;
-2,07707568190651E-9;
-2,40417114578829E-9;
-1,91651515887402E-9;
-4,71600595143943E-10;
1,4541421508937E-9;
3,02452665447953E-9;
3,57480857822897E-9;
3,03172061229282E-9;
1,91008142955389E-9;
9,01275874411243E-10;
3,96049502306837E-10;
2,88367954436788E-10;
1,7826787874663E-10;
-2,17723011692809E-10;
-8,23589315014967E-10;
-1,30904079455032E-9;
-1,42332310471789E-9;
-1,2578868336357E-9;
-1,17655634014753E-9;
-1,47138620863767E-9;
-2,03941122562876E-9;
-2,36973841650623E-9;
-1,90880688972869E-9;
-5,15242861928075E-10;
1,355425452526E-9;
2,88926749705662E-9;
3,43997594612216E-9;
2,93427458003504E-9;
1,86290662467583E-9;
8,96867505535874E-10;
4,14999481947817E-10;
3,13146909080184E-10;
2,0832957099227E-10;
-1,73603970934112E-10;
-7,60451673666703E-10;
-1,23425002612927E-9;
-1,351996518843E-9;
-1,19992884807636E-9;
-1,12987480955981E-9;
-1,42207565422602E-9;
-1,97816734355582E-9;
-2,30852847950983E-9;
-1,87666035831705E-9;
-5,44438115881663E-10;
1,25148971994913E-9;
2,73346981776534E-9;
3,27741370779619E-9;
2,80894584404997E-9;
1,79754759989247E-9;
8,8176419269935E-10;
4,24684619868574E-10;
3,29088952370421E-10;
2,30753546055669E-10;
-1,33740070901898E-10;
-6,97894885097392E-10;
-1,15457429418557E-9;
-1,27260618989329E-9;
-1,13415884971269E-9;
-1,07338877264115E-9;
-1,35987031778438E-9;
-1,89800738761609E-9;
-2,222859668127E-9;
-1,82337418066892E-9;
-5,61981009100748E-10;
1,1466484096459E-9;
2,56308432057682E-9;
3,09421690982606E-9;
2,6647612380778E-9;
1,7168849261827E-9;
8,55653754200361E-10;
4,26583054811766E-10;
3,38709180817221E-10;
2,46011357846477E-10;
-9,89939328503216E-11;
-6,33978789417978E-10;
-1,07072617758863E-9;
-1,18789816451781E-9;
-1,06317001908431E-9;
-1,0114383718816E-9;
-1,28717792039091E-9;
-1,80375276822778E-9;
-2,12016947306559E-9;
-1,75238194304647E-9;
-5,69060585875011E-10;
1,04183770575563E-9;
2,38289828807924E-9;
2,89480602009249E-9;
2,50407631966458E-9;
1,62406262603241E-9;
8,22298828275121E-10;
4,22358659929218E-10;
3,42191376142843E-10;
2,57340947753737E-10;
-6,77511737074734E-11;
-5,71559816068451E-10;
-9,83345370670085E-10;
-1,09846787623213E-9;
-9,86708784814543E-10;
-9,43938803618031E-10;
-1,20935731157946E-9;
-1,69914279179426E-9;
-2,00372562528206E-9;
-1,6687217547036E-9;
-5,66895463793201E-10;
9,37622516438956E-10;
2,19637689248821E-9;
2,68749465335157E-9;
2,33522896660385E-9;
1,5230467630333E-9;
7,81666770845345E-10;
4,13171838868673E-10;
3,40121803432596E-10;
2,61744262585584E-10;
-3,92408490019601E-11;
-5,09327044933859E-10;
-8,97107830865588E-10;
-1,00857004906328E-9;
-9,09311574589723E-10;
-8,74543815125773E-10;
-1,12572492807188E-9;
-1,58705024465399E-9;
-1,87791031186568E-9;
-1,57456706248027E-9;
-5,58039320980629E-10;
8,36925838194133E-10;
2,00953554133229E-9;
2,47360047634309E-9;
2,15832488684454E-9;
1,41655653721996E-9;
7,37538019003896E-10;
4,00106499799408E-10;
3,33661917255425E-10;
2,62903223399319E-10;
-1,45086797406336E-11;
-4,50001111283167E-10;
-8,10026867484182E-10;
-9,17039215724634E-10;
-8,31143367116549E-10;
-8,03801597514407E-10;
-1,04011047795913E-9;
-1,47134822184563E-9;
-1,74529880961977E-9;
-1,47218910233492E-9;
-5,42626711295949E-10;
7,39619926604728E-10;
1,82274094816663E-9;
2,25803274678099E-9;
1,97930569625977E-9;
1,30733749169749E-9;
6,89312035168163E-10;
3,83152149084575E-10;
3,25676189166567E-10;
2,6091974023453E-10;
4,48147427025361E-12;
-3,94882373401661E-10;
-7,27163821545773E-10;
-8,29506413882913E-10;
-7,53190062592677E-10;
-7,31664462470193E-10;
-9,53022604722567E-10;
-1,35192679749276E-9;
-1,60872730992875E-9;
-1,36793539046179E-9;
-5,23995482265091E-10;
6,47054419916208E-10;
1,63994112482566E-9;
2,04529788460437E-9;
1,8003015947121E-9;
1,19694716330251E-9;
6,40540356030727E-10;
3,64272723590242E-10;
3,12529638348806E-10;
2,54055824925788E-10;
2,2678823738768E-11;
-3,40602907418542E-10;
-6,4529047470116E-10;
-7,41791751328797E-10;
-6,77101703995755E-10;
-6,61468305212921E-10;
-8,66654554305317E-10;
-1,23344181754545E-9;
-1,47157716050569E-9;
-1,25896010175726E-9;
-4,98573938518345E-10;
5,60581370431257E-10;
1,46286095355274E-9;
1,83755480985076E-9;
1,62459859617753E-9;
1,08619465107927E-9;
5,89066022310912E-10;
3,4263960457377E-10;
2,97269646493785E-10;
2,45997947391568E-10;
3,69404543291913E-11;
-2,92537104651021E-10;
-5,6785845084343E-10;
-6,56897040589686E-10;
-6,03947310206221E-10;
-5,9333727125805E-10;
-7,80381875233903E-10;
-1,11548892104203E-9;
-1,33588019382357E-9;
-1,1505491160679E-9;
-4,71925477440522E-10;
4,78302175499519E-10;
1,29328313964304E-9;
1,63739556723227E-9;
1,45483539017867E-9;
9,7941595262871E-10;
5,37756714223411E-10;
3,19824197947872E-10;
2,80915474445121E-10;
2,35298202382059E-10;
4,85389717754095E-11;
-2,46388229021426E-10;
-4,94772742738383E-10;
-5,7748346386373E-10;
-5,33470466336264E-10;
-5,2791662734802E-10;
-6,9854110116244E-10;
-1,00166318671032E-9;
-1,20227980012023E-9;
-1,04275861164848E-9;
-4,43221970156445E-10;
4,03712707210423E-10;
1,13253500725688E-9;
1,44522271681111E-9;
1,29198243064383E-9;
8,75239129787863E-10;
4,86352649190054E-10;
2,96082417421961E-10;
2,62801480651524E-10;
2,23209664433308E-10;
5,88238983418278E-11;
-2,04441376056611E-10;
-4,27746417884242E-10;
-5,03445774650129E-10;
-4,66268654067671E-10;
-4,6371832726473E-10;
-6,18844217897242E-10;
-8,9186629786663E-10;
-1,07513799765205E-9;
-9,3862827743092E-10;
-4,11400083117422E-10;
3,35470994385227E-10;
9,81921397083608E-10;
1,26413075489562E-9;
1,13590120797435E-9;
7,75288441438051E-10;
4,37620251343033E-10;
2,71819021954302E-10;
2,44063275184772E-10;
2,10329403122045E-10;
6,53202942339811E-11;
-1,65362470675938E-10;
-3,63056634695398E-10;
-4,33447853891504E-10;
-4,04078322927657E-10;
-4,05134528652846E-10;
-5,43655907714314E-10;
-7,86152177975462E-10;
-9,51615830466694E-10;
-8,37019529168515E-10;
-3,79880310296451E-10;
2,72770100310441E-10;
8,41594430591711E-10;
1,0935948403616E-9;
9,88867101248386E-10;
6,80443878349106E-10;
3,89608588412839E-10;
2,47966816688888E-10;
2,25205023737906E-10;
1,96445461539538E-10;
7,02221762788704E-11;
-1,31100304506735E-10;
-3,04121610602983E-10;
-3,68000332550742E-10;
-3,4543845543952E-10;
-3,48769774707732E-10;
-4,72087966004626E-10;
-6,8688237140462E-10;
-8,34711854324059E-10;
-7,39716950854134E-10;
-3,4799338779022E-10;
2,15759792756308E-10;
7,11121251109615E-10;
9,35467378529761E-10;
8,51724496810795E-10;
5,91860628466165E-10;
3,44800059919791E-10;
2,23533602756308E-10;
2,05229036031624E-10;
1,81452448537151E-10;
7,3347178446499E-11;
-1,00704808134381E-10;
-2,51689595560011E-10;
-3,08218594523178E-10;
-2,91430519312076E-10;
-2,98182061412113E-10;
-4,06886453302138E-10;
-5,92895289557095E-10;
-7,24696276936876E-10;
-6,4953863437018E-10;
-3,15881031865712E-10;
1,66372423687133E-10;
5,91393182208246E-10;
7,88354490489615E-10;
7,23329984160457E-10;
5,07694160714921E-10;
3,01721199429691E-10;
2,01155471653965E-10;
1,86892207642301E-10;
1,66892495109516E-10;
7,48462679045707E-11;
-7,34192250491368E-11;
-2,0281358587663E-10;
-2,53383129444604E-10;
-2,42544571774704E-10;
-2,50508078375598E-10;
-3,44436712667403E-10;
-5,06287054911304E-10;
-6,22316851506399E-10;
-5,61948206678431E-10;
-2,84943698009382E-10;
1,20207346681027E-10;
4,82826566012583E-10;
6,54907085892189E-10;
6,06717525952629E-10;
4,30280064220529E-10;
2,6089668129032E-10;
1,79163946033952E-10;
1,67529387873649E-10;
1,52082039928716E-10;
7,63205313931548E-11;
-4,90471782569342E-11;
-1,59095957400817E-10;
-2,03479626577812E-10;
-1,97163023929034E-10;
-2,06469092133706E-10;
-2,88393199138473E-10;
-4,27089600528824E-10;
-5,27769063247515E-10;
-4,82886977205863E-10;
-2,55098079457944E-10;
8,22338028516873E-11;
3,85163158002242E-10;
5,33343902007444E-10;
5,00701821706624E-10;
3,60216403830674E-10;
2,23820386430465E-10;
1,58752459276745E-10;
1,50187557457098E-10;
1,3739236534198E-10;
7,50015063932338E-11;
-2,8954409937085E-11;
-1,20772543534899E-10;
-1,58983019999604E-10;
-1,56452737940384E-10;
-1,67150511505262E-10;
-2,37475481910001E-10;
-3,53388591656254E-10;
-4,39550021840654E-10;
-4,07971087876462E-10;
-2,25513196211757E-10;
4,81804567673209E-11;
2,98145868657733E-10;
4,24265084730571E-10;
4,02925156550656E-10;
2,95421963318308E-10;
1,89475191687513E-10;
1,38230299537758E-10;
1,32543494854136E-10;
1,22995437251346E-10;
7,27243751955882E-11;
-1,04389415744591E-11;
-8,58361527072795E-11;
-1,20413515221144E-10;
-1,20294933265227E-10;
-1,3102387643533E-10;
-1,90534114389871E-10;
-2,86469648915554E-10;
-3,60915651253389E-10;
-3,40465834307792E-10;
-1,97600748283016E-10;
1,90312569342295E-11;
2,20850114669875E-10;
3,26893696403693E-10;
3,16250662827279E-10;
2,37636973094654E-10;
1,57516381132227E-10;
1,18082952039868E-10;
1,1523459651354E-10;
1,09387762155159E-10;
7,0415783610342E-11;
3,92412048353326E-12;
-5,6349324667503E-11;
-8,47905441278313E-11;
-8,87943695098824E-11;
-9,99406290043819E-11;
-1,49044370384338E-10;
-2,28424563436071E-10;
-2,88583753037163E-10;
-2,774369836905E-10;
-1,72930918476677E-10;
-5,28073329521289E-12;
1,5279177834856E-10;
2,39016841401626E-10;
2,39648646879126E-10;
1,86099458512235E-10;
1,28543384194501E-10;
1,01347454144582E-10;
1,00495315509248E-10;
9,6077930270703E-11;
6,69765788433825E-11;
1,7005074807955E-11;
-3,0427456042393E-11;
-5,44478681579625E-11;
-6,00035751949574E-11;
-7,16762006884119E-11;
-1,11333601331929E-10;
-1,7498824425223E-10;
-2,25586667121388E-10;
-2,21542740282313E-10;
-1,48058061851883E-10;
-2,5995952206438E-11;
9,35594337914657E-11;
1,63832995675048E-10;
1,72087034762756E-10;
1,3829781291184E-10;
1,01293558057862E-10;
8,53190989559239E-11;
8,5583807040871E-11;
8,37716088406097E-11;
6,38117589502637E-11;
2,66747087002815E-11;
-8,77778409817699E-12;
-2,81585170366675E-11;
-3,59265959933783E-11;
-4,75718714793086E-11;
-7,92904234629675E-11;
-1,27999217697226E-10;
-1,67989552366597E-10;
-1,71824786940595E-10;
-1,25533382475358E-10;
-4,22431960682063E-11;
4,29049195596898E-11;
9,82271570299144E-11;
1,12533523643739E-10;
9,76375633618926E-11;
7,83629353000964E-11;
7,09983480965532E-11;
7,3039282376939E-11;
7,26246942570836E-11;
5,93115603069614E-11;
3,49491395179698E-11;
1,0191441433628E-11;
-7,29418259486879E-12;
-1,53963917121284E-11;
-2,53344817468495E-11;
-5,02342877172355E-11;
-8,58517041542596E-11;
-1,17251071706179E-10;
-1,27286706999888E-10;
-1,0525335246051E-10;
-5,5773469462494E-11;
-1,3691550565341E-14;
4,02817776799701E-11;
5,99592228537465E-11;
6,18798023962537E-11;
5,68996466782489E-11;
5,66507065856154E-11;
5,95146396685075E-11;
6,1594588378805E-11;
5,6301908028591E-11;
4,1985182860449E-11;
2,63692634120166E-11;
1,26830158291584E-11;
2,37897374390094E-12;
-8,26382649024291E-12;
-2,55627394864324E-11;
-4,98838991236525E-11;
-7,47988952823034E-11;
-8,87026635459389E-11;
-8,48669014941484E-11;
-6,50146997406578E-11;
-3,61139455528818E-11;
-5,9726285143066E-12;
1,70504602029665E-11;
3,02279330913245E-11;
3,88593779445428E-11;
4,4787528526792E-11;
4,8881003470444E-11;
5,1327939047125E-11;
5,00311576603331E-11;
4,55995757683042E-11;
3,76156610221713E-11;
2,72737185797634E-11;
1,75720643625367E-11;
7,35908217702015E-12;
-5,29428843783502E-12;
-1,92227962785346E-11;
-3,53255683568912E-11;
-5,43684872996422E-11;
-6,90892307191223E-11;
-7,35950365774498E-11;
-6,57393032601674E-11;
-4,62417986676187E-11;
-2,11896504108906E-11;
4,54049513798169E-12;
2,39565188216755E-11;
3,43703598600706E-11;
3,94661675135844E-11;
4,19825124337456E-11;
4,66007354035987E-11;
5,00741018345637E-11;
4,79207020197882E-11;
4,0957046616419E-11;
2,96604519501335E-11;
1,97987409097353E-11;
1,25913503543863E-11;
6,24543905937488E-12;
-3,61132361423834E-12;
-2,51161245959883E-11;
-5,31097028263305E-11;
-7,83780550575615E-11;
-9,02285022613744E-11;
-7,92232673640333E-11;
-5,17958133739636E-11;
-1,75785351498817E-11;
1,07697751783156E-11;
2,43032501505674E-11;
3,00728147733438E-11;
3,41921774888905E-11;
4,09751686578374E-11;
5,07673760685056E-11;
5,55217388058447E-11;
5,09427279064025E-11;
3,94896170633381E-11;
2,95338566194937E-11;
2,75621806609402E-11;
2,92836968554951E-11;
2,30715898898652E-11;
6,12680562694324E-14;
-3,95289326671819E-11;
-8,21746140918344E-11;
-1,0775040251415E-10;
-1,05400790300196E-10;
-7,576630164615E-11;
-3,48651850565427E-11;
-2,18862116306403E-12;
1,58485503075284E-11;
2,15344781215194E-11;
2,61771716368489E-11;
3,70806812177412E-11;
5,05320682045738E-11;
5,97040528913573E-11;
5,7782297207085E-11;
4,74599868668783E-11;
3,86964884527985E-11;
3,95549891059957E-11;
4,64933350724591E-11;
4,44801184111317E-11;
2,10917422533729E-11;
-2,69861415132118E-11;
-8,35142942667878E-11;
-1,21336914710482E-10;
-1,26141921864448E-10;
-9,67361125241927E-11;
-5,00401697704175E-11;
-1,20844053298269E-11;
8,0599955661206E-12;
1,44067519991666E-11;
1,95840873518634E-11;
3,39045524925152E-11;
5,1212516341139E-11;
6,33055774587427E-11;
6,34550835193916E-11;
5,30153140358271E-11;
4,54581991142424E-11;
4,89567594238196E-11;
6,09930758475714E-11;
6,38576339338726E-11;
3,8881844355513E-11;
-1,52757123118935E-11;
-8,27346591646018E-11;
-1,32339111114176E-10;
-1,41166586936753E-10;
-1,11316135222318E-10;
-6,21690118346835E-11;
-1,8830329071733E-11;
2,72990657935783E-12;
7,54862495693663E-12;
1,39171551577843E-11;
2,98294888409741E-11;
5,05164617781548E-11;
6,66224682847559E-11;
6,71796710792514E-11;
5,61717387808557E-11;
4,92724417925563E-11;
5,56745918608707E-11;
7,21448031915131E-11;
7,82290872608654E-11;
5,24649380413917E-11;
-7,12899231916293E-12;
-8,12761156744852E-11;
-1,38532006515226E-10;
-1,52634412912648E-10;
-1,21698194006925E-10;
-7,02047393277346E-11;
-2,60798260609276E-11;
-3,56134321250556E-12;
2,42377784773986E-12;
8,28494915307184E-12;
2,52823517562831E-11;
5,00237125759437E-11;
6,7421267138666E-11;
6,88878584737805E-11;
5,89634137734386E-11;
5,21254636745213E-11;
6,11174747645287E-11;
8,00879700264703E-11;
8,83165830238212E-11;
6,38642362111825E-11;
1,15151904275074E-12;
-7,8761440814862E-11;
-1,41232509814008E-10;
-1,59379805367533E-10;
-1,30065545788376E-10;
-7,64837915540251E-11;
-3,09736628402176E-11;
-8,07532955819869E-12;
-1,0736479598336E-12;
3,85695652007363E-12;
2,07846774891651E-11;
4,76646974834464E-11;
6,72489433673976E-11;
6,99271458374875E-11;
6,03419322454282E-11;
5,41578293489208E-11;
6,45503268364956E-11;
8,72091771836434E-11;
9,80789854896025E-11;
7,21592768230664E-11;
7,44301067730464E-12;
-7,58781953420561E-11;
-1,42553596182078E-10;
-1,61749931702177E-10;
-1,33645466007517E-10;
-8,22962370180076E-11;
-3,5487436276727E-11;
-1,13347685497407E-11;
-5,52058688590412E-12;
4,12095016189698E-13;
1,83507988405194E-11;
4,51503921847683E-11;
6,59638759134919E-11;
6,95139657842291E-11;
6,04914716129376E-11;
5,51195207636556E-11;
6,62765668919046E-11;
8,9930701245981E-11;
1,02448357159013E-10;
7,80597375984976E-11;
1,29086884129032E-11;
-7,14140558143256E-11;
-1,39801250650091E-10;
-1,62985138979852E-10;
-1,36643694906299E-10;
-8,41415482037952E-11;
-3,73235150650868E-11;
-1,380484954401E-11;
-8,32759612293635E-12;
-2,59870593564952E-12;
1,46865715594554E-11;
4,14622366450523E-11;
6,33507942289895E-11;
6,8140803672855E-11;
6,05679411259072E-11;
5,50281818469804E-11;
6,67305505068957E-11;
9,20719844632835E-11;
1,05334645670563E-10;
8,23142172541634E-11;
1,75224598840569E-11;
-6,78111545257059E-11;
-1,3760550664356E-10;
-1,6110341724395E-10;
-1,35090069900834E-10;
-8,50589554320974E-11;
-3,9577964234256E-11;
-1,5893112583727E-11;
-1,07697589576913E-11;
-6,15679787648147E-12;
1,20641398714825E-11;
4,01184557774648E-11;
6,06173156607602E-11;
6,56743450016176E-11;
5,89708251521474E-11;
5,41759593694803E-11;
6,70518244304373E-11;
9,22077475300245E-11;
1,05868629849045E-10;
8,36823540880574E-11;
2,07979135327628E-11;
-6,24899825567087E-11;
-1,31949378308278E-10;
-1,56612609782907E-10;
-1,33317436516093E-10;
-8,47809855262357E-11;
-3,99014655168111E-11;
-1,77197303138135E-11;
-1,32380142536024E-11;
-7,6223050418563E-12;
9,72002667759847E-12;
3,62393114351304E-11;
5,84666858477913E-11;
6,33090139966611E-11;
5,56959153878838E-11;
5,32901844305077E-11;
6,66930933909627E-11;
9,0236047393467E-11;
1,04759361878417E-10;
8,54953875164843E-11;
2,35068911814487E-11;
-5,85920830060587E-11;
-1,26024262837264E-10;
-1,51597994206611E-10;
-1,29651524266478E-10;
-8,33706770510037E-11;
-4,11371036540178E-11;
-1,89553688503223E-11;
-1,47605409213576E-11;
-9,82417416280073E-12;
7,59738066967431E-12;
3,36460069898275E-11;
5,46546407303847E-11;
5,95927932853282E-11;
5,44927577787027E-11;
5,14469543695915E-11;
6,30745136098666E-11;
8,91206512805968E-11;
1,03552601425913E-10;
8,40075543572134E-11;
2,66493409781031E-11;
-5,27704542122285E-11;
-1,19370086101852E-10;
-1,4441371317661E-10;
-1,24122253978671E-10;
-8,01598809770146E-11;
-4,06636282179785E-11;
-1,98451045641109E-11;
-1,45349821468247E-11;
-1,01855268763032E-11;
5,09127884762099E-12;
3,03567286933896E-11;
5,12928586574856E-11;
5,6555164084233E-11;
5,07462462224385E-11;
4,85411723021275E-11;
6,11916645657857E-11;
8,45700766302931E-11;
1,00155445900831E-10;
8,31752884258274E-11;
2,67813235159178E-11;
-4,88017504042403E-11;
-1,12086540542758E-10;
-1,3590390579489E-10;
-1,17759858342855E-10;
-7,66949374610924E-11;
-3,80826796532376E-11;
-1,96554494783041E-11;
-1,62654887287428E-11;
-1,19472998166647E-11;
2,99218078474671E-12;
2,72653111535922E-11;
4,67815333522755E-11;
5,16918709354981E-11;
4,74213407101409E-11;
4,54321784994602E-11;
5,80528615043106E-11;
8,18114395258442E-11;
9,55129171481799E-11;
8,04551044413169E-11;
2,85155376593557E-11;
-4,37940021028778E-11;
-1,03114742026389E-10;
-1,2753074061016E-10;
-1,11825260388413E-10;
-7,27219332054211E-11;
-3,79056813481502E-11;
-2,03512982755212E-11;
-1,68206395096825E-11;
-1,31798877765775E-11;
2,06491662131688E-12;
2,48669211088634E-11;
4,29092664116537E-11;
4,80431570098142E-11;
4,41039653960957E-11;
4,34605867170557E-11;
5,54456246924835E-11;
7,72909026589235E-11;
9,12564853381527E-11;
7,61742664323215E-11;
2,8127917005115E-11;
-3,79103303921831E-11;
-9,51965712696465E-11;
-1,18055528912707E-10;
-1,03224934898404E-10;
-6,79018640080818E-11;
-3,61634021976096E-11;
-2,11638002483751E-11;
-1,72364367902505E-11;
-1,29211986673275E-11;
5,00985985519621E-13;
2,16288510207497E-11;
3,91955594521378E-11;
4,42438166058235E-11;
4,00683363976812E-11;
3,95090837049791E-11;
5,1549893865763E-11;
7,25006053258282E-11;
8,63143335353065E-11;
7,30885359305928E-11;
2,73469956344289E-11;
-3,47784902989825E-11;
-8,76372974658554E-11;
-1,0930072153738E-10;
-9,63427220088863E-11;
-6,40229609770291E-11;
-3,39954636401882E-11;
-1,91926417073917E-11;
-1,58269744316987E-11;
-1,29389528073818E-11;
-3,69200878462507E-13;
1,97123920173137E-11;
3,52825054969815E-11;
4,01343513988833E-11;
3,73786909274152E-11;
3,65853877525554E-11;
4,73926039041733E-11;
6,78206086884296E-11;
8,0225070556434E-11;
6,88901600267496E-11;
2,84659802281904E-11;
-2,99786795154626E-11;
-7,9108379147751E-11;
-9,91811699190832E-11;
-8,78200832545317E-11;
-5,92459877265321E-11;
-3,24656181115955E-11;
-1,84444408695137E-11;
-1,63355558025464E-11;
-1,30673602372231E-11;
-1,44662644385558E-12;
1,60690823742419E-11;
3,2056691477759E-11;
3,65737017682931E-11;
3,36061785174024E-11;
3,39209788847753E-11;
4,36406123083993E-11;
6,19690788787561E-11;
7,43743689901125E-11;
6,41386400770887E-11;
2,64164417851962E-11;
-2,59196019007459E-11;
-7,0482192998557E-11;
-9,00191611447094E-11;
-7,97965356810584E-11;
-5,31407270662132E-11;
-2,97263127639209E-11;
-1,83156466322849E-11;
-1,54698049872473E-11;
-1,30417030060876E-11;
-3,41285855362537E-12;
1,36709496086624E-11;
2,82342865205788E-11;
3,26140857667692E-11;
2,99129475027702E-11;
2,98726718390577E-11;
3,95369338845557E-11;
5,61708172595459E-11;
6,79821946972078E-11;
5,96650926782606E-11;
2,56642112563526E-11;
-2,19457747620092E-11;
-6,27237229461249E-11;
-8,10413396387423E-11;
-7,3244246817731E-11;
-4,92109175742577E-11;
-2,71508314254807E-11;
-1,72494098087453E-11;
-1,47746843955213E-11;
-1,22864013370729E-11;
-3,61831077304218E-12;
1,18019383401707E-11;
2,48033965531365E-11;
2,86985991577372E-11;
2,61636602079793E-11;
2,70098870703142E-11;
3,73199593003872E-11;
5,2129234538105E-11;
6,19925977906219E-11;
5,4384329255785E-11;
2,34244945460581E-11;
-1,90308120772013E-11;
-5,47946274635757E-11;
-7,17243726510536E-11;
-6,57652640766384E-11;
-4,42777143093559E-11;
-2,48524038714716E-11;
-1,60099160093009E-11;
-1,37625108385225E-11;
-1,23997202213408E-11;
-4,0105995513757E-12;
9,84952673882343E-12;
2,06622310131582E-11;
2,48827243013059E-11;
2,34778827344766E-11;
2,41032714268078E-11;
3,22961249664734E-11;
4,57995451906625E-11;
5,56205509442094E-11;
4,95077790384818E-11;
2,2723918902756E-11;
-1,62362030751832E-11;
-4,91758550129109E-11;
-6,33950289666005E-11;
-5,71444486491352E-11;
-3,85205536722204E-11;
-2,2344538394249E-11;
-1,47748403911009E-11;
-1,32816546589555E-11;
-1,20281953391161E-11;
-4,49979112280572E-12;
8,25537993305761E-12;
1,90298494727179E-11;
2,23216634576511E-11;
2,0644429581264E-11;
2,10116389676227E-11;
2,86775631937695E-11;
4,23165394430406E-11;
5,11536928383843E-11;
4,5503096732334E-11;
2,2015743907932E-11;
-1,24900518833557E-11;
-4,18083135838738E-11;
-5,55804347081957E-11;
-5,09947952864931E-11;
-3,47761289180924E-11;
-2,0677669092619E-11;
-1,40801279007287E-11;
-1,25436730986809E-11;
-1,09294128376233E-11;
-4,49456199655389E-12;
6,1856424131533E-12;
1,51290281012271E-11;
1,82473744665972E-11;
1,79307895996808E-11;
1,78969921381934E-11;
2,42254280840074E-11;
3,73537707930158E-11;
4,51142266724365E-11;
4,01563083575464E-11;
2,1125435728047E-11;
-9,01849266885206E-12;
-3,59389539490936E-11;
-4,79322468043035E-11;
-4,41022514990948E-11;
-3,11755744097551E-11;
-1,84323577202546E-11;
-1,18770308986002E-11;
-1,10351963978765E-11;
-9,91312241525356E-12;
-4,57366478764204E-12;
4,77167000539103E-12;
1,3041412935419E-11;
1,61776011199007E-11;
1,58925015702297E-11;
1,64693474325214E-11;
2,22939772296001E-11;
3,2522022947708E-11;
4,00844084977378E-11;
3,60380129518003E-11;
1,81580895437479E-11;
-7,60677610230877E-12;
-3,07750514371024E-11;
-4,10610364187521E-11;
-3,77433925593236E-11;
-2,69617188650342E-11;
-1,62255674247769E-11;
-1,13335230472987E-11;
-1,06395724073561E-11;
-9,43036140966858E-12;
-4,41635825403957E-12;
4,35844556722965E-12;
1,1002191062449E-11;
1,35837880169377E-11;
1,38024290745082E-11;
1,37559605930306E-11;
1,95390301063414E-11;
2,8371636394143E-11;
3,37029394389963E-11;
3,19499057987726E-11;
1,74994283989868E-11;
-5,05940223566085E-12;
-2,48916340514178E-11;
-3,51914084170342E-11;
-3,26072041560425E-11;
-2,22913397361456E-11;
-1,40677229869374E-11;
-1,01828673576415E-11;
-8,63525318465034E-12;
-8,34161831758296E-12;
-5,03800099972128E-12;
2,28014204415595E-12;
8,73403194547845E-12;
1,1171437907309E-11;
1,03982143747601E-11;
1,13312703984837E-11;
1,6902939874673E-11;
2,41041613574304E-11;
2,98559971350312E-11;
2,8136088841257E-11;
1,49813676989561E-11;
-3,46516886204162E-12;
-2,04368932732852E-11;
-2,96789795432012E-11;
-2,7387014599937E-11;
-1,93165066196104E-11;
-1,25758704781402E-11;
-8,84902701311346E-12;
-8,36537093386188E-12;
-7,82022287731846E-12;
-4,07505203059508E-12;
8,65023390913359E-13;
6,85887808834762E-12;
9,72686147723998E-12;
7,71153962587884E-12;
8,98076102030236E-12;
1,43540572922375E-11;
2,08700454942837E-11;
2,59485020812732E-11;
2,38095964791939E-11;
1,42955641449463E-11;
-4,99073542064742E-13;
-1,61516130910332E-11;
-2,38721479523134E-11;
-2,24556726376605E-11;
-1,71029507066956E-11;
-1,11836914883716E-11;
-7,89834054300847E-12;
-7,57736035589898E-12;
-6,53698375719332E-12;
-3,90964727285917E-12;
3,61809042068949E-13;
5,54145172580826E-12;
7,65335772451533E-12;
7,0804913293862E-12;
8,09380185513432E-12;
1,17633578676732E-11;
1,69319474406794E-11;
2,12620130129406E-11;
2,01964693960819E-11;
1,21588738473878E-11;
6,45348160856562E-14;
-1,21242188814293E-11;
-1,92071872638316E-11;
-1,89029398047541E-11;
-1,43644859796524E-11;
-9,32898656782853E-12;
-6,41121481101203E-12;
-5,82625324171094E-12;
-5,39704339526683E-12;
-3,93832296136753E-12;
-9,66389266030397E-14;
3,96735537629304E-12;
5,11496324838314E-12;
5,60244222361215E-12;
6,49456776189514E-12;
9,376469593148E-12;
1,45518047033408E-11;
1,82836726718524E-11;
1,74861590964242E-11;
1,04276621814744E-11;
9,55412932434657E-14;
-9,68639265548383E-12;
-1,51885659715617E-11;
-1,41991474102572E-11;
-1,06160055899312E-11;
-7,42692331889856E-12;
-5,50946216485574E-12;
-5,26210888725912E-12;
-5,54984066448816E-12;
-3,92703432421059E-12;
-4,20647912173229E-13;
2,01103232629236E-12;
4,16713988394102E-12;
4,58892580961063E-12;
4,03662144664317E-12;
7,43488031888762E-12;
1,13557846762093E-11;
1,39600974517704E-11;
1,42675610938462E-11;
9,40993948466845E-12;
2,25249004528667E-12;
-5,97184561814026E-12;
-1,15105408200851E-11;
-1,08794022446198E-11;
-8,89845413311912E-12;
-6,52988637324522E-12;
-4,37509986146242E-12;
-5,07710793697808E-12;
-4,9368722289669E-12;
-3,09486520730999E-12;
-1,40534378396913E-12;
1,33057443291523E-12;
2,99684125156396E-12;
2,6105205827318E-12;
3,44249530447781E-12;
5,62653042342877E-12;
8,42328992875357E-12;
1,15817681256467E-11;
1,19941407489477E-11;
7,89382241159167E-12;
1,66840708083745E-12;
-3,46519361720953E-12;
-6,87708242059519E-12;
-8,29280403094413E-12;
-6,61522275440433E-12;
-4,76107505310798E-12;
-4,57375974979999E-12;
-4,37270602668796E-12;
-4,55595371093345E-12;
-4,43172241930381E-12;
-2,05596553966405E-12;
1,13010578463212E-12;
1,9160637766152E-12;
1,8447476626332E-12;
2,57119310115451E-12;
4,13425074350879E-12;
7,66551708828089E-12;
9,7616720581215E-12;
9,60316630894949E-12;
7,4687146290211E-12;
2,94905799932297E-12;
-9,73860203215189E-13;
-4,45852194027662E-12;
-6,26683502552572E-12;
-5,24082499419911E-12;
-3,52829585773541E-12;
-2,79306328743424E-12;
-3,12867423543213E-12;
-3,22052578849813E-12;
-2,99096517941003E-12;
-1,50203416034539E-12;
-1,73538215338563E-13;
1,13773004217707E-13;
1,32088789417733E-12;
2,36646476511261E-12;
3,47673322153494E-12;
5,21689829426936E-12;
6,71090870058569E-12;
7,66837278570454E-12;
6,91246384378691E-12;
3,73679099943064E-12;
7,46804357433396E-13;
-1,03971657789368E-12;
-2,70005780300881E-12;
-2,86265643298956E-12;
-2,62281242700727E-12;
-3,15338227045876E-12;
-3,28803803729416E-12;
-2,65629732391019E-12;
-2,06754793347583E-12;
-1,90036648359135E-12;
-7,38643176497722E-13;
-1,75862747843043E-13;
-1,6903100672612E-13;
1,0444055759613E-12;
1,23598689449713E-12;
2,41784031347444E-12;
5,18498045345021E-12;
5,38769844298232E-12;
4,8561291888159E-12;
4,2410804315383E-12;
1,65011595054008E-12;
4,86310626892027E-13;
4,69101227872931E-13;
-1,48363760944543E-12;
-2,14239728146159E-12;
-1,32592372120115E-12;
-2,08610583640554E-12;
-2,67999616072171E-12;
-2,24751190657164E-12;
-2,06398522074633E-12;
-2,22026351896204E-12;
-1,51626723665016E-12;
-1,74912713702286E-13;
-3,71822321758255E-13;
-2,40497149276182E-13;
1,69514895127198E-12;
2,24569618564371E-12;
3,07669519565389E-12;
5,31291180713535E-12;
4,81440762589002E-12;
3,29452894831246E-12;
2,47303434479255E-12;
1,22142250818829E-12;
1,222937474329E-13;
-1,24249387182473E-12;
-1,85102474545679E-12;
-1,9072926074686E-12;
-2,30014410611991E-12;
-2,32779947054745E-12;
-2,22906711291563E-12;
-1,27674036564274E-12;
-1,1649273993665E-12;
-1,79888349129092E-12;
-1,34506697325632E-14;
6,77012738606941E-13;
3,18276503256945E-13;
1,8244292916738E-12;
2,31111095535568E-12;
3,07894415527768E-12;
4,9883499476779E-12;
4,60475407889582E-12;
3,13616267551183E-12;
2,45544268279763E-12;
7,69439146762272E-13;
-9,76482901185207E-13;
-1,07792167208179E-12;
-1,26156582849586E-12;
-1,36475985544884E-12;
-1,64491293203401E-12;
-2,71329031820784E-12;
-2,14041707531463E-12;
-1,61323768768572E-12;
-1,80904271308136E-12;
-8,69755176547068E-13;
-5,55513052030833E-13;
-2,99013697513796E-13;
-3,27765213871544E-14;
6,18145089162859E-13;
2,65914826611691E-12;
4,28805317367211E-12;
5,62237490517003E-12;
5,13809271322403E-12;
3,40219879820078E-12;
2,22873968174404E-12;
1,13806707445425E-13;
-2,71590354367588E-13;
-8,30542841604931E-14;
-1,68969616267414E-12;
-1,47050044928407E-12;
-1,60156767486415E-12;
-2,51251509019851E-12;
-2,27736499629444E-12;
-2,52692671930275E-12;
-1,10808519233459E-12;
-6,15184683627074E-13;
-1,91551796295934E-12;
-1,13256678296425E-12;
-3,22292078404844E-14;
2,07763001896288E-12;
4,5360149967991E-12;
5,62083330364596E-12;
5,92545532184987E-12;
4,30174586134571E-12;
2,46381653278596E-12;
7,40245010383845E-13;
-4,97560450423596E-13;
-9,14896473814792E-14;
-7,37390674410931E-13;
-2,10037973654053E-12;
-2,74432282914403E-12;
-2,65770966658718E-12;
-1,66314617937653E-12;
-9,18558996614673E-13;
-1,33391115631338E-12;
-2,17922957567887E-12;
-2,55422969558936E-12;
-2,51559655593825E-12;
-1,37080790540239E-12;
1,03495138644001E-12;
4,5844220080971E-12;
6,9711743797832E-12;
6,84425663567151E-12;
5,67841614365421E-12;
2,83740688470019E-12;
1,27896720674544E-12;
1,33745408582839E-12;
8,3264012627442E-14;
-8,837085524314E-13;
-1,55583488281509E-12;
-2,19946735880514E-12;
-3,02425608976825E-12;
-2,98122909839225E-12;
-1,75953261579409E-12;
-2,14984419512151E-12;
-2,61894547435902E-12;
-2,87644383086402E-12;
-3,2911048491423E-12;
-1,37295845509991E-12;
1,19370979803369E-12;
3,23643639463338E-12;
6,50505662879273E-12;
7,81973550011147E-12;
5,49420272994313E-12;
3,47411473356789E-12;
1,28993182945649E-12;
-5,27987946984064E-14;
5,99073657965201E-13;
-5,89160137086452E-13;
-1,86990164795242E-12;
-1,94486852023596E-12;
-2,08836322510151E-12;
-2,01097383764357E-12;
-2,27168382520264E-12;
-1,90235794867035E-12;
-1,65634853273304E-12;
-2,3140264962788E-12;
-2,95220361080103E-12;
-2,07352542589621E-12;
1,14525445959435E-12;
3,8141891024593E-12;
5,82444373267328E-12;
7,40245261174165E-12;
6,1293765664554E-12;
3,71755425568415E-12;
2,27895651045844E-12;
1,14933740085414E-12;
5,19091311029152E-13;
1,51056819538264E-13;
-5,75001141014371E-13;
-1,53953751772805E-12;
-2,53080595980757E-12;
-2,83459841783401E-12;
-2,69241263494896E-12;
-2,249896125772E-12;
-2,56851511078021E-12;
-3,48972365885659E-12;
-3,00700932889271E-12;
-2,45530944611548E-12;
-3,74017136710199E-13;
3,64919932004521E-12;
6,13898786201161E-12;
7,53130668156728E-12;
6,39086184956821E-12;
3,46026999371032E-12;
2,28420902081959E-12;
1,73307879431983E-12;
1,43424953944008E-12;
6,98689827523354E-13;
-9,14331999218449E-13;
-1,48412900464634E-12;
-1,49450823390255E-12;
-2,49255325864162E-12;
-2,45880949355546E-12;
-1,41203864798911E-12;
-2,58062878304957E-12;
-3,42919868279188E-12;
-3,77741826765635E-12;
-3,77873568947718E-12;
2,89717829608273E-13;
4,02168051955938E-12;
5,8606506203109E-12;
7,68525921719814E-12;
6,68025525198063E-12;
4,31197121571608E-12;
2,19156890619762E-12;
2,98046120970525E-13;
6,63881979042191E-13;
1,0055435406531E-12;
-9,74954292049659E-13;
-2,20905768066655E-12;
-2,79557374135217E-12;
-3,48886984464181E-12;
-2,46865721577566E-12;
-1,9605953839901E-12;
-3,07230610954699E-12;
-3,42994356756423E-12;
-3,96677149322244E-12;
-3,90575452664281E-12;
-8,51724795420457E-13;
2,87884644044158E-12;
6,2880597777562E-12;
7,59499357699825E-12;
6,22729553842082E-12;
4,80272673175635E-12;
2,01873978626566E-12;
2,00672000069875E-13;
5,69983641553382E-13;
6,78064544026326E-13;
8,82900189236199E-14;
-2,20001379444835E-12;
-2,91975308871292E-12;
-2,21437585354166E-12;
-2,2900549988098E-12;
-1,53923820821418E-12;
-2,16217254043961E-12;
-3,57401458466957E-12;
-3,87255215590162E-12;
-2,73576948120248E-12;
2,4952386275537E-13;
2,79125343102034E-12;
6,13743786517739E-12;
8,39751638801939E-12;
6,31552013543632E-12;
4,44165811581502E-12;
2,93633364557993E-12;
7,89995913701282E-13;
5,54356076907317E-13;
4,82647237314006E-13;
-4,68478850790766E-13;
-1,02736230507184E-12;
-1,9879297054805E-12;
-2,43819490667898E-12;
-2,10485928280494E-12;
-2,4118818148738E-12;
-2,59804724693432E-12;
-3,59952459092291E-12;
-4,3058215292431E-12;
-3,0447307824814E-12;
-3,8063372380624E-13;
3,32600299288358E-12;
5,80349340410786E-12;
6,65999916328918E-12;
5,51535465579832E-12;
3,50618007022523E-12;
2,37272904736993E-12;
1,49230942338464E-12;
1,37247392835165E-12;
7,75259938676752E-13;
7,11863264908853E-14;
-5,76562954702898E-13;
-2,18600337395617E-12;
-2,08912724481739E-12;
-1,00887073324159E-12;
-1,81361950627038E-12;
-2,38210562493295E-12;
-3,14339188406918E-12;
-4,6998089482902E-12;
-3,4103565464856E-12;
-1,4094944675365E-12;
1,5624085282229E-12;
5,93375860199884E-12;
6,41943533408119E-12;
5,80627505657792E-12;
4,69781496972996E-12;
1,69445101217862E-12;
7,30234606721418E-13;
8,81134266664662E-13;
8,95561674921329E-13;
1,1521064265909E-13;
-1,21274644298909E-12;
-1,43091405731081E-12;
-1,74926787249773E-12;
-2,06199674981515E-12;
-1,85820395144633E-12;
-2,43896392584986E-12;
-3,70555828618247E-12;
-4,23048994300426E-12;
-3,31344093378072E-12;
-4,17597877071615E-13;
2,92297163929635E-12;
5,03044613444081E-12;
5,83899749665145E-12;
5,35819267811502E-12;
4,47416197454742E-12;
2,86605465279941E-12;
1,0985776608157E-12;
1,17915078933331E-12;
1,91110119793398E-12;
5,32396402382669E-13;
-1,00234627091754E-12;
-1,14744651537098E-12;
-2,16586907594048E-12;
-2,13056967037223E-12;
-9,94410038341072E-13;
-2,55893666283832E-12;
-4,18357837691628E-12;
-3,10015149098917E-12;
-2,42997664362854E-12;
-1,3139002459844E-12;
2,10181820949306E-12;
4,8134902901308E-12;
5,9714632264126E-12;
5,20540369684583E-12;
2,98948138600642E-12;
2,1921155319687E-12;
2,01861674861589E-12;
9,95334976534906E-13;
6,54820302567517E-13;
1,97012700729951E-13;
-1,29155801666771E-12;
-1,57020526782718E-12;
-1,45837588007629E-12;
-1,38055360475942E-12;
-8,13579066969134E-13;
-2,02696939659067E-12;
-3,48859609909749E-12;
-3,3175802891391E-12;
-2,91332107353349E-12;
-1,04270391436501E-12;
2,4406516919136E-12;
4,42465427369658E-12;
5,29111705582764E-12;
5,34037738221061E-12;
2,972296182968E-12;
1,56075064811054E-12;
1,60881862275411E-12;
5,91955557600362E-13;
4,72706043306464E-13;
2,54167713214586E-13;
-6,03278847722752E-13;
-1,04117638239175E-12;
-1,63821237055188E-12;
-1,38338556593255E-12;
-8,7992140779296E-13;
-1,43962522341907E-12;
-2,78739228630299E-12;
-2,89952744789161E-12;
-2,63824889123765E-12;
-1,69634237842076E-12;
2,31827462677368E-12;
4,71413301901367E-12;
4,97100330525566E-12;
5,24379160853936E-12;
3,29632875845461E-12;
1,21849662088496E-12;
7,32714960024253E-13;
1,52430172813653E-12;
2,46438462880654E-12;
9,09319998832232E-13;
-5,43840962901945E-13;
-9,10326961883024E-13;
-1,84935344424834E-12;
-1,33592921952971E-12;
-1,27202941130562E-12;
-2,57502352483988E-12;
-2,84682169774427E-12;
-2,95524888454557E-12;
-2,69487039993968E-12;
-1,26979364185009E-12;
1,06274097495745E-12;
3,73047349331514E-12;
4,96002042422152E-12;
4,10709935876515E-12;
2,73029512658225E-12;
2,05594858951142E-12;
1,71553585900877E-12;
1,204066668411E-12;
1,20502320151308E-12;
1,30562610879832E-12;
2,04522913373639E-13;
-3,98822498004169E-13;
-7,15066161291204E-13;
-1,3476535699739E-12;
-1,20662899269078E-12;
-1,64861441517898E-12;
-1,64707857465461E-12;
-2,22429124531475E-12;
-3,48161115115214E-12;
-1,1132342996097E-12;
1,82004241504443E-12;
3,31197711079751E-12;
4,81749247162709E-12;
4,04780151540997E-12;
3,15486227847804E-12;
2,30705979880708E-12;
3,13805198774774E-13;
1,13900942365246E-12;
1,69134102580813E-12;
3,8490502824798E-13;
1,12605481925549E-13;
-8,21207454728455E-13;
-7,3935606432531E-13;
5,24196028416402E-13;
-8,3544306581685E-13;
-2,36407619058676E-12;
-2,21426351195063E-12;
-2,83292565786519E-12;
-2,57162309561952E-12;
-9,1297821610765E-13;
1,29662877827362E-12;
3,72734815013456E-12;
4,11280490963174E-12;
3,79231991556655E-12;
2,56166567418507E-12;
8,7984527365938E-13;
1,12394458052844E-12;
6,06150409175262E-13;
4,7590453238141E-13;
9,83198739582345E-13;
-3,41189522174707E-13;
-6,45155245727565E-13;
-7,95560288685707E-13;
-1,25415041383365E-12;
-4,13429935851678E-13;
-1,08217474298106E-12;
-2,2023458484042E-12;
-2,87311689578158E-12;
-2,99027212808981E-12;
-7,30109973189193E-13;
1,03283459547034E-12;
2,22826795670266E-12;
3,36869345334412E-12;
2,69913252130693E-12;
2,43897107232339E-12;
1,84137150459102E-12;
3,1015563379983E-13;
5,85377052501831E-13;
1,15728454550458E-12;
4,19460375962703E-13;
-7,50065819372078E-13;
-8,52930704424199E-13;
-2,63028465405789E-13;
-3,61218626204006E-13;
-7,38717171212111E-13;
-1,46306699302768E-12;
-1,55796501138836E-12;
-2,12019682327504E-12;
-2,79415957214395E-12;
-5,28867673908E-13;
1,53157956146627E-12;
2,25957909508296E-12;
3,51378665361698E-12;
3,29052733660345E-12;
2,0650253817636E-12;
1,61445152925405E-12;
1,57565833707096E-12;
1,3375692123682E-12;
8,43474198322531E-13;
1,1738853840275E-12;
7,52144385855634E-13;
-7,77286060455548E-13;
-4,65879644892583E-13;
-1,82991736504003E-14;
-8,24058929945236E-13;
-1,42554492932079E-12;
-2,02835269252495E-12;
-1,88602721672715E-12;
-1,12889602628266E-12;
-2,26954307285994E-13;
1,24852830280125E-12;
2,15095264640582E-12;
2,72557005848614E-12;
2,60942759994259E-12;
1,25992682004519E-12;
1,07452572902771E-12;
1,41927933976348E-12;
1,21923622770262E-12;
1,43905903234093E-12;
1,03252683505083E-12;
4,35877135524842E-13;
1,74476660823758E-13;
-3,3739350722305E-13;
-1,212901068367E-13;
-5,67396166898651E-13;
-1,23290415311137E-12;
-5,42700290127568E-13;
-1,35324452458713E-12;
-1,71617761561167E-12;
-6,19429406931641E-13;
1,15645573315103E-13;
1,8983718354658E-12;
2,7294106131161E-12;
2,38318024806945E-12;
1,729234132442E-12;
7,96924463207186E-13;
7,50618941993674E-13;
8,99353129148444E-13;
1,14473355244698E-12;
1,01187550466098E-12;
1,95809708729758E-13;
-3,06172081724435E-13;
-1,32204063777114E-13;
-3,31260867855573E-13;
-7,25837621335436E-13;
-4,72840496264732E-13;
-1,087186347637E-12;
-1,59210668642181E-12;
-4,2660656765467E-13;
1,96033716480099E-13;
5,12574490235518E-13;
1,48810991092247E-12;
1,42811097263669E-12;
1,49951405582604E-12;
1,68819141172513E-12;
9,72992956717241E-13;
1,02588655963215E-12;
1,0669114894719E-12;
8,71399863719228E-13;
9,50373888344458E-13;
2,27885071859062E-13;
-6,03492056298993E-13;
-9,96955877619888E-13;
-4,12535676489225E-13;
3,85767099626471E-13;
-7,785369120026E-13;
-1,5530073084956E-12;
-1,32731926633936E-12;
-2,06397770131061E-12;
-1,11281233029565E-12;
6,8273693786308E-13;
1,24645135151696E-12;
1,9301803393972E-12;
1,28112327225362E-12;
1,00799359136899E-12;
1,013179339717E-12;
5,08484112851997E-13;
1,63917213135805E-12;
9,85342255719569E-13;
4,8113122097838E-13;
4,90025533536807E-13;
-8,41299205539559E-13;
1,24551332228369E-13;
2,6650728282912E-13;
-5,8040280123368E-13;
-1,26589422853828E-13;
-7,449922976233E-13;
-1,47653468904553E-12;
-1,15472373002792E-12;
-2,89076221917372E-13;
1,02254986158998E-12;
1,87480984407839E-12;
2,31039506504385E-12;
2,9488618594308E-12;
2,18835643377356E-12;
1,14758864748224E-12;
1,14449739845288E-12;
5,57160987650338E-13;
7,22670495750251E-13;
1,18369249309725E-12;
2,78794675758821E-13;
-3,19953408239612E-13;
-1,53766408810272E-13;
-3,35640814144415E-13;
-8,19512271899227E-13;
-1,21593435713979E-13;
1,63698414236049E-13;
-1,13665029066434E-12;
-9,58920481798791E-13;
-8,78568627983411E-13;
-7,81622356217375E-13;
1,27632706569105E-12;
1,28290059574952E-12;
9,59909503314777E-13;
1,52792582745909E-12;
5,43454434758577E-13;
4,67314503049819E-13;
6,68146803696804E-13;
5,16673074593051E-13;
9,38716328024772E-13;
9,69786490856451E-13;
5,36249870382243E-13;
-3,80384495872477E-13;
-5,10393746777488E-13;
-9,18815932687743E-14;
1,00685992091422E-13;
-2,74210924673989E-13;
-1,18254603924981E-12;
-4,5297303951056E-13;
3,7509072919905E-13;
4,00315592961164E-13;
8,95958438502742E-13;
1,28866890394955E-12;
1,02730914374019E-12;
9,18261974961399E-13;
1,76201545377197E-12;
1,06947450867659E-12;
5,02848676979428E-13;
1,0504053487001E-12;
2,1140079324901E-13;
1,34827866434906E-13;
5,95385114029671E-13;
1,93095605820482E-13;
-2,63872878463571E-14;
5,41339374434436E-13;
3,4404873569176E-14;
-4,79112830921095E-13;
4,03620747826537E-13;
-1,79857175420659E-13;
-9,1449182477282E-14;
6,12984444536793E-13;
4,72499754949723E-13;
8,77518177573826E-13;
1,30945706897889E-12;
1,78649513282233E-12;
2,08713153239625E-12;
1,52388057139761E-12;
7,61605547330898E-14;
5,12158285653996E-14;
6,53229078978182E-13;
5,63635559732188E-13;
5,81689567246826E-13;
3,73580069880665E-13;
5,04183745173347E-13;
2,28811213820115E-13;
-6,40438542731829E-14;
-3,15412857563167E-13;
-4,77533663729374E-13;
-2,67131694102899E-13;
-4,99661100067727E-13;
-3,61530696436947E-15;
5,94011106968227E-13;
6,76265931764004E-13;
1,27795388756712E-12;
1,22254460765651E-12;
1,03253608921458E-13;
9,93420435041794E-14;
7,97860302275652E-13;
1,22789197987814E-12;
1,40859873817024E-12;
3,42656600877139E-13;
-1,81465780220622E-13;
1,20181172650465E-13;
2,39378263953333E-13;
6,58033515807776E-13;
1,24648805620992E-13;
-5,26216708249882E-14;
-7,72832897650804E-14;
-1,25995565247409E-12;
-1,23668515056537E-13;
1,31621562170815E-12;
1,00444866762404E-12;
1,10836007037471E-12;
2,37181250192845E-13;
3,04135913282508E-13;
9,33924014698022E-13;
3,29024002918761E-13;
5,77286406507657E-13;
5,72900016298864E-13;
6,61495395260434E-13;
3,66345534100414E-13;
-1,224900555924E-13;
6,42201472331579E-13;
5,17750794719521E-13;
2,58455533651069E-13;
3,06146585314625E-13;
5,138011766524E-14;
-1,49527202962413E-13;
-4,55116030240757E-13;
7,04377232850727E-14;
5,69888449392993E-13;
5,42696029276397E-13;
7,20083572757645E-13;
1,05073283207601E-12;
9,805682413304E-13;
-3,53657815243771E-13;
-5,13776575042804E-13;
1,15546090547473E-12;
1,59166583226053E-12;
4,83569232987016E-13;
-3,45349630285913E-13;
2,54427479608586E-13;
3,24152340640923E-13;
2,32766223152217E-14;
8,38129644451488E-13;
4,42470457581778E-13;
7,49702021856607E-14;
5,19182456668734E-13;
4,19792097001439E-13;
5,47519636330192E-13;
6,69667293024144E-14;
2,22279266045617E-13;
8,46395140363929E-13;
6,23325207597265E-13;
1,11011870238171E-12;
1,00219999528234E-12;
6,60070332500528E-13;
4,30936079706866E-13;
-5,32618517326039E-13;
6,23644851567166E-13;
1,38380251294622E-12;
-1,74429781960906E-13;
3,6755837388477E-14;
7,35380399324152E-13;
5,81344600734048E-13;
1,32604372257333E-13;
-6,07705232749836E-13;
-4,46338616075266E-14;
9,74057958480976E-13;
8,24722903335922E-13;
1,45665834550699E-13;
2,29180394095199E-13;
4,77519998848192E-13;
7,38565392004929E-13;
4,19484794652036E-13;
-1,62332703424365E-13;
7,61015300602018E-13;
5,63237364971872E-13;
-1,67770533786373E-13;
6,85405124080922E-13;
6,61061075028271E-13;
2,51660972744572E-13;
9,26120132488254E-13;
9,80236189166145E-13;
4,70652166023147E-13;
3,86628103264427E-13;
1,58965247515601E-13;
8,27494252125585E-13;
1,35523876618756E-12;
1,42956144178393E-13;
-1,84942542870027E-13;
5,21945587811959E-13;
4,16602130791302E-13;
5,89012524582587E-13;
1,43574709190035E-12;
9,1768007079009E-13;
5,5763673009724E-14;
9,83413581392241E-14;
2,59743464852128E-14;
3,03088171518307E-13;
1,11727411237418E-13;
2,53835808210525E-13;
2,59439152238995E-13;
-1,68668568302443E-13;
6,81363758119683E-13;
3,17144426308332E-13;
-4,25100475368818E-14;
9,26027395097824E-14;
-1,52165928363092E-13;
1,52062498160173E-13;
6,02932506543425E-15;
-2,06709690648524E-14;
-4,50903872003221E-13;
-2,32380732007354E-13;
5,11793347455635E-13;
1,1815681559877E-13;
4,15728380252487E-13;
6,95619403756524E-13;
2,85253272932697E-13;
4,67555044148318E-13;
2,81671663146129E-13;
2,63679349984717E-13;
9,37996154263778E-13;
7,68262179320236E-14;
-2,21663409060384E-13;
6,27726283196092E-13;
2,05962746557972E-13;
4,64374143146235E-13;
7,52266590929394E-13;
-3,9784813761169E-13;
-7,09121861956341E-13;
3,38504730261637E-13;
3,71702442632877E-13;
-1,04453891029118E-13;
6,58928726089018E-13;
5,05488901964749E-13;
-2,28396242234658E-13;
4,68223840328212E-13;
1,22049176597213E-12;
5,99691988448448E-13;
8,11260258879671E-14;
4,22206891313028E-13;
1,88061877873172E-13;
8,45079298845325E-13;
1,43766997033889E-12;
4,34207652804683E-13;
2,52919736647558E-13;
7,92173353068886E-13;
1,54897158764671E-12;
1,58640015944461E-12;
9,51982548485283E-13;
3,86944650248614E-13;
-5,66761341259163E-13;
-1,90068469846146E-13;
4,39426467191823E-13;
4,504892324911E-14;
1,18288132331003E-13;
8,64657744632872E-13;
5,43758904618804E-13;
-5,56423516082674E-13;
6,19860991257071E-13;
1,13438701958555E-12;
3,94479631990359E-13;
1,12523523252958E-12;
5,71817490205076E-13;
2,8120152153307E-13;
6,11202967627825E-13;
2,17996157964639E-14;
5,72000897646732E-13;
1,90971540586281E-13;
-1,82378389564702E-13;
6,50603011079409E-13;
-7,3415909611591E-14;
1,12627119760858E-13;
9,53632305683916E-13;
-9,93079835054028E-14;
-2,69802398063621E-13;
6,58462656883438E-13;
5,09746045319387E-13;
8,21649929833682E-14;
1,57006523789448E-13;
8,17431578912186E-14;
4,786061022545E-13;
1,12054372931969E-12;
8,15637866381528E-13;
8,45129750120275E-13;
4,99508736713903E-13;
1,79171909452354E-13;
1,24444901997257E-12;
9,53554764115212E-13;
-3,3474695392614E-14;
-5,41982031460506E-13;
-6,31137549070809E-13;
1,33776731694017E-13;
4,86220699565622E-13;
4,44739251365078E-13;
3,05798711509062E-13;
4,52490619297607E-13;
-3,08775797384879E-14;
1,93885028858079E-13;
1,6510114147591E-12;
6,5946340905528E-13;
5,72134961412882E-13;
1,54180032992145E-12;
4,6396185312015E-13;
2,25145312071037E-13;
-2,38143348236142E-13;
-2,89403763000994E-13;
7,70476933451951E-13;
3,89611333032671E-13;
3,72769212554176E-13;
5,4259608299002E-13;
-1,48026678270072E-13;
-3,39127600544482E-14;
8,33609526583718E-14;
7,31860128133073E-14;
8,05255755850112E-13;
4,29437784472325E-13;
2,93645655634505E-13;
1,38690983616511E-12;
8,78990450151996E-13;
2,96761873795183E-13;
8,94975322758625E-13;
5,34257166153214E-13;
-6,34783077185361E-14;
7,52893334597902E-13;
8,88922550256364E-13;
-3,95796297894735E-13;
-8,35882909041525E-15;
7,48337149245568E-13;
2,60775439997661E-13;
2,19038941826565E-13;
1,45041591093251E-13;
2,59000417273336E-13;
2,9619697727519E-13;
1,39326936653648E-13;
6,36169817741485E-13;
7,41218562451185E-13;
7,69450519651354E-13;
6,21693279420762E-13;
7,64578984607058E-13;
1,147691893638E-12;
3,36446517353576E-13;
1,13224554003143E-13;
5,36402448223323E-13;
7,66672441906902E-13;
8,74803455049613E-13;
8,44495137899613E-13;
6,78113473988728E-13;
1,4110600383441E-13;
7,83649699468513E-13;
9,72262640559337E-13;
3,88271603237768E-13;
7,02684729596057E-13;
3,42872077195135E-13;
-8,56238215078138E-14;
2,08847059710731E-13;
8,21429622389409E-13;
2,11496048547933E-13;
6,27737609140021E-14;
1,47353136807997E-12;
4,77774689872881E-13;
-1,96155775336089E-13;
8,01670841229806E-13;
6,89561674377302E-13;
5,73182171700742E-13;
5,60184177016696E-13;
8,71999362915086E-13;
1,16026777225449E-12;
2,39293821018712E-14;
-9,14171718131027E-13;
-3,62122238667525E-13;
3,97556744027739E-13;
7,32293982120245E-13;
9,18682537882089E-13;
1,14049959053776E-12;
6,68222626494498E-13;
-1,40981821830715E-13;
3,44537067821856E-13;
3,78674961490908E-13;
3,18665918635807E-14;
7,61497550681331E-13;
8,76237942251114E-13;
3,77529121362521E-13;
1,99681245132269E-13;
8,73266900790974E-13;
6,50083999624617E-13;
3,68690655679545E-14;
8,91844262867961E-13;
4,09489205076607E-13;
3,23409530596771E-13;
9,89819767628372E-13;
1,8504501159645E-13;
2,28017877226564E-14;
-7,04042619873872E-15;
-2,17793611369941E-14;
4,89941657787992E-13;
6,51822335670524E-13;
2,96546594775558E-13;
1,35064563237296E-13;
4,62683233160809E-13;
4,40661540337275E-13;
5,55487483387152E-13;
1,70056327214952E-13;
1,66793274407067E-13;
7,6336056030536E-13;
6,33665826589469E-13;
4,8926251229897E-13;
5,20235914118959E-14;
6,78752615535251E-13;
7,69637589845438E-13;
-5,87207122086479E-13;
4,579819865905E-14;
9,06402496963511E-13;
6,37593858941391E-13;
9,46985657501467E-13;
6,83123538180263E-13;
-8,69586491132913E-14;
-8,7877017442181E-15;
9,44759393665362E-14;
5,57147925107292E-13;
8,96175347551833E-13;
2,56816456084363E-13;
3,58416997285332E-14;
1,11960994619371E-13;
4,84771272491735E-13;
8,83902507714716E-13;
1,24686493094004E-13;
-2,61213757411267E-13;
3,95871272848024E-13;
4,61073170361988E-13;
-6,13315334218777E-13;
-5,03833601817317E-13;
6,28453491440301E-13;
2,82940310933699E-13;
3,49115704630216E-13;
6,58198540323822E-13;
5,66693795734028E-13;
9,65687257897357E-13;
1,12222132680229E-12;
1,05122746853538E-12;
2,22644784166274E-13;
7,94806736301748E-14;
6,93720964423189E-13;
8,29840135552284E-13;
1,00658051044365E-12;
3,09759527591794E-13;
-5,02058432336219E-14;
1,52641602414786E-13;
-3,35002114447336E-14;
3,46780946244512E-13;
2,28750746489952E-13;
-5,23828672638121E-13;
-6,00157054076576E-13;
1,06917869156503E-13;
2,85322231817512E-13;
4,95179419992067E-13;
1,31476079219315E-12;
4,52072316464324E-13;
6,81558021328526E-15;
9,31395776057636E-13;
5,40934267753062E-13;
5,60363452879901E-13;
9,29822798775296E-13;
-2,27438373777097E-13;
8,27107550952487E-14;
1,36808140084774E-12;
6,70174368408683E-13;
5,42285320176454E-13;
1,06962243061519E-12;
7,49964158887484E-13;
8,65886401691035E-14;
-1,6608102249831E-13;
5,97327857087886E-13;
7,48816212854787E-14;
-3,20776250480786E-13;
6,1371682671269E-13;
4,7569589860908E-13;
-1,38929137017038E-13;
2,40822208619933E-13;
1,09697995765252E-12;
4,26580926217297E-13;
2,91572645233789E-13;
5,87823067409147E-13;
2,8702129844948E-13;
1,02931289171437E-12;
8,41084690108252E-13;
6,83858017918844E-13;
8,73655380366857E-13;
2,87539140330913E-13;
8,46315327639869E-14;
3,89420125557681E-13;
9,53068166266184E-13;
5,33674115632509E-13;
7,80265985324161E-15;
1,19669283155486E-13;
-4,08944332779472E-13;
-2,83525283982907E-13;
6,94532642908784E-13;
1,00401972127808E-12;
1,76488983040128E-13;
-4,26120002857994E-13;
6,67422725020694E-13;
7,7061366035461E-13;
-1,66343894023788E-13;
4,21813432818158E-13;
5,25969498961498E-13;
7,4208751772722E-13;
1,74006641264365E-12;
3,39846209778563E-13;
-7,33052566820036E-13;
1,3416217383332E-13;
3,56890594478276E-13;
1,06708835547133E-13;
-2,58522491264888E-13;
-1,94109856350584E-14;
6,82624320339712E-14;
4,52149315769899E-14;
7,40796237991695E-13;
1,06712519611642E-12;
1,03175719612724E-12;
4,6809232819281E-13;
6,09693745193895E-13;
1,16029634059503E-12;
2,8689100460882E-13;
-6,58271639864386E-14;
5,40766771808863E-13;
9,29563219141802E-13;
5,98911151137819E-13;
1,58255295216701E-14;
6,02551023932647E-13;
4,70635110354467E-13;
-4,09276208720012E-13;
-4,36457933700511E-13;
-5,11631053741265E-13;
5,09363149316132E-13;
1,49106984325739E-12;
6,51570659059184E-13;
4,41004511676186E-14;
2,74172621395074E-13;
2,31152060218936E-13;
2,38978079504662E-13;
9,94955119946298E-13;
5,64657836839451E-13;
-2,01519877199566E-13;
6,82193400804308E-13;
7,21174858276821E-13;
-1,18139485551246E-14;
-1,89578504910099E-14;
-2,376491322425E-13;
-5,4409315558038E-13;
-8,56193909962261E-14;
5,60625956492985E-13;
3,9560136118157E-13;
-2,57765288711088E-13;
-1,99720119765102E-13;
3,31235141030121E-13;
1,59277299878799E-13;
2,52843973476182E-13;
1,04379945392401E-12;
6,92728819253458E-13;
-1,83546380874382E-13;
4,91779605701457E-14;
5,09878278643315E-13;
5,67893590224901E-13;
1,39356873189892E-13;
1,48088608756949E-13;
7,46027072059882E-13;
4,61846383099474E-13;
6,86127189588852E-14;
-1,42291572896888E-13;
1,74877281798766E-14;
4,32653316780162E-13;
1,05728572674296E-14;
2,49164542684947E-13;
5,94908639995375E-13;
-4,75993701185204E-14;
2,01177983902435E-13;
7,27775704410487E-13;
7,32480543873848E-13;
4,77895382396401E-13;
1,20695612078927E-13;
3,82881755550117E-13;
-5,82706445703066E-14;
8,95720844549952E-14;
1,61800897917384E-12;
9,69260110700397E-13;
-1,35987132575371E-14;
5,39815802361193E-13;
3,67496041040103E-13;
1,9943296654998E-13;
-3,34458040090907E-13;
-6,55270509852013E-13;
8,13948945070064E-13;
8,1853626285108E-13;
-2,16093153131924E-13;
4,62029047589836E-13;
4,86680299904274E-13;
-4,45135310699278E-13;
-1,74211297066476E-13;
2,68886530056592E-13;
3,75023620651148E-13;
1,37973631375454E-13;
-1,71887959374969E-13;
6,91106139284164E-13;
6,39044864230493E-13;
-1,18388712091234E-13;
3,32918111533667E-13;
4,8800683900455E-13;
9,0266202393597E-13;
1,27301602006779E-12;
-9,05651687663004E-14;
-5,18308642365206E-13;
4,79284792717342E-13;
3,15917748604036E-13;
1,15212391764266E-13;
1,91832238202857E-13;
9,24847096268123E-15;
-2,69990527393369E-14;
-2,07857198415907E-13;
2,08328057461558E-13;
4,25641729933167E-13;
4,41913303813366E-13;
8,06947727280027E-13;
4,29947253833118E-13;
-1,68915309775368E-13;
-4,61760345097186E-14;
4,0258618266613E-13;
6,6770922476494E-13;
8,07748169587882E-13;
3,07830251387543E-13;
6,94108002998567E-13;
1,11486209844736E-12;
3,43731481755848E-13;
1,17612562172474E-12;
1,11193314948904E-12;
5,39285056054508E-13;
1,20119123491814E-12;
3,02819039845124E-13;
5,33548501422332E-13;
1,34495673511385E-12;
3,11816068410992E-13;
-2,1304718181088E-14;
2,87896612999219E-13;
3,58244924467171E-13;
1,27048713855772E-13;
-2,69267974336434E-14;
5,98740635217703E-13;
6,62647911078361E-13;
-2,23587813674632E-13;
8,31061652690999E-14;
5,4665757322163E-13;
-1,22445304745713E-13;
8,24137245949785E-14;
2,87147358238746E-13;
5,11652774921443E-13;
7,86092956034671E-13;
-1,32176835963205E-13;
-1,63033141442982E-13;
4,2715632326061E-13;
6,73365272539622E-14;
3,53609828704715E-13;
7,47354303036205E-13;
-3,95248401173735E-13;
3,04981641812549E-14;
1,22299617253816E-12;
6,26987644275405E-13;
5,0468902241663E-13;
4,98460889231838E-13;
6,12124777890673E-13;
8,75107959306181E-13;
-2,5924765641792E-14;
-1,7913957354938E-13;
7,47213825880231E-13;
5,26183806580136E-13;
-5,07646029683865E-13;
-6,42953015268021E-13;
-1,50200018355127E-13;
1,37293942755901E-13;
4,95510742035713E-13;
4,55915611480003E-13;
-3,86331325472937E-14;
-4,95283053296516E-14;
1,20644815421463E-13;
3,71495359128364E-13;
5,70737944212733E-13;
3,61561266876341E-13;
9,04791107998291E-14;
3,65064806169877E-13;
7,66816756676372E-13;
3,86402695670112E-13;
4,54408374966927E-13;
2,34493599516351E-13;
-5,55801128547018E-13;
1,30055929528474E-13;
3,47441161715723E-13;
1,02048759410497E-13;
7,0819845318822E-13;
8,15313143716084E-13;
6,39253093637456E-13;
1,94948281244554E-13;
-3,68582457204206E-13;
-2,83433424553485E-13;
3,34612516106005E-14;
1,33763178860756E-13;
6,71355337481017E-13;
6,46683190432662E-13;
-2,23570139394249E-13;
6,8915408267605E-13;
1,32833207634494E-12;
-3,65655449689891E-15;
4,50486262128218E-13;
1,24622794768012E-12;
3,43627263350258E-13;
5,55244386286287E-13;
6,49360446862006E-13;
1,71774496511423E-13;
4,01100373597631E-13;
8,50902472886562E-13;
1,00249081308771E-12;
-1,48237460575837E-13;
-1,50127815488015E-13;
7,04830410589726E-13;
2,45207776964138E-13;
4,72376899091969E-13;
5,74337214829363E-13;
-6,09694890827175E-14;
-2,23010824013146E-14;
4,12482977691439E-13;
8,73438332113604E-13;
6,04309655252034E-13;
8,90540010524082E-13;
1,65607230476841E-12;
7,9333149106529E-13;
5,85112514332292E-13;
8,49815938534918E-13;
1,61034442464438E-13;
6,22398563824705E-13;
8,37399727420754E-13;
3,43885089922821E-14;
1,81492766284922E-13;
3,45605601836239E-13;
7,39309874794332E-13;
9,36476214536984E-13;
-6,15371139654509E-15;
3,70585279729587E-13;
5,70897504290406E-13;
-3,75407723506313E-14;
4,02064026446677E-13;
2,28349099239844E-13;
5,31691711659565E-13;
9,78702723517593E-13;
-3,91106781735695E-13;
-2,73958208095627E-13;
1,00107529736451E-12;
2,70486878033587E-13;
-2,19194132830416E-13;
5,9960598266816E-13;
5,74218391146814E-13;
-1,07359409435798E-13;
2,69530494293708E-13;
9,75531369909428E-13;
5,54348245901155E-14;
1,31239126101843E-13;
1,13480473275171E-12;
4,17521279460355E-13;
4,47042356527992E-13;
5,50447852914721E-13;
2,07002729740294E-13;
5,22267556260545E-13;
4,57612825710629E-13;
2,76814815417644E-13;
-2,71519803151399E-13;
-3,33382663298394E-13;
-6,06803954025356E-14;
-1,46042963119704E-13;
3,94571562379219E-13;
4,82291366201611E-13;
4,79371082989274E-13;
6,27192538593145E-13;
1,68659390805509E-13;
1,39088923906623E-13;
1,37854246133542E-13;
4,26874755138709E-13;
1,01509087056772E-12;
8,87781401391768E-13;
7,56792858347565E-13;
4,51036163897111E-13;
3,60057213005559E-13;
8,15271427035014E-13;
2,64957900407325E-13;
1,55135872665092E-14;
2,11068241414952E-13;
-8,67192854378104E-14;
5,00565435873666E-13;
3,61509937707802E-13;
5,04123969785651E-13;
9,16482618195587E-13;
-1,8896265723765E-13;
3,65314221463887E-13;
9,06670699798886E-13;
4,92592128322585E-13;
1,22261470598688E-12;
6,23369486291367E-13;
-5,94801281288315E-13;
2,1332297829237E-13;
7,59615947145804E-13;
5,33796485301978E-13;
7,61605395342676E-13;
-6,77557735857402E-14;
-3,5685923853978E-13;
8,26810763048744E-13;
7,47990881663654E-13;
-3,35114236929871E-13;
-4,89038902500402E-13;
3,07764148680442E-13;
6,42148234622549E-13;
3,03700562622371E-13;
2,43135740650414E-13;
-9,20217921329429E-14;
-1,678647625967E-13;
6,44043710561416E-13;
5,18489433716018E-13;
2,47081924413324E-13;
3,01165172504869E-13;
-1,67958146136768E-13;
4,17799954050304E-13;
1,12027091670703E-12;
3,59207676297301E-13;
-1,5977110455997E-13;
2,1111723936532E-13;
3,61097343873545E-13;
6,72315971729786E-13;
4,96147499185894E-13;
-3,88203021996966E-14;
2,75676567022646E-14;
-1,60526405917773E-13;
3,06920892422104E-13;
2,70936047615559E-13;
-4,67412534700284E-14;
5,88496856847172E-13;
9,11681468199574E-13;
4,87785620395072E-13;
-7,22624454255195E-13;
2,1795645052636E-13;
9,23602189149694E-13;
-3,67758901620396E-13;
-1,63886246208353E-13;
4,13994123166435E-13;
7,88881888878137E-13;
4,51725822167604E-13;
9,8310400393591E-13;
1,72002368138466E-12;
5,42924084437499E-13;
4,52298761273782E-13;
2,45902172282757E-13;
-2,43847171415232E-13;
1,9275400920072E-13;
2,87104593796374E-13;
3,30314938409995E-13;
5,2819458317445E-13;
6,06949958695063E-13;
5,98802004365614E-13;
1,05147833405794E-12;
6,42015736538216E-13;
-3,71246623308128E-13;
1,34643223735874E-13;
2,33154075953502E-13;
-3,16035432011108E-13;
5,17115532451748E-13;
7,24852697494009E-13;
5,07318783786295E-13;
1,46074808410321E-12;
1,04912581590279E-12;
-5,71208570314673E-14;
6,19380037525423E-13;
1,20416465875501E-12;
6,9557346162689E-13;
4,08563619996033E-13;
1,01125762450325E-13;
-6,93401579363379E-14;
4,09444190202775E-13;
4,05706755741699E-13;
4,51576885379795E-13;
1,08644850697138E-12;
5,14314095492942E-13;
6,54017517346626E-15;
4,31557307494485E-13;
-1,14148753286374E-13;
-1,99744068365965E-14;
6,28912385227015E-13;
-4,02352160355367E-15;
-4,29957440136801E-14;
4,67401486234799E-13;
1,07613376824836E-13;
4,12095212638283E-13;
7,96329752160436E-13;
-4,60995494759162E-14;
3,07037738606263E-14;
3,4864540310785E-13;
-2,49871024849379E-13;
3,75484149712866E-15;
3,50042659703157E-13;
2,02790016603316E-14;
3,58757869558092E-13;
8,56347426057419E-13;
5,60503623565704E-13;
1,09446794137902E-13;
4,53934002367284E-14;
2,93802760937701E-13;
5,98735515893753E-13;
7,5970162539883E-13;
1,98167566611723E-14;
-9,09871337255956E-13;
8,75231374507688E-14;
1,27136440841656E-12;
1,0276088297946E-12;
5,97159438729815E-13;
-9,40288355517966E-14;
9,08079297972908E-14;
4,82490330820852E-13;
-4,86086623003028E-14;
6,56746447463302E-13;
1,12348344887626E-12;
3,97695336697745E-13;
1,38954255348568E-13;
2,10934050693854E-13;
5,88631929778599E-13;
1,52336025864534E-13;
-1,11722929182805E-13;
7,46629358826657E-13;
-1,30159257060924E-13;
-5,6388413750932E-13;
8,94831817451868E-13;
1,04807841608083E-12;
7,12897842455298E-13;
6,24130793604364E-13;
2,77988175862794E-14;
3,48683118410808E-13;
8,05131849016646E-13;
-6,9796094655038E-14;
4,27241354488434E-13;
1,23993790736212E-12;
3,06362360800385E-13;
5,74698551694579E-13;
8,00455065342148E-13;
6,15096834281686E-14;
8,70530112817943E-14;
7,61512091297823E-15;
3,63644937424296E-13;
4,18145055874592E-13;
1,12052333919292E-14;
4,59533811058613E-13;
4,24773794151766E-15;
1,73235727508593E-13;
9,79712058588291E-13;
3,4276518418886E-13;
2,78878850319051E-13;
3,45385705967197E-13;
4,03922966918203E-13;
4,7902810741901E-13;
4,08270362426783E-13;
5,26846435377285E-13;
4,18293485638356E-14;
4,23443007793356E-13;
4,45059394426509E-13;
-1,8825153082145E-14;
3,8515334437046E-13;
-1,0440278593497E-14;
8,87346673320883E-14;
8,61157273127773E-13;
3,01893086760518E-13;
1,32982781850288E-13;
8,73205704457294E-13;
6,49764874844425E-13;
7,12401338534267E-13;
8,05126849354471E-13;
-2,75400476452475E-13;
-3,14150073848005E-13;
5,35967748445359E-13;
7,11195874769819E-13;
4,54954930592726E-13;
2,42284083108705E-13;
3,6047365245619E-13;
6,32116267740845E-13;
8,87276277435882E-13;
6,36683707335984E-13;
5,35248563205742E-13;
9,96360666396785E-13;
3,22792628110957E-13;
-3,22266262669031E-13;
4,20683188910735E-14;
3,72388971979963E-14;
3,14873971810711E-13;
3,63552351920462E-13;
2,5356391651456E-13;
1,01240475709138E-12;
6,74530181986618E-13;
-1,62645692809874E-13;
3,60812246022736E-13;
5,20641777874725E-13;
1,22152305649048E-13;
9,96448075720188E-14;
-2,13161524207181E-13;
2,59976651229394E-14;
6,18002841710275E-13;
5,77279697995148E-13;
9,44523730923079E-13;
1,03515519388248E-12;
4,31148862121178E-13;
2,16442776177466E-13;
-2,25832204338537E-13;
7,57709992702276E-16;
1,04213240832977E-12;
-1,06629324289641E-14;
-3,55371105167864E-13;
1,19252239585119E-12;
5,95384700380732E-13;
4,81974822823659E-13;
1,20061762125502E-12;
7,68499202970099E-13;
6,76641870204202E-13;
-2,14132229142265E-13;
-6,76901450436044E-13;
9,79528539850955E-14;
6,65234162262978E-13;
1,25681823877344E-12;
5,50272421902676E-13;
4,00305227065131E-14;
5,14313621237464E-13;
-6,83486336182645E-13;
-1,32585325532423E-13;
1,2194696665942E-12;
-3,24225446578201E-13;
9,07139116215393E-14;
1,04544248614855E-12;
-2,8577795794307E-13;
-8,17429699008015E-13;
-1,86493045193944E-13;
-9,92980529114674E-14;
-1,33669193368913E-13;
9,34416511826051E-13;
7,50586860139392E-13;
4,65974612379785E-13;
6,69382160994521E-13;
-7,53090545684568E-14;
-9,42081888907057E-14;
2,25450496773303E-13;
7,06833255935339E-13;
7,31213498866471E-13;
6,05295678127251E-13;
5,68161456302621E-13;
2,0780130957626E-13;
7,19987085191559E-13;
9,97650454461822E-13;
3,83824531965772E-13;
4,30185346038598E-13;
1,0324033774818E-12;
5,06761743589626E-13;
4,88913418098219E-13;
6,35301420836217E-13;
-1,39777085276304E-13;
3,50786213607006E-13;
3,21045423307449E-14;
-5,81368252025105E-13;
4,70370358150473E-13;
4,72892548544345E-13;
2,08758066216822E-13;
7,50629365635936E-13;
4,05267632129417E-14;
-1,99186590385233E-13;
7,12637449214167E-13;
6,75373862704682E-13;
5,2038124387516E-13;
2,69467829745656E-13;
2,0078577352308E-13;
2,50345128543405E-13;
1,43191273275484E-13;
6,16203280308181E-13;
7,09038326454049E-13;
9,45767019429638E-13;
9,07292695319397E-13;
4,77474177519978E-13;
4,18316128498823E-13;
-2,09438675938516E-13;
-7,53874378876918E-13;
-3,56479101299677E-13;
6,33859288293525E-13;
5,80488786906818E-13;
9,8648737231032E-14;
2,46418884503981E-13;
-1,7158007844175E-13;
4,9914635678673E-13;
1,2674450829488E-12;
1,83593974644325E-13;
2,19111038248496E-13;
1,1138449284804E-12;
6,17349520826361E-13;
-3,81519153141308E-13;
-4,26414885738717E-13;
6,98767540448243E-14;
2,82496958865152E-13;
5,38061562482841E-13;
3,36366805293811E-13;
1,06124353125119E-13;
3,0800178529065E-14;
-2,36808569311964E-13;
8,11045344265033E-13;
9,13571483467134E-13;
-1,50677253966335E-13;
7,97741610262662E-13;
2,46359962639793E-13;
-7,87034452293404E-13;
5,22506957922411E-13;
6,22214556839925E-13;
-4,10689376513836E-14;
-3,13779194717245E-13;
3,44277155652907E-13;
1,54585603552991E-12;
4,99862427603613E-13;
-1,930398407574E-13;
9,14007429326548E-13;
2,6135319641172E-13;
-1,07542171562681E-13;
3,26181534007698E-13;
5,97893009865851E-14;
9,56015307422923E-13;
6,63961489146633E-13;
1,99905457779792E-13;
1,10687165660111E-12;
4,24407273848654E-13;
-4,54305210743852E-13;
3,40420075606246E-13;
7,95110701745121E-13;
2,54119309976286E-13;
3,19773754643127E-13;
-2,22596171433819E-13;
-2,99128773122541E-13;
4,78783049254302E-13;
2,14882485728511E-13;
1,59777913958203E-13;
-3,81131700606635E-13;
3,36237188659703E-13;
1,30876328530237E-12;
-8,91421460331265E-14;
1,98348505880193E-13;
6,47545627497075E-13;
-1,62009969478842E-13;
2,9910702839285E-14;
-6,96649992020475E-14;
5,18952997183487E-14;
5,01635134416937E-13;
7,37657804100531E-13;
6,04621784873879E-13;
-9,85605798113837E-14;
3,06931998043559E-13;
4,06056149520108E-13;
-5,44728266314892E-14;
3,53746175228978E-13;
1,30926277196131E-13;
5,4359729404772E-13;
8,28964356615295E-13;
7,98292769556115E-14;
7,0156673572906E-13;
8,79815658205349E-13;
7,89803345351836E-13;
9,09092044781581E-13;
-1,08787859127996E-13;
-2,96243401337687E-13;
3,2431938631089E-13;
4,03468341045995E-13;
1,12480565025357E-13;
1,46816483949894E-13;
2,2613623652174E-13;
-1,2170804960866E-13;
1,47770303363553E-13;
5,58632867607044E-13;
3,53001244568999E-13;
7,30964734017552E-13;
8,32340672906346E-13;
2,9216610846858E-13;
6,05290991036013E-13;
9,06598599051005E-13;
6,70250496516702E-13;
1,27830378103337E-13;
1,35184585425401E-13;
4,75863032670916E-13;
2,36776756943461E-13;
2,49339041847331E-13;
6,251188701713E-13;
8,56830821309249E-13;
4,49063363674605E-13;
2,06790415519702E-13;
-1,90283586891577E-13;
-3,29297452972811E-13;
2,1858064874879E-13;
1,44086557205721E-13;
4,34899089919579E-13;
6,58829018490129E-13;
2,91195507065547E-13;
-5,31111599915645E-15;
2,17805541671237E-13;
9,35174616258511E-13;
6,76584614900639E-13;
4,85602250770973E-14;
9,071070757695E-13;
1,27220992033328E-12;
3,88948953688874E-13;
5,85708545722846E-13;
5,33019747627449E-13;
3,41759101408521E-13;
7,04136091026984E-13;
2,50922567292469E-13;
1,8805941594023E-13;
5,5132994513012E-14;
-4,3930213636658E-13;
-2,34059714305324E-13;
-4,22192113656841E-13;
-5,08650077161922E-13;
2,11681095838925E-13;
2,96373016133144E-13;
-4,40329236864008E-13;
-4,69524029336912E-13;
-2,6871933309803E-13;
-2,56091460707006E-13;
5,44343466558763E-13;
4,20137682341714E-13;
9,66971272994179E-14;
6,52084996353226E-13;
3,73954710723245E-13;
2,55270111070814E-13;
5,47535325613604E-13;
7,1246022052029E-13;
2,34176204254089E-13;
8,80537276367905E-15;
8,83225063463607E-13;
8,27341244322444E-14;
-6,28303651009842E-13;
3,11740991857106E-13;
4,43054795826846E-13;
4,72894222479882E-13;
6,29264676185353E-13;
4,70814172267934E-13;
8,54329326427577E-13;
1,07163656581643E-12;
4,68870939696075E-13;
2,04943149224262E-13;
5,17866000833966E-13;
8,2255980339154E-13;
1,0488454952615E-12;
1,07220583909349E-12;
5,56305530250412E-13;
-3,56231901593124E-13;
-4,2595170214663E-13;
3,63580167711315E-13;
7,11719110258067E-13;
7,52652111206853E-13;
8,51661789579755E-13;
-1,99145565917025E-13;
-3,61732880259264E-13;
6,19913356497344E-13;
-3,07467101428405E-13;
5,90060130558796E-14;
7,34999407893801E-13;
4,27220571094408E-14;
4,52208046705694E-13;
1,13649909124999E-14;
1,79024091212001E-13;
9,83351041656026E-13;
1,04044685739988E-12;
5,8824304889864E-13;
-1,22593254298817E-13;
8,79658715487953E-13;
8,3543390530551E-13;
5,75588564075907E-13;
8,43863768526047E-13;
5,53017400847481E-13;
1,68480276903534E-12;
9,50239615996042E-13;
4,67391032198759E-13;
1,27128861138616E-12;
-2,50464718529395E-13;
-1,39324960170574E-13;
9,59395985533995E-13;
9,61403726375651E-13;
1,11867077101765E-12;
9,35385886517838E-14;
-2,98825271064164E-13;
1,67936400823403E-13;
3,88295199826285E-13;
9,02334620996467E-13;
6,77464522293749E-13;
5,87795181452773E-13;
2,74137372129812E-13;
-8,25965473440184E-14;
1,74257530615327E-13;
3,84942325606071E-13;
9,67272322323088E-13;
6,5994550537898E-13;
-1,29647993181262E-13;
1,14633989227308E-13;
4,9747786111277E-13;
-3,73535873455138E-13;
-6,12038397438288E-13;
5,51320385964011E-13;
3,93686766249542E-13;
3,86189444960996E-13;
7,95671278289042E-13;
8,17780595484994E-14;
-3,94268891778991E-14;
-2,79248196993292E-14;
1,90936800066157E-13;
8,05655922826747E-13;
-6,73492594755984E-14;
-4,13205611527875E-13;
6,54478473615932E-13;
5,57226061611192E-13;
5,41013747512236E-14;
1,32874081564839E-13;
1,92080349725928E-13;
6,27622447915128E-13;
4,93964316156989E-13;
3,16608911612922E-13;
6,79995512369381E-13;
3,70856412121475E-13;
7,43307193747387E-13;
5,33014827497664E-13;
-1,05644602608817E-13;
3,69343425776976E-13;
-1,3883075071575E-13;
4,51902259130744E-13;
1,05218999831511E-12;
2,36372729448443E-13;
3,48331914206427E-13;
-4,94643885908012E-14;
-1,85141371762728E-14;
2,01116130748878E-13;
4,13730531116242E-13;
9,30502051714367E-13;
-4,16467371827715E-14;
2,94036293089656E-13;
9,93724656221028E-13;
-3,37124234506226E-13;
-3,84447479834642E-13;
8,20177412062262E-13;
8,09782649326434E-13;
-2,08919181814201E-13;
4,60456321860433E-14;
1,0225993645102E-12;
1,7510887061775E-13;
3,86455794191027E-13;
7,81811640918448E-13;
1,19299267638398E-13;
9,17544451414649E-13;
9,6124984704371E-14;
-1,70167092862519E-13;
5,72525525092727E-13;
-6,86663998305494E-13;
1,27197273312174E-13;
9,54100355690188E-13;
2,63537501971936E-13;
3,54088221157455E-13;
-2,72331118752556E-13;
2,56083473051282E-14;
7,14037543472532E-13;
3,22585189240798E-13;
4,92088125824862E-13;
3,86326642609692E-13;
2,94010338686937E-13;
5,02871183553117E-13;
3,87187109830487E-13;
4,49355500830322E-13;
3,0293440937279E-13;
1,46764977259473E-13;
2,806664664262E-13;
5,97312665794426E-13;
7,27113397444263E-13;
5,91045734554446E-14;
2,53445416671448E-13;
6,04954810437382E-13;
-4,62988671795345E-13;
5,94618204148892E-14;
7,49222841376549E-13;
2,1045309072325E-13;
5,67062977949711E-13;
9,73135697979806E-14;
2,61161788716884E-13;
1,34825868533074E-12;
6,46636958858626E-13;
3,38098250012967E-14;
1,50158413231606E-14;
2,64753622312593E-13;
8,45630801778028E-13;
7,47990616197736E-13;
5,68179921526417E-13;
8,32187996718185E-14;
-6,3170575752013E-14;
7,723337871731E-13;
3,50680166363266E-13;
4,76309217981035E-15;
1,00331612003687E-12;
9,72963890939515E-13;
9,63284424529577E-13;
7,43038656347063E-13;
-3,54546854404228E-13;
6,08258244968307E-13;
9,04854327020505E-13;
-2,8340013045205E-13;
-6,38989041474862E-14;
-2,07317232248467E-13;
1,31209474845557E-13;
9,34476761518227E-13;
3,22969068829009E-13;
-2,40071339344709E-13;
4,00561486903004E-13;
6,49087612889624E-13;
1,57208777562545E-13;
6,62865640842284E-13;
9,07567804664682E-13;
6,10649457950258E-13;
2,27341183231557E-13;
5,54017016828337E-13;
9,20696860442815E-13;
-5,91112918745745E-14;
9,66444276178981E-13;
9,65702064714837E-13;
-5,24032794458636E-13;
8,49246176403988E-13;
6,07149218527201E-13;
-4,12713717970745E-13;
-3,21357823274933E-15;
-2,23937846054E-13;
1,33117879363799E-13;
6,23411166723E-13;
1,17073865901479E-12;
1,11709639636218E-12;
-7,45854963015002E-15;
-3,47809086504272E-13;
-2,38516918447979E-13;
-2,78201353865418E-13;
-8,66054813436566E-14;
2,64850133506447E-13;
3,0958716837199E-13;
4,72531812784273E-13;
7,85209354714224E-13;
2,75103032976188E-13;
-8,59622610717356E-14;
4,37414692660026E-13;
4,24719557470693E-13;
-3,00187660025184E-13;
-1,38695405469162E-13;
6,60145004055569E-13;
7,80215356020566E-13;
8,02450095142603E-13;
9,48938528729607E-13;
2,33581860611918E-13;
-3,884774279325E-13;
4,30228961727902E-13;
9,61108624880126E-13;
6,32320577170525E-13;
6,45448730132731E-13;
8,78119199817638E-13;
1,35827756433131E-12;
6,96915437035136E-13;
-4,01543300581771E-13;
1,57029109720798E-13;
2,85198835408538E-13;
4,64029533806741E-14;
3,7511065926888E-13;
2,31555003682993E-14;
-2,43997101415497E-13;
4,78291804852001E-13;
1,37708445992955E-12;
6,9188966367E-13;
-3,3380561445692E-13;
5,6676211788315E-13;
5,97350749980162E-13;
-2,51663912251474E-13;
1,90398522498449E-13;
5,94673825325161E-14;
1,6149967516283E-13;
3,85893302133578E-13;
4,61874923531396E-13;
1,55777584906162E-12;
1,30594004518202E-12;
4,19587397805408E-13;
3,81682431582823E-13;
6,3554315390968E-13;
3,98905958563417E-13;
-2,36796227742176E-13;
2,33021594328247E-13;
3,28941806494932E-13;
6,16418972740607E-14;
8,67427061187926E-13;
8,31908752807097E-13;
-2,6887011755695E-13;
-4,65343125282088E-13;
3,68281259449556E-14;
4,48893525400706E-13;
7,34224281352425E-13;
4,47564985118677E-13;
3,33953113351356E-13;
7,42872015531837E-13;
8,22634255364487E-13;
4,84334662771338E-13;
-2,12152969838545E-13;
1,94185686035849E-13;
8,04301730450845E-13;
4,87364111818057E-13;
8,44349355425294E-13;
1,70663593217152E-13;
3,38866503686416E-14;
1,02097062644404E-12;
9,31118172809466E-14;
5,28825914369422E-13;
1,7689083537884E-12;
1,02630693960701E-12;
3,68103450574723E-13;
5,05986475404308E-13;
5,02382544700109E-13;
-5,07016663583871E-13;
-5,0848811280108E-13;
2,31500748645277E-13;
1,65336580014215E-13;
5,85652954492492E-13;
-2,32424940061286E-15;
-9,30411511873107E-14;
9,97143488994791E-13;
4,28783120751697E-13;
2,87282140116414E-13;
8,24054300644639E-13;
5,94957421919732E-13;
2,58752036473978E-13;
-6,04385913206266E-14;
5,80128613202781E-13;
1,14760585847855E-12;
6,87521303213925E-13;
1,02677048092949E-12;
5,57660327133584E-13;
-2,0445914441677E-13;
8,2399974304832E-13;
2,6080616978519E-13;
-3,87018738848348E-13;
5,16495765230162E-13;
3,80180292233443E-13;
5,35002400198992E-14;
-4,64677400222982E-13;
-1,93852293575225E-13;
7,28048038798656E-13;
5,42777199619036E-13;
2,25035881699818E-13;
3,77355804826088E-13;
8,47763673040643E-13;
4,66587689488192E-14;
-5,20253605045115E-13;
6,8983463728812E-13;
9,97907159645704E-13;
7,32622080889924E-13;
1,25338629966888E-12;
1,14882330309489E-12;
5,81548708910745E-13;
7,93684348466101E-13;
5,47823277955189E-13;
5,06911156622822E-14;
2,55181110382581E-13;
5,09746552428719E-13;
9,02903673210893E-13;
5,36809055304428E-13;
5,6177489518867E-13;
7,64216362174709E-13;
-5,45204402857094E-13;
1,98998381126031E-13;
7,90464151845775E-13;
-4,01954306735727E-13;
2,45602553007839E-14;
1,079841049994E-13;
4,17109983420915E-14;
2,21872489616233E-13;
5,17121183606976E-13;
1,15888489712591E-12;
3,1939667212651E-13;
-6,01743097424221E-14;
4,40254826486906E-13;
7,72452410486391E-13;
1,10844008182301E-12;
3,3626415157794E-13;
-2,65468555064629E-13;
1,63740572636008E-13;
5,26303021095216E-13;
4,66998311446488E-13;
-3,58972237705799E-13;
-4,17111857860295E-13;
6,19826634480719E-13;
4,01569089306795E-13;
1,03252860671524E-14;
4,71766538083528E-13;
4,45978116906354E-13;
4,15630806600373E-13;
4,28223631511254E-13;
1,80909049503055E-13;
2,80085063567161E-13;
2,22115768463566E-13;
1,44343805096943E-13;
2,7072791830535E-13;
-1,01838439681773E-13;
3,22031353816283E-14;
1,08370729917094E-12;
1,17733646779356E-12;
5,64124237868251E-13;
3,83522717002173E-13;
5,85609529431951E-13;
1,39347030333893E-12;
1,26940015944787E-12;
4,87081277375828E-13;
6,78068000092524E-13;
5,28330911144165E-13;
-4,75259324610514E-15;
6,87557071946378E-13;
7,85087925141325E-13;
-8,27894718496234E-13;
-3,83395442429287E-13;
7,47518014936076E-13;
2,60517012947236E-13;
6,63196349918763E-13;
1,25461792403219E-12;
8,64432011345151E-13;
-2,28275611853403E-13;
-3,54008893224803E-13;
7,44316061251063E-13;
9,83667379001076E-13;
8,26372465212146E-13;
1,70646821739729E-13;
-4,94846601245728E-13;
-2,31911708340391E-14;
6,17375250278721E-13;
4,38732214156118E-13;
2,30608360018969E-13;
1,37612458767314E-12;
9,34092174437667E-13;
-1,77315734872824E-13;
8,85345470304448E-13;
7,40967645383023E-13;
5,51164263596475E-13;
7,19987440034784E-13;
1,27482484467611E-14;
2,67004962573242E-13;
-2,07921725067294E-13;
9,86262004457913E-14;
1,08486162912043E-12;
9,03105129964516E-14;
4,46853607921525E-13;
9,41899034731879E-13;
1,79382043866018E-13;
1,54644244741912E-13;
1,07260582934826E-13;
4,40847340809828E-13;
2,967699927617E-13;
1,35613170611051E-13;
4,36068633483843E-13;
-1,31172299986619E-13;
2,27981660208698E-13;
8,49967011218193E-13;
4,42808677991671E-13;
2,95134538991317E-13;
9,91727955348407E-14;
2,86825526463569E-13;
8,618873085154E-13;
3,68809146362345E-13;
-2,55040100382802E-13;
-4,13730959648323E-13;
-4,98721347102857E-13;
7,22705366995766E-14;
1,08139846507977E-12;
3,3537910284069E-13;
-5,05044938843023E-13;
8,0964977874709E-13;
6,06872871666598E-13;
-1,92515563930949E-13;
3,76118862339503E-13;
3,83863560912333E-13;
-2,63857701674527E-13;
-4,42269968933086E-13;
2,03891479574151E-13;
-5,41548764019632E-15;
-4,48550013366999E-15;
8,08325812351878E-13;
4,67917632664584E-13;
4,02405919421492E-13;
1,0264134789672E-12;
4,32694925792627E-13;
2,77186577638183E-14;
3,99629654754045E-13;
-1,66200048296369E-13;
2,38101187573517E-13;
9,30091923285656E-13;
1,39506516615096E-13;
5,90554761125701E-13;
5,36297423521669E-13;
-1,07601907514404E-13;
5,17544061741657E-13;
4,66282304300557E-13;
8,71195978908471E-13;
5,66611831458693E-13;
6,8079361313186E-14;
6,69521441927611E-13;
-7,56418378971427E-14;
8,71479914827388E-14;
7,16898870946915E-13;
3,68581322359413E-13;
3,81318037859269E-13;
5,64785120987879E-13;
9,30331250683956E-13;
5,46962911375036E-13;
6,86180470136028E-13;
1,37192371652256E-12;
7,8260394926566E-13;
4,30478195988833E-13;
1,57893983510677E-13;
2,41538325751852E-13;
1,0598839447719E-12;
1,15361133796297E-12;
1,23684293947745E-12;
4,76104092547401E-13;
-7,18992555346177E-13;
-5,44214866364387E-13;
-2,01376046084088E-13;
2,60019433133478E-13;
5,97622464039123E-13;
2,15003364288696E-13;
-1,76639714479493E-13;
4,94356574312054E-14;
7,21881842946971E-13;
1,27398265544778E-12;
1,14104379532312E-12;
4,61331160439276E-14;
6,300255528971E-14;
6,11862652904989E-13;
6,4096401185155E-13;
1,09513338167452E-12;
3,15311872839917E-13;
2,19755722825466E-13;
1,08280615451278E-12;
4,94996934841017E-13;
4,41757161161029E-13;
8,25929415857914E-13;
4,80647166831225E-13;
3,57962023835811E-14;
1,81180993988134E-13;
6,51057197706649E-13;
7,09061006496927E-13;
3,69047476423668E-13;
5,06162574388221E-13;
8,04263360648917E-13;
3,74621189018592E-13;
3,2273615779465E-13;
5,33817543487381E-13;
8,75896388245422E-13;
5,97382301003659E-13;
2,67729536635917E-13;
7,14127108107822E-13;
4,61590170659188E-13;
6,77407746247095E-13;
6,66065260633609E-13;
5,30755729822941E-13;
4,61123118642651E-13;
-1,02039020695757E-13;
4,82038678569612E-13;
7,30829863683702E-13;
8,37967658142062E-13;
8,71092219047042E-13;
1,59156408548389E-13;
4,03129243282022E-14;
3,82494677636278E-13;
8,67352108247277E-13;
4,08954874144673E-13;
-1,87952658007565E-13;
2,64258341091106E-13;
9,62952100730414E-13;
9,00974823768155E-13;
-2,20421071761658E-13;
1,552600031769E-13;
3,11980086961774E-13;
-9,26946796312457E-13;
-2,6072409152504E-15;
2,52641188035716E-13;
-2,30901869364052E-13;
1,50000430358403E-12;
1,49797392135618E-12;
-2,06320064017576E-14;
3,19584359516368E-13;
4,29597907144543E-13;
-5,01912209567142E-13;
-2,33033563770298E-13;
4,41027470366051E-13;
6,56642448988567E-13;
7,51507650258017E-13;
-2,36195460696835E-13;
-2,69259721800566E-13;
6,38032121810134E-13;
4,08717211434311E-13;
2,84657332401673E-13;
1,64333460869621E-13;
5,30761203054835E-13;
7,06165065377761E-13;
4,77519450019135E-13;
1,31716881614805E-12;
1,08480891733305E-12;
3,48331141552924E-13;
6,32763291678815E-13;
8,84640406526762E-13;
7,45508616940959E-13;
6,21223789705556E-14;
-2,90205797227408E-13;
-1,2717764478528E-13;
-1,16448826531085E-14;
3,27541215281372E-13;
2,78244059587206E-13;
-7,61270830350263E-14;
4,47249862439069E-13;
9,80455471513582E-13;
3,12718396472907E-13;
-3,00221078795937E-13;
1,26494807716677E-13;
8,0378807551238E-13;
3,37135596909413E-13;
-7,72470561097525E-13;
-5,57843368019354E-13;
1,04432056841788E-14;
5,60047962554025E-13;
9,49264268092685E-13;
4,01610383162613E-13;
8,13107155723472E-13;
9,93524164045431E-13;
4,41398610503835E-13;
3,16935995274613E-13;
-4,80971771879908E-14;
4,3056415330151E-13;
2,22793096551004E-13;
2,82168000016654E-13;
1,42601071511253E-12;
2,81507744944225E-13;
-5,11893908584942E-14;
4,4652807343903E-13;
-4,44665608449084E-13;
5,12929415155456E-13;
1,34468640625704E-12;
3,24217784534028E-13;
4,87016280858077E-13;
1,03158034029325E-12;
3,91959891411825E-13;
3,49116549039669E-13;
9,93407402150343E-13;
2,23891575365438E-13;
-4,22122651392444E-13;
8,55435950765447E-13;
1,25196530372487E-12;
-3,08342159420238E-14;
-8,08883669045141E-14;
7,71070965106079E-13;
3,90649740298638E-14;
-6,6095984224898E-13;
9,49221853102117E-14;
3,23738807465655E-13;
3,87835024962446E-13;
7,68940714335307E-13;
-1,07413518053544E-14;
-4,25996091798304E-13;
1,64346926868598E-13;
4,93787883377835E-13;
7,67251684749023E-13;
1,77656446627381E-13;
1,41417477956701E-14;
8,01445380006557E-13;
6,36723288441842E-14;
-4,79524014412389E-13;
4,11265066013308E-13;
5,25065719983736E-13;
4,08410509133943E-13;
5,40710780844669E-13;
4,70671537035657E-13;
4,28746215309395E-13;
-1,16123693208652E-13;
4,71543743091293E-13;
1,11688890626165E-12;
3,68147110949968E-13;
3,58352262604272E-14;
-1,93495319259648E-13;
4,79420983034962E-13;
9,36729056030745E-13;
5,93547789455953E-13;
7,51587489657658E-13;
-4,12825595233467E-14;
-2,9842444221695E-13;
7,21542172759016E-13;
4,23351439896465E-13;
-2,98167776797112E-13;
1,68523027178965E-13;
-2,52616516751314E-14;
7,21217888630368E-14;
6,60219745072568E-13;
-6,79404651102896E-14;
-2,11843806960426E-14;
2,00824077730234E-13;
-5,40673453814621E-13;
1,27972336544226E-13;
1,05197364214256E-12;
1,74671636757704E-13;
4,89747295191512E-13;
1,24253669054998E-12;
4,36070930208582E-13;
9,28123826896207E-13;
9,20237052815299E-13;
1,9212304383383E-13;
6,3975526144955E-13;
1,15904217646807E-13;
4,21584503562825E-13;
1,07194883954734E-12;
-1,89787709421165E-13;
-4,05097162199244E-13;
4,24955917318519E-13;
6,39025835606832E-13;
5,90613552124778E-13;
7,96095499865455E-13;
5,05990913542938E-13;
-2,0113935509934E-13;
5,277798986715E-13;
4,84986038507591E-13;
-4,86016671318597E-13;
-2,93528147309916E-14;
-3,56486493311686E-13;
-5,12997880071922E-13;
5,50108276038632E-13;
1,2622224671481E-13;
-1,672593539595E-13;
3,66319447535311E-13;
3,80704368183226E-13;
6,15566659728552E-13;
2,54684565997617E-13;
4,56478500315352E-13;
9,68655720140894E-13;
1,88320887730796E-14;
6,42651241152501E-13;
1,38124713524961E-12;
-4,48713979817898E-14;
2,29536310448281E-13;
1,22187133858326E-12;
1,86680105998559E-13;
-3,44853063314439E-13;
2,46686850951668E-13;
8,57032660008857E-13;
7,22378374656579E-13;
1,47132689582641E-13;
4,442050724357E-13;
7,8475663715887E-13;
8,39625003241817E-13;
8,50648898733519E-15;
-1,26772199253976E-13;
9,16089846400105E-13;
6,8457091077322E-13;
9,79440126576089E-13;
6,6942909508856E-13;
1,8435237440175E-13;
8,64429654602702E-13;
6,50320837906149E-14;
5,32483020641815E-13;
1,08993426307289E-12;
-8,9535321966567E-14;
-8,64676982479433E-14;
1,15049160439662E-13;
4,0357287521322E-13;
6,25248861034744E-13;
8,43932467107145E-13;
1,15329725928222E-12;
3,79336407456626E-13;
6,36873300287228E-13;
8,57176738310753E-13;
-2,60569397288581E-13;
-2,23939795706772E-13;
-2,20287819283081E-13;
-2,35167583662842E-13;
3,89251081553687E-13;
-5,95149207523986E-14;
3,82672236777006E-13;
4,30700454412278E-13;
-7,98538022052227E-13;
9,93292338333558E-14;
3,6845078233312E-13;
1,46924905739418E-13;
4,87689206889741E-13;
-1,36947143002944E-13;
4,92124210505852E-13;
7,03070820608514E-13;
4,85963870346804E-13;
7,40965689656501E-13;
6,67272218978978E-16;
-4,55367150591934E-14;
2,46067124411134E-13;
3,02708564772976E-13;
2,00829962754923E-13;
-2,25348418674302E-14;
6,73796073014525E-13;
8,29750561530307E-13;
6,53526519406314E-13;
1,08260993585602E-12;
-1,7477416849439E-13;
-4,81870483727326E-13;
1,11456766617267E-12;
5,91641795077169E-13;
2,28604406937379E-13;
1,65512750133432E-13;
9,53612438601285E-14;
1,17814562323039E-12;
7,40699480473594E-13;
2,06462970171918E-14;
1,23184388095594E-13;
6,44865265291412E-13;
7,85812282884602E-13;
-1,42760702864672E-13;
-6,06321629726225E-14;
4,54145408942828E-13;
4,34531199521506E-13;
3,47634194861663E-13;
2,14357488086819E-13;
4,70984483319239E-13;
4,60374720706947E-13;
6,11811782730606E-13;
1,00297866147123E-12;
7,25956278112126E-13;
5,39625339932183E-14;
-1,04284254644743E-12;
-2,49673099391592E-13;
8,26371308451173E-13;
-5,91541055841326E-14;
8,7066522381808E-13;
1,34039756902425E-12;
-1,51673791944082E-13;
5,58487405490609E-13;
1,4496239389719E-12;
3,89922925350371E-13;
5,69196427716112E-13;
1,59914244976649E-12;
1,10649366358418E-12;
2,95276108169392E-13;
-1,38251188517865E-13;
-2,28036348729691E-13;
1,07867019530771E-13;
3,67551175625675E-13;
5,3444062928323E-13;
5,50089222872499E-13;
6,18797015829009E-13;
2,77818516214482E-13;
-1,2592210333321E-13;
1,4502499637907E-13;
-3,5961882933148E-13;
-4,06951977702558E-13;
6,63900304689228E-13;
2,52141680646931E-13;
8,83693946820245E-14;
4,9565942883877E-13;
-3,45278016745918E-13;
3,28170420531329E-13;
1,22871023676036E-12;
2,20358053208962E-13;
9,69167624717959E-14;
5,41830154329563E-13;
-6,21006997950926E-14;
-3,06615321597501E-13;
6,18491932219865E-13;
6,09267463188514E-13;
2,21550359177746E-13;
7,99395151882787E-13;
1,01308847067131E-13;
-4,3407303179999E-13;
2,56800164326417E-13;
2,96955138311467E-13;
6,15888343646533E-13;
7,13947032426875E-13;
1,92269810053491E-13;
2,08711404618149E-13;
3,36782307870943E-13;
2,76704889913299E-13;
3,29241884718263E-13;
4,11308551518474E-13;
2,77910564695772E-14;
-9,12525907409023E-14;
4,07949969345157E-13;
-1,27693699946387E-14;
-5,6040930422668E-13;
4,19757019375241E-13;
9,21709258502453E-13;
6,1062145509708E-13;
2,46404732127664E-13;
-5,06319033773936E-13;
1,09478193538583E-14;
6,5985111074556E-13;
5,45477590330447E-14;
-3,00434808176767E-13;
3,80495743446567E-13;
7,72689128756661E-13;
-4,67218873899067E-13;
-7,71472325280654E-13;
3,68304232595877E-13;
1,14623722676959E-13;
-1,74094235184709E-13;
9,51551704303157E-13;
7,09878157373728E-13;
-4,51575754301928E-14;
1,04447700198021E-12;
1,08666863860947E-12;
-1,74084658362854E-13;
-1,74344203482167E-13;
6,33590199406987E-14;
2,60134714395146E-13;
9,04665324416001E-13;
7,16809746105488E-13;
2,74446517665119E-13;
5,97566960269555E-13;
1,18952058344634E-12;
8,64397718712856E-13;
1,90951469318159E-13;
7,65303836718026E-13;
4,35825726590758E-13;
-3,13395694842466E-13;
8,67235290593365E-13;
1,18486524214107E-12;
7,47751204357456E-13;
6,24945512572028E-13;
-4,28360924686263E-13;
6,00890013485448E-14;
9,65960370062526E-13;
1,17998891024641E-13;
-1,17011868561541E-13;
3,52919973901277E-13;
2,25085341502683E-13;
-3,996106129485E-13;
3,40712236997668E-14;
9,3917164015169E-13;
8,32654970839923E-13;
4,95800292902026E-13;
3,19630554923307E-13;
-2,24514676467428E-13;
-2,98856035946606E-13;
2,89010685484283E-13;
5,64605813455037E-14;
5,9442619390071E-13;
1,10054571689713E-12;
4,97923578266265E-13;
6,14500366718654E-13;
3,0244483266256E-13;
-1,79307061806211E-13;
5,72753004547088E-13;
1,57952347584805E-12;
8,39763023015872E-13;
6,42763567503092E-14;
6,9226629586676E-13;
-3,31540722893276E-14;
-4,10957590071689E-13;
5,34702733068543E-13;
7,26391028289939E-13;
7,87470940190865E-13;
5,06493413678413E-13;
-2,39095158075668E-13;
1,25833230638891E-14;
1,24969654999219E-12;
1,05832999067577E-12;
2,85292302436881E-13;
6,0159441409013E-13;
2,5167364746382E-13;
-4,30171728136384E-14;
6,07885224962793E-13;
3,79766820845795E-13;
-6,24098840322263E-13;
3,89638321323795E-13;
1,09416376158565E-12;
-2,61080611877799E-13;
4,85329044455253E-13;
7,40078746466056E-13;
-1,32562944881372E-13;
1,0096988351995E-12;
2,56028412005032E-13;
-4,76861875297969E-13;
1,00514262379736E-12;
7,71975650546103E-13;
8,8486496578303E-13;
8,30899923887198E-13;
-1,23295154776691E-13;
5,8644656133154E-13;
2,38296800536116E-13;
1,59306449326877E-13;
8,24665812326832E-13;
2,85040325629346E-13;
7,34934548095478E-13;
7,33766604248617E-13;
1,52166305160701E-13;
-2,6369225412196E-13;
-2,67076841814964E-13;
6,6072446655101E-13;
1,73191871327106E-13;
2,92890680536796E-13;
1,13773267849784E-12;
7,96683338395858E-13;
4,59531184917154E-13;
3,55677072516298E-13;
9,32916760806328E-13;
