0,000171585173839334;
0,000379717700187307;
0,000453996695592243;
0,000388122858901385;
0,000250070368847593;
0,000128696515561323;
7,25826708042466E-5;
6,68548225624534E-5;
6,10009333715803E-5;
1,97320556664628E-5;
-4,70313052807386E-5;
-9,81693575943655E-5;
-0,000103643316928641;
-7,54268186073118E-5;
-5,82491536719589E-5;
-8,70768899077463E-5;
-0,000148394651190299;
-0,000181041567871438;
-0,000120171115869863;
4,86895637598018E-5;
0,000269011708141367;
0,000444740338799662;
0,000501972604796732;
0,000435213193534743;
0,000304656470986939;
0,00018890431300943;
0,000130904309246522;
0,000117526506476094;
0,000104193722765973;
5,97991946058022E-5;
-6,86756265627043E-6;
-5,95264072195606E-5;
-7,16975787837118E-5;
-5,39281566405566E-5;
-4,55906884264258E-5;
-7,74314844800108E-5;
-0,000137530925005488;
-0,000172099692846614;
-0,000124163570272237;
1,89552924523071E-5;
0,000207593363893887;
0,000357449978431939;
0,000403726452299697;
0,000341644161267297;
0,000223979929190766;
0,000119582020579802;
6,60310089487273E-5;
5,18179170227484E-5;
3,79494265215974E-5;
-2,75946301954991E-6;
-6,2621466075751E-5;
-0,00010995927561805;
-0,000121680573898275;
-0,000107009873737713;
-0,00010028991327902;
-0,000128312920274771;
-0,000180689659914625;
-0,000210599512513841;
-0,000168499681433349;
-4,34139752479876E-5;
0,000121443990284928;
0,000252816525660664;
0,00029444694313933;
0,000242210003053417;
0,000141896308375066;
5,31826059670845E-5;
8,60457292748351E-6;
-1,83060038199662E-6;
-1,18846081585855E-5;
-4,50724203109499E-5;
-9,47456879271488E-5;
-0,000133541903094701;
-0,000141540477599418;
-0,000126726511840643;
-0,000118736219847966;
-0,000140664579388219;
-0,000183553036812852;
-0,00020708948303142;
-0,000168664715565557;
-5,88808672221624E-5;
8,50777203837913E-5;
0,000200261469799937;
0,000238381822870183;
0,000195924274750245;
0,000112174084277643;
3,82738956298714E-5;
2,07335270537625E-6;
-4,99852129479499E-6;
-1,18276223568757E-5;
-3,85086645401101E-5;
-7,93510239698217E-5;
-0,000110991314839149;
-0,000116443179473772;
-0,000102529666575988;
-9,45096993975124E-5;
-0,000112040699334726;
-0,000147482744163484;
-0,00016654616783616;
-0,000133032869347863;
-3,89927646610133E-5;
8,39836294829523E-5;
0,000182494229547106;
0,000215626349311803;
0,000180434504641766;
0,000110197117572582;
4,81804617708979E-5;
1,79160321038131E-5;
1,21541472653559E-5;
6,5148968093504E-6;
-1,59365118416848E-5;
-5,03876409401509E-5;
-7,7155063660599E-5;
-8,19489414811099E-5;
-7,05158147263519E-5;
-6,40804181941054E-5;
-7,91341093981687E-5;
-0,000109247452676281;
-0,000125664473605921;
-9,80739158100181E-5;
-1,98494851198891E-5;
8,25605080915704E-5;
0,00016452076614277;
0,000191886431094983;
0,000162232369742026;
0,000103328562534258;
5,1223204714644E-5;
2,54935045330826E-5;
2,01012175494174E-5;
1,47912602650254E-5;
-4,48106926536581E-6;
-3,37083133915799E-5;
-5,65727151770499E-5;
-6,1249092967742E-5;
-5,25006481198654E-5;
-4,78691971290804E-5;
-6,09584694394431E-5;
-8,64466871503234E-5;
-0,000100627653810062;
-7,85582757034924E-5;
-1,48183254087607E-5;
6,88288210673351E-5;
0,000135730095710196;
0,000157897975482556;
0,000133376170334841;
8,49199323375296E-5;
4,20115835719555E-5;
2,06325754469576E-5;
1,5843544833338E-5;
1,11328010638744E-5;
-4,92424463705129E-6;
-2,90542416819612E-5;
-4,79952439959244E-5;
-5,21587743032314E-5;
-4,54184722909579E-5;
-4,19817540644746E-5;
-5,28404420068824E-5;
-7,36789928514077E-5;
-8,53634932614859E-5;
-6,78078590398621E-5;
-1,66825310351175E-5;
5,04832476053066E-5;
0,000104246666969942;
0,000122178147893661;
0,000102741320986379;
6,41635168343877E-5;
3,00029723407616E-5;
1,2998273819188E-5;
9,19967251619428E-6;
5,4664922931356E-6;
-7,26837529564371E-6;
-2,63943595256712E-5;
-4,1400366773872E-5;
-4,47100939939808E-5;
-3,9397558743581E-5;
-3,66741892598518E-5;
-4,51867619470548E-5;
-6,15247572520055E-5;
-7,06590807491179E-5;
-5,68610501631362E-5;
-1,67780057874224E-5;
3,58578413932406E-5;
7,80652174135934E-5;
9,23923712751261E-5;
7,76779320416165E-5;
4,80962696634023E-5;
2,1906183625827E-5;
8,947235058036E-6;
6,15495243439188E-6;
3,40069581634542E-6;
-6,2775598937684E-6;
-2,08612235412422E-5;
-3,22935854717827E-5;
-3,47921915734164E-5;
-3,07170881426682E-5;
-2,86090943618624E-5;
-3,50259954563337E-5;
-4,73633069560557E-5;
-5,42450591335554E-5;
-4,38179475287652E-5;
-1,35961904958309E-5;
2,60649099164149E-5;
5,7926217496541E-5;
6,89571549514711E-5;
5,83292848789963E-5;
3,66210403905206E-5;
1,73918994257525E-5;
7,91252248779449E-6;
5,90386523332767E-6;
3,90553982245431E-6;
-3,18082409892023E-6;
-1,38605206269074E-5;
-2,22474098822309E-5;
-2,41441367162241E-5;
-2,12788119233729E-5;
-1,98326570006066E-5;
-2,45190044803906E-5;
-3,34449154287475E-5;
-3,84567667879168E-5;
-3,11173915709883E-5;
-9,70366000336995E-6;
1,84051243746179E-5;
4,10264700453291E-5;
4,90209280807726E-5;
4,18528709947338E-5;
2,69391976255001E-5;
1,37100464222803E-5;
7,18022674455995E-6;
5,76067471520699E-6;
4,33241564007627E-6;
-5,68740769560532E-7;
-7,90781907401245E-6;
-1,37007347997632E-5;
-1,5138089468507E-5;
-1,33943846050338E-5;
-1,25861851973965E-5;
-1,58141970067974E-5;
-2,1808063678013E-5;
-2,52297843878574E-5;
-2,0625068817167E-5;
-6,9357559337182E-6;
1,10556632171807E-5;
2,5575955000986E-5;
3,08765324581062E-5;
2,66765169206982E-5;
1,76403592856308E-5;
9,60536897347133E-6;
5,62476048284472E-6;
4,70915520371892E-6;
3,77317467186418E-6;
7,70765015673457E-7;
-3,66275887006529E-6;
-7,19337810174926E-6;
-8,21484835957352E-6;
-7,42192789072722E-6;
-7,14352832611588E-6;
-9,08528845672651E-6;
-1,2516133693118E-5;
-1,4532692822689E-5;
-1,22579638055105E-5;
-5,20761644790769E-6;
4,07750885133038E-6;
1,16276414387591E-5;
1,46172319911333E-5;
1,29846466737776E-5;
9,02417032848705E-6;
5,48132675133633E-6;
3,72237489195722E-6;
3,27331118414083E-6;
2,79523584572177E-6;
1,45889882382467E-6;
-4,43946147238934E-7;
-1,99451478611077E-6;
-2,61758649082978E-6;
-2,5969185475267E-6;
-2,73144282082025E-6;
-3,53393583942336E-6;
-4,73497588694299E-6;
-5,51160244765457E-6;
-5,18725584591864E-6;
-3,76680153113722E-6;
-1,8790912668845E-6;
-2,52434787907213E-7;
7,76933940286816E-7;
1,33392027218174E-6;
1,69709761503816E-6;
1,98449130255161E-6;
2,12981409664518E-6;
2,09650511978374E-6;
2,02666452015627E-6;
2,12183944900899E-6;
2,38228950454866E-6;
2,52874106317601E-6;
2,26449652353281E-6;
1,653428682072E-6;
1,18888281966529E-6;
1,36454552868509E-6;
2,05996983662057E-6;
2,34442306773837E-6;
1,04139588699562E-6;
-2,26517093637894E-6;
-6,59567180942271E-6;
-9,95418617902255E-6;
-1,05865942649452E-5;
-8,21141644699639E-6;
-4,23981587533746E-6;
-7,54531645693017E-7;
9,7935874887031E-7;
1,29124241474759E-6;
1,56062254177227E-6;
2,84929337395123E-6;
4,91387504834854E-6;
6,47620711376495E-6;
6,5135229485536E-6;
5,37928449937285E-6;
4,64147250613544E-6;
5,62967973955548E-6;
7,89934463806757E-6;
9,06491944567547E-6;
6,41443548655677E-6;
-8,08098024898755E-7;
-1,02919574130582E-5;
-1,77893665750387E-5;
-1,98200604119101E-5;
-1,59733470350367E-5;
-9,0528314463121E-6;
-2,95297190768649E-6;
7,53707929464654E-8;
6,62381974871575E-7;
1,20314633395714E-6;
3,46446240865676E-6;
7,00287157482385E-6;
9,72248632063506E-6;
1,00070347663264E-5;
8,44677138273268E-6;
7,48655595333628E-6;
9,13698388904366E-6;
1,26890722210258E-5;
1,45736642054047E-5;
1,08313939805341E-5;
4,30905468527943E-7;
-1,32373820915438E-5;
-2,41018737364933E-5;
-2,72860747479589E-5;
-2,22749275850202E-5;
-1,2995531973922E-5;
-4,80223846831414E-6;
-7,39148331937764E-7;
6,58204230529196E-8;
8,22928125951053E-7;
3,86379843737802E-6;
8,58421157136436E-6;
1,22339888651397E-5;
1,27228990933444E-5;
1,08303554629446E-5;
9,69983913033778E-6;
1,18833895577721E-5;
1,64613578161652E-5;
1,89251109111868E-5;
1,43270781258522E-5;
1,41859232486189E-6;
-1,55562997847568E-5;
-2,90868976932607E-5;
-3,31969077111457E-5;
-2,72892955158674E-5;
-1,61733447761832E-5;
-6,34768850487364E-6;
-1,47699825593619E-6;
-5,00095261152575E-7;
4,28908264361402E-7;
4,08093261135148E-6;
9,72621362546613E-6;
1,41065619594122E-5;
1,47647210777028E-5;
1,26266656284086E-5;
1,13751783697245E-5;
1,39790645480884E-5;
1,93560386219314E-5;
2,22759529000939E-5;
1,7034347346743E-5;
2,21705557319133E-6;
-1,72797962641431E-5;
-3,28492618987918E-5;
-3,76793553874688E-5;
-3,11110797645926E-5;
-1,86211874123241E-5;
-7,57185560769996E-6;
-2,09478918485499E-6;
-9,8659258330867E-7;
7,47783197580931E-8;
4,18809701134205E-6;
1,05293528967229E-5;
1,54621541519027E-5;
1,62570737799526E-5;
1,39489027826795E-5;
1,26185659334367E-5;
1,55412326971665E-5;
2,15145261751496E-5;
2,47796954298942E-5;
1,90800397685717E-5;
2,88174684293853E-6;
-1,84450547810521E-5;
-3,55000467113115E-5;
-4,08687917315614E-5;
-3,38480603528886E-5;
-2,03927527365559E-5;
-8,48110182944584E-6;
-2,57651943094325E-6;
-1,37465847731028E-6;
-2,17674745511185E-7;
4,22303304302378E-6;
1,10567548235831E-5;
1,63830380638836E-5;
1,72836623990777E-5;
1,48690955474703E-5;
1,3494487513129E-5;
1,66445025202382E-5;
2,303400698833E-5;
2,65447981552353E-5;
2,05473068403497E-5;
3,42828223011728E-6;
-1,91240184847484E-5;
-3,71809158932584E-5;
-4,29295579070775E-5;
-3,56380818204412E-5;
-2,15742111054604E-5;
-9,1161712999001E-6;
-2,94097236244175E-6;
-1,67926913847367E-6;
-4,59749350456164E-7;
4,19061817198756E-6;
1,13384357782785E-5;
1,6918565606457E-5;
1,78965387073486E-5;
1,54296928923169E-5;
1,40397121938758E-5;
1,73366052261356E-5;
2,39849085778287E-5;
2,765378264185E-5;
2,14963944412986E-5;
3,85495317488981E-6;
-1,93991640270279E-5;
-3,80384225185697E-5;
-4,40282113411838E-5;
-3,66216227304201E-5;
-2,22563791747599E-5;
-9,52406605562702E-6;
-3,21330130864255E-6;
-1,92073521812532E-6;
-6,67065530167524E-7;
4,09157675399172E-6;
1,13998059122672E-5;
1,71133672671085E-5;
1,81439868186003E-5;
1,56711026388926E-5;
1,4290369728208E-5;
1,76648647893727E-5;
2,44366338093753E-5;
2,81881863980125E-5;
2,19889034955548E-5;
4,16641146369834E-6;
-1,93404011836304E-5;
-3,82016017441805E-5;
-4,43119958320991E-5;
-3,69213532841603E-5;
-2,25154688845201E-5;
-9,73999121677471E-6;
-3,4081247481982E-6;
-2,10891154825443E-6;
-8,44895848160937E-7;
3,9359903279456E-6;
1,12739957137988E-5;
1,70185262600162E-5;
1,80805752877641E-5;
1,56406624206625E-5;
1,42898645032672E-5;
1,76830202813987E-5;
2,44632929852491E-5;
2,82332741466398E-5;
2,20915787741304E-5;
4,37663370602031E-6;
-1,90028426008787E-5;
-3,77804618018985E-5;
-4,39081225705114E-5;
-3,66422521260667E-5;
-2,24140458700003E-5;
-9,78911721685008E-6;
-3,53201403725233E-6;
-2,2463267743743E-6;
-9,91897083084013E-7;
3,73897750914511E-6;
1,09969774490489E-5;
1,66861860286534E-5;
1,77613372498368E-5;
1,5386448646312E-5;
1,40823339400292E-5;
1,7444370038714E-5;
2,4136556805035E-5;
2,78706399321364E-5;
2,1868726981356E-5;
4,50125058383782E-6;
-1,8434508281039E-5;
-3,68737201050355E-5;
-4,29315107305395E-5;
-3,58793507934416E-5;
-2,20087765848451E-5;
-9,69428054905661E-6;
-3,59111624999762E-6;
-2,33571531878875E-6;
-1,10751781315343E-6;
3,51343128748841E-6;
1,06004641157873E-5;
1,61626394137638E-5;
1,72350509883145E-5;
1,49507707140324E-5;
1,37063812305167E-5;
1,6995748041089E-5;
2,35198891668719E-5;
2,7172708308934E-5;
2,13770030410994E-5;
4,55259230892144E-6;
-1,76810280518467E-5;
-3,55732124179791E-5;
-4,14888963221768E-5;
-3,47215182483453E-5;
-2,1353857124518E-5;
-9,47908493757474E-6;
-3,59394364506327E-6;
-2,3824965142306E-6;
-1,19419328605343E-6;
3,26812771763557E-6;
1,01103262850621E-5;
1,54870224650452E-5;
1,6543202480811E-5;
1,43693700107714E-5;
1,31945053388433E-5;
1,63772037292849E-5;
2,26684828201146E-5;
2,62029022801858E-5;
2,0665738024893E-5;
4,54013039151971E-6;
-1,67851139196138E-5;
-3,39632764304006E-5;
-3,96780596613406E-5;
-3,32504718829893E-5;
-2,0499796910402E-5;
-9,16647265989611E-6;
-3,54978837849143E-6;
-2,39308270516089E-6;
-1,25554027824515E-6;
3,00962631650824E-6;
9,54859698802479E-6;
1,46934223560884E-5;
1,57221325108653E-5;
1,36735927579801E-5;
1,25752902026933E-5;
1,5624222163769E-5;
2,16315326862206E-5;
2,5017931669783E-5;
1,97791742798086E-5;
4,47256832592292E-6;
-1,57846549842023E-5;
-3,21190042913997E-5;
-3,75861490394835E-5;
-3,15390684497266E-5;
-1,94916307090652E-5;
-8,7768778859092E-6;
-3,46687332454953E-6;
-2,37308383265696E-6;
-1,29462596213629E-6;
2,74399135185211E-6;
8,93517952309885E-6;
1,38125422204146E-5;
1,48046436300357E-5;
1,28918762439936E-5;
1,18747910115385E-5;
1,47690650414683E-5;
2,045353947179E-5;
2,36690432344178E-5;
1,87575686942684E-5;
4,35868517721235E-6;
-1,47121876155917E-5;
-3,01059640700904E-5;
-3,52895153225058E-5;
-2,96511270595053E-5;
-1,83686568011089E-5;
-8,32790352900786E-6;
-3,35204027884387E-6;
-2,32704471875459E-6;
-1,3137555710806E-6;
2,47696950625579E-6;
8,28804244957078E-6;
1,287190237142E-5;
1,38201279256592E-5;
1,20497998800273E-5;
1,11165151713444E-5;
1,38407143244547E-5;
1,91742847828547E-5;
2,22019869533856E-5;
1,76370376287719E-5;
4,20694293034598E-6;
-1,35955789602634E-5;
-2,79811132679688E-5;
-3,28547102489091E-5;
-2,76423470430186E-5;
-1,71651938996617E-5;
-7,83493919892715E-6;
-3,21130068131109E-6;
-2,2589943042659E-6;
-1,31502320161207E-6;
2,21349661866127E-6;
7,62280337007574E-6;
1,18954717450021E-5;
1,27942181210534E-5;
1,11696956482835E-5;
1,03210129979591E-5;
1,28645262130817E-5;
1,78285590956262E-5;
2,06567897643106E-5;
1,64492626268876E-5;
4,02497772133773E-6;
-1,24588102251673E-5;
-2,57937992382353E-5;
-3,03395303973082E-5;
-2,55612230452827E-5;
-1,59112856794384E-5;
-7,31167642239217E-6;
-3,05024725885191E-6;
-2,17281608910274E-6;
-1,30063423225529E-6;
1,95745598192677E-6;
6,9526000572926E-6;
1,09036423904247E-5;
1,17487859560367E-5;
1,02706336559382E-5;
9,50585242322902E-6;
1,18622472435673E-5;
1,64463001283509E-5;
1,90679544357724E-5;
1,52216143540229E-5;
3,81950476203733E-6;
-1,13223726292528E-5;
-2,35863692661159E-5;
-2,77936762232803E-5;
-2,34495760700262E-5;
-1,46329991560509E-5;
-6,77020299740244E-6;
-2,87404210798991E-6;
-2,07221035728619E-6;
-1,2728463644369E-6;
1,71181269398274E-6;
6,28833705878586E-6;
9,91356252220668E-6;
1,07022939404495E-5;
9,36873557980488E-6;
8,68593592556563E-6;
1,08523941470494E-5;
1,50530399732274E-5;
1,74649647251041E-5;
1,39775732335609E-5;
3,59648212437958E-6;
-1,02034115299343E-5;
-2,13945775593485E-5;
-2,52592314214059E-5;
-2,13429041237372E-5;
-1,33525702849969E-5;
-6,22097114602011E-6;
-2,68729642651675E-6;
-1,96054754920213E-6;
-1,23379661868958E-6;
1,47885465557448E-6;
5,63902152788425E-6;
8,93953864470243E-6;
9,67020817408483E-6;
8,47755104826004E-6;
7,87382534079831E-6;
9,85060813526417E-6;
1,36703710610398E-5;
1,5872778608025E-5;
1,27371174300049E-5;
3,36125366292319E-6;
-9,11593550242378E-6;
-1,92480531962537E-5;
-2,27712025109089E-5;
-1,92708197141416E-5;
-1,20886282878214E-5;
-5,67283347899636E-6;
-2,49401423417907E-6;
-1,84080042064687E-6;
-1,18543328561973E-6;
1,26032213807256E-6;
5,01199703060586E-6;
7,99333729957303E-6;
8,66529941564361E-6;
7,60831206334055E-6;
7,07997963709554E-6;
8,86993495807887E-6;
1,23162901956731E-5;
1,43122280337356E-5;
1,15170299239421E-5;
3,11857280318894E-6;
-8,07111625300568E-6;
-1,71708618194393E-5;
-2,03581705155989E-5;
-1,72575829495656E-5;
-1,0856521212752E-5;
-5,13318767982071E-6;
-2,29765138413639E-6;
-1,71559208063697E-6;
-1,12953823233334E-6;
1,0574446519456E-6;
4,41306900758667E-6;
7,08440207015846E-6;
7,69786950860746E-6;
6,77011425087786E-6;
6,31291171083116E-6;
7,92101800689287E-6;
1,1005490929266E-5;
1,28003483493415E-5;
1,03311297335512E-5;
2,87260153798323E-6;
-7,07762336783457E-6;
-1,51821048379076E-5;
-1,80429610856944E-5;
-1,53226606445346E-5;
-9,66866245424659E-6;
-4,60814579963852E-6;
-2,10119619743281E-6;
-1,58724282335366E-6;
-1,06775883207704E-6;
8,70978438395508E-7;
3,84665198555219E-6;
6,22006479204148E-6;
6,77597462790475E-6;
5,97010766678916E-6;
5,57935237582106E-6;
7,01231171364726E-6;
9,74966800794797E-6;
1,13507271414829E-5;
9,19053282599472E-6;
2,62691974857021E-6;
-6,14193665845449E-6;
-1,32964724810285E-5;
-1,58432648969676E-5;
-1,34812392448187E-5;
-8,5348440057787E-6;
-4,10265914190102E-6;
-1,9071975138958E-6;
-1,4577945134081E-6;
-1,00161565327349E-6;
7,01270379083563E-7;
3,3159270976538E-6;
5,40578279868633E-6;
5,9056759333859E-6;
5,2137089353751E-6;
4,88444535738031E-6;
6,15031648810232E-6;
8,55783050508431E-6;
9,9738752786355E-6;
8,10393994077092E-6;
2,38456843249764E-6;
-5,26859473499895E-6;
-1,15247395236694E-5;
-1,37722141608807E-5;
-1,17446911072651E-5;
-7,46251112819652E-6;
-3,6206270936427E-6;
-1,71780053692897E-6;
-1,3290191046047E-6;
-9,32486768596823E-7;
5,48321302197297E-7;
2,82299939460695E-6;
4,6453683009992E-6;
5,09127933357404E-6;
4,504813401736E-6;
4,23193732830415E-6;
5,33981027349465E-6;
7,436619252405E-6;
8,67756858783801E-6;
7,07789681363266E-6;
2,14810081135751E-6;
-4,46044549938247E-6;
-9,87424104405105E-6;
-1,18389281623921E-5;
-1,01210283249519E-5;
-6,45702749883063E-6;
-3,16500608668193E-6;
-1,53476371919059E-6;
-1,20242100628049E-6;
-8,6160450245057E-7;
4,11862781477731E-7;
2,36906424703619E-6;
3,94121953183048E-6;
4,33557242469515E-6;
3,84599413916314E-6;
3,62436240533704E-6;
4,58406347128816E-6;
6,39060092806826E-6;
7,46720290589529E-6;
6,11706770459836E-6;
1,91962756849097E-6;
-3,71888222575337E-6;
-8,34933262480609E-6;
-1,00490303905979E-5;
-8,61532453985984E-6;
-5,52193298236351E-6;
-2,73791440506278E-6;
-1,35949881820081E-6;
-1,07926097762413E-6;
-7,90058078265946E-7;
2,91397894930008E-7;
1,95452581140987E-6;
3,29450492320204E-6;
3,64002769715851E-6;
3,23867336951868E-6;
3,06319036236541E-6;
3,88503555480053E-6;
5,42253471998674E-6;
6,34608283622833E-6;
5,22445271341973E-6;
1,70084848591546E-6;
-3,04405756704558E-6;
-6,95180902621953E-6;
-8,40514327249511E-6;
-7,23012827435009E-6;
-4,65919069544872E-6;
-2,34073672894664E-6;
-1,19310551604662E-6;
-9,60579194688488E-7;
-7,18799572559535E-7;
1,86251311838892E-7;
1,57912818688407E-6;
2,70535643597737E-6;
3,00499722033238E-6;
2,68329644388371E-6;
2,54898622558466E-6;
3,24355470502053E-6;
4,53362160167078E-6;
5,31571529347047E-6;
4,40162473111959E-6;
1,49309595878727E-6;
-2,43509697893334E-6;
-5,68130287547149E-6;
-6,90733789352512E-6;
-5,96583471494024E-6;
-3,86941480112409E-6;
-1,97422627549708E-6;
-1,03640483093489E-6;
-8,47206357656829E-7;
-6,48653853830226E-7;
9,56018800473343E-8;
1,24206757321009E-6;
2,17302806391314E-6;
2,42988237145304E-6;
2,17947737399239E-6;
2,08154326046768E-6;
2,6594932914757E-6;
3,72374297938832E-6;
4,37607955363678E-6;
3,64892297902723E-6;
1,29736021276129E-6;
-1,89027835759755E-6;
-4,53564379271088E-6;
-5,55354965146403E-6;
-4,82103110644393E-6;
-3,1520821532407E-6;
-1,63859143849175E-6;
-8,89968290409468E-7;
-7,3979173945494E-7;
-5,80320960974555E-7;
1,85304539276029E-8;
9,42087950381934E-7;
1,69605775435695E-6;
1,9133082277791E-6;
1,72613861306477E-6;
1,66001303159237E-6;
2,13191972721747E-6;
2,99166849748241E-6;
3,52586971019941E-6;
2,96565448398608E-6;
1,11434020316017E-6;
-1,40719609037835E-6;
-3,5111875164055E-6;
-4,33996206037032E-6;
-3,79280988806551E-6;
-2,50572117041595E-6;
-1,33358407869915E-6;
-7,54150415327214E-7;
-6,38818206339097E-7;
-5,14389445537206E-7;
-4,59545585022547E-8;
6,77585662522536E-7;
1,27240435447906E-6;
1,4532655699226E-6;
1,32164848244445E-6;
1,28302074393074E-6;
1,65924198866228E-6;
2,33525958653342E-6;
2,76272519441767E-6;
2,35026789196656E-6;
9,44468380201248E-7;
-9,82916351582522E-7;
-2,60310517987192E-6;
-3,26133727880016E-6;
-2,87705395603278E-6;
-1,92808302367113E-6;
-1,05856373770071E-6;
-6,29111725036432E-7;
-5,44616553040955E-7;
-4,5133530789805E-7;
-9,88859388711595E-8;
4,46682698815617E-7;
8,99573381565419E-7;
1,04724436807567E-6;
9,63926354901867E-7;
9,48776142591623E-7;
1,23934669854392E-6;
1,75164802458778E-6;
2,0834316920843E-6;
1,80050746235043E-6;
7,87947907200634E-7;
-6,14101709588785E-7;
-1,80565472838149E-6;
-2,31133534374586E-6;
-2,06869331710023E-6;
-1,41630400912424E-6;
-8,12583983095226E-7;
-5,14853074065889E-7;
-4,57383611574387E-7;
-3,9153763568564E-7;
-1,41315493111161E-7;
2,47308861374505E-7;
5,74729969987607E-7;
6,92355775218497E-7;
6,50552778418796E-7;
6,55156934705315E-7;
8,69698785583242E-7;
1,23739011382254E-6;
1,48410529720453E-6;
1,31356120714127E-6;
6,44786873738428E-7;
-2,97127228823919E-7;
-1,11240730792483E-6;
-1,48277767071481E-6;
-1,36193260316571E-6;
-9,67041917263745E-7;
-5,94440987618443E-7;
-4,1123362765974E-7;
-3,7720543896605E-7;
-3,35283128045494E-7;
-1,74290117111195E-7;
7,72541194167667E-8;
2,94792167153444E-7;
3,85432156401056E-7;
3,78854283014044E-7;
3,99805640056163E-7;
5,47462511708412E-7;
7,88607779874402E-7;
9,6035309447075E-7;
8,86191169997269E-7;
5,14816129461913E-7;
-2,81950043214254E-8;
-5,16462674131924E-7;
-7,67892257850359E-7;
-7,50451008272663E-7;
-5,76606102616327E-7;
-4,02739576054997E-7;
-3,17993732085437E-7;
-3,04062669176735E-7;
-2,82776626259576E-7;
-1,98840760488911E-7;
-6,57644054922098E-8;
5,65233221957382E-8;
1,23121341706821E-7;
1,45989290504553E-7;
1,80188849127469E-7;
2,69572111777618E-7;
4,01117854890357E-7;
5,07418067005701E-7;
5,14842565082487E-7;
3,97733491941275E-7;
1,96594337847699E-7;
-1,06220450336507E-8;
-1,58523213602845E-7;
-2,27582250018139E-7;
-2,41059050789741E-7;
-2,35937303999145E-7;
-2,34779779898024E-7;
-2,37850142324874E-7;
-2,34149914114296E-7;
-2,1596623115377E-7;
-1,84061920742719E-7;
-1,43400332748309E-7;
-9,80330097736004E-8;
-5,09863699647341E-8;
-6,32641475023629E-9;
3,2832873851704E-8;
7,05415772017166E-8;
1,20309411727722E-7;
1,95744785138177E-7;
2,93109554662207E-7;
3,81159294041405E-7;
4,12456871304254E-7;
3,53688836189037E-7;
2,13535281266619E-7;
4,36804250018988E-8;
-9,23913653433607E-8;
-1,61162240619637E-7;
-1,78395553536648E-7;
-1,89464356190065E-7;
-2,26616110768155E-7;
-2,79943640011108E-7;
-3,08321151922175E-7;
-2,81526460309203E-7;
-2,15060688898509E-7;
-1,62426824607773E-7;
-1,6603057774292E-7;
-2,07606514834549E-7;
-2,06094763585787E-7;
-7,49980114587389E-8;
2,00425808425329E-7;
5,29374649512928E-7;
7,60127087039485E-7;
7,77151511923745E-7;
5,79828517359287E-7;
2,81760692059378E-7;
2,95985271459781E-8;
-9,66488257805108E-8;
-1,25460043188317E-7;
-1,4873043529206E-7;
-2,31694412612143E-7;
-3,55671916584991E-7;
-4,41551815388247E-7;
-4,30830808926826E-7;
-3,49209664217397E-7;
-2,90797952575808E-7;
-3,30297940384248E-7;
-4,37833062718086E-7;
-4,76952039284661E-7;
-3,01337241332033E-7;
1,19086031477436E-7;
6,45024896854319E-7;
1,0396438281918E-6;
1,12019092289411E-6;
8,78177852304963E-7;
4,77324924479836E-7;
1,31766305030183E-7;
-4,0702983334466E-8;
-7,87623958234948E-8;
-1,11902637625284E-7;
-2,32042090037721E-7;
-4,13441994912353E-7;
-5,46329688373693E-7;
-5,49357177525828E-7;
-4,5636408461829E-7;
-3,94092135138087E-7;
-4,6322176575683E-7;
-6,24599743383441E-7;
-6,97372992996265E-7;
-4,87211683183441E-7;
4,84368485269321E-8;
7,31754622418536E-7;
1,25807258146682E-6;
1,39094290507639E-6;
1,11532245093224E-6;
6,34452381675366E-7;
2,15844778985779E-7;
7,2418870456281E-9;
-3,79787847824497E-8;
-7,88937014631704E-8;
-2,28440121530788E-7;
-4,5535337673122E-7;
-6,25780451502425E-7;
-6,40404522971828E-7;
-5,39369208442265E-7;
-4,74894084074551E-7;
-5,67968959969622E-7;
-7,72266527848433E-7;
-8,72365028442899E-7;
-6,36496387995118E-7;
-1,22093719177764E-8;
7,9304586401472E-7;
1,42221879062462E-6;
1,59726675377342E-6;
1,29779202819218E-6;
7,57115171587757E-7;
2,83540229646422E-7;
4,77703753974554E-8;
-2,76086172794647E-9;
-4,95835054424914E-8;
-2,21603361170994E-7;
-4,83399611125086E-7;
-6,82891206432797E-7;
-7,0713497375886E-7;
-6,0095411582575E-7;
-5,35690344519662E-7;
-6,47603063526042E-7;
-8,85047465469328E-7;
-1,00676618860791E-6;
-7,52957627608374E-7;
-6,35723904852947E-8;
8,32185408697273E-7;
1,5385694085135E-6;
1,74667959378474E-6;
1,43184447621317E-6;
8,49129675311666E-7;
3,36516490935604E-7;
8,14778940021685E-8;
2,72616437502938E-8;
-2,38211123055693E-8;
-2,12183986472601E-7;
-4,99451841240522E-7;
-7,20488333265693E-7;
-7,52554678101153E-7;
-6,43718633870445E-7;
-5,78854057376144E-7;
-7,0505014408694E-7;
-9,66970425544608E-7;
-1,10521395617668E-6;
-8,40218905770993E-7;
-1,06378706282854E-7;
8,52249793701371E-7;
1,61324870957083E-6;
1,84629284898713E-6;
1,52341616114268E-6;
9,14138120168624E-7;
3,76377030604792E-7;
1,08957451648674E-7;
5,24704758106839E-8;
-1,42782550919336E-9;
-2,00764942289545E-7;
-5,05257585257129E-7;
-7,4122346969917E-7;
-7,79483876943241E-7;
-6,7011049798533E-7;
-6,06627560644896E-7;
-7,43077700864105E-7;
-1,02185403017126E-6;
-1,17210743426522E-6;
-9,01732548870861E-7;
-1,41358304123105E-7;
8,56096537525146E-7;
1,65199033687215E-6;
1,90278910727328E-6;
1,57809447500233E-6;
9,55576381069204E-7;
4,04654884660589E-7;
1,30794279955764E-7;
7,32509333018698E-8;
1,77870745553172E-8;
-1,87867054768541E-7;
-5,02425594577587E-7;
-7,47561443878955E-7;
-7,9055531572499E-7;
-6,82417261761415E-7;
-6,21110316988362E-7;
-7,64286795318794E-7;
-1,05328832171745E-6;
-1,21158556887106E-6;
-9,40759694284695E-7;
-1,69235096709639E-7;
8,46353531934827E-7;
1,660115581826E-6;
1,92237875938954E-6;
1,60108765939454E-6;
9,76663096840574E-7;
4,2279563353453E-7;
1,47558566919748E-7;
8,9992199835462E-8;
3,40306224565867E-8;
-1,73950664799008E-7;
-4,92430668575016E-7;
-7,41773923167677E-7;
-7,88204024267666E-7;
-6,82757881184755E-7;
-6,24253057179628E-7;
-7,71098481775123E-7;
-1,06461192549934E-6;
-1,22750702749815E-6;
-9,60353588513672E-7;
-1,90711102065478E-7;
8,25415940766335E-7;
1,64252232218101E-6;
1,91080581208405E-6;
1,59721824614555E-6;
9,80387645056831E-7;
4,32161959186698E-7;
1,59803732124478E-7;
1,03075966005008E-7;
4,751809260506E-8;
-1,59411204330612E-7;
-4,76609195769181E-7;
-7,2594074923932E-7;
-7,7466149887434E-7;
-6,7308126302893E-7;
-6,17854503966065E-7;
-7,65744306820178E-7;
-1,05891327178497E-6;
-1,223441835881E-6;
-9,63349683004404E-7;
-2,06471062405495E-7;
7,95456745332384E-7;
1,60368408007246E-6;
1,87331893194788E-6;
1,57090923626194E-6;
9,69502601197622E-7;
4,34015323442567E-7;
1,68054017685542E-7;
1,12874991722836E-7;
5,84693567557231E-8;
-1,44596784539861E-7;
-4,56170339818985E-7;
-7,01948447186557E-7;
-7,51960569028633E-7;
-6,55163982796826E-7;
-6,03557583605761E-7;
-7,50271953409868E-7;
-1,0390263803412E-6;
-1,20267235162263E-6;
-9,52363432630753E-7;
-2,17167591916745E-7;
7,58421275795346E-7;
1,54765387752215E-6;
1,81469694050345E-6;
1,52618881663682E-6;
9,4652478459389E-7;
4,2952938519369E-7;
1,72809635788655E-7;
1,19747512792276E-7;
6,71063580987912E-8;
-1,29795580006034E-7;
-4,32188120540682E-7;
-6,71494051675948E-7;
-7,2193217299167E-7;
-6,30609898701241E-7;
-5,82851584354441E-7;
-7,26542678864697E-7;
-1,00752632605977E-6;
-1,16818244751505E-6;
-9,29787453922883E-7;
-2,23423285992599E-7;
7,160407912493E-7;
1,47807052180632E-6;
1,73924023863919E-6;
1,46669754545594E-6;
9,13735900393798E-7;
4,19770989903014E-7;
1,74542231328065E-7;
1,24040846527526E-7;
7,36477037935005E-8;
-1,15250377425564E-7;
-4,05611656357388E-7;
-6,36088620451778E-7;
-6,86217387971412E-7;
-6,00863454423226E-7;
-5,57079123277943E-7;
-6,96233036670207E-7;
-9,66740872008557E-7;
-1,12267636640495E-6;
-8,97793995470739E-7;
-2,25823685852227E-7;
6,69842784123059E-7;
1,39817887934636E-6;
1,65079423537122E-6;
1,39569721972604E-6;
8,73191784201924E-7;
4,05714489057906E-7;
1,73687533736553E-7;
1,26081022504786E-7;
7,83088295083035E-8;
-1,01160319085435E-7;
-3,77275599700807E-7;
-5,97073722344887E-7;
-6,46272091604871E-7;
-5,67203711734371E-7;
-5,27436172715064E-7;
-6,60843640024684E-7;
-9,18750587711074E-7;
-1,06857202106191E-6;
-8,58336244704927E-7;
-2,24917883232833E-7;
6,21156926126751E-7;
1,31084073051615E-6;
1,55276319302452E-6;
1,31608410339137E-6;
8,26725382037898E-7;
3,88241096019606E-7;
1,70653013958243E-7;
1,26176822644617E-7;
8,13005026981131E-8;
-8,76842778293667E-8;
-3,47901235919176E-7;
-5,55619823303265E-7;
-6,03376770053039E-7;
-5,30761317628012E-7;
-4,94980494840389E-7;
-6,21705898648874E-7;
-8,65406915893958E-7;
-1,00802661939002E-6;
-8,13165165561631E-7;
-2,21214672340496E-7;
5,71130034068014E-7;
1,21855998795989E-6;
1,44814120447927E-6;
1,23040708560811E-6;
7,75956226672825E-7;
3,68136976354479E-7;
1,65810747871503E-7;
1,24614931909502E-7;
8,28214895352971E-8;
-7,49440097578247E-8;
-3,18106106793902E-7;
-5,12740133201295E-7;
-5,58641341432657E-7;
-4,92521461830912E-7;
-4,60638513610572E-7;
-5,79987171461361E-7;
-8,08333684792091E-7;
-9,42934218729328E-7;
-7,63826467418635E-7;
-2,15183144079262E-7;
5,2074221949766E-7;
1,12350171049425E-6;
1,33952331647544E-6;
1,14089166606667E-6;
7,22306420774808E-7;
3,46099075338657E-7;
1,59501507348298E-7;
1,21663342909167E-7;
8,30634188384204E-8;
-6,30297675980139E-8;
-2,88414758074257E-7;
-4,69308796708243E-7;
-5,13026105425197E-7;
-4,53335654222646E-7;
-4,25212678965331E-7;
-5,36703755562188E-7;
-7,48950293255204E-7;
-8,74953530960417E-7;
-7,1167932375546E-7;
-2,07252493908339E-7;
4,70812699542127E-7;
1,027516858066E-6;
1,22914418443634E-6;
1,04945389565835E-6;
6,67007731623026E-7;
3,22744064821771E-7;
1,52033483969836E-7;
1,17566550326432E-7;
8,22055579022789E-8;
-5,20025917142445E-8;
-2,5925585971753E-7;
-4,26056511131115E-7;
-4,6734453800194E-7;
-4,13929493667206E-7;
-3,89392339990763E-7;
-4,92728980495853E-7;
-6,88475164339378E-7;
-8,05514966209655E-7;
-6,57904532376299E-7;
-1,97811454720256E-7;
4,22023619419488E-7;
9,32167746988697E-7;
1,11889341556915E-6;
9,5772609435637E-7;
6,11116928120768E-7;
2,98605787417824E-7;
1,43683261153511E-7;
1,1254964135705E-7;
8,04184231649024E-8;
-4,18998960659625E-8;
-2,30986738357389E-7;
-3,83595494138072E-7;
-4,22276662898013E-7;
-3,74914675209478E-7;
-3,53762052838134E-7;
-4,48807803987267E-7;
-6,27948187655991E-7;
-7,35837263647573E-7;
-6,03515870069314E-7;
-1,87210807500859E-7;
3,74922059740098E-7;
8,38749811807801E-7;
1,01035722553418E-6;
8,670813333039E-7;
5,55527074631004E-7;
2,7414387004559E-7;
1,34694373224199E-7;
1,06811672410912E-7;
7,78579055491475E-8;
-3,27354653145546E-8;
-2,0388953293484E-7;
-3,42426610414284E-7;
-3,78385792450601E-7;
-3,36795575775653E-7;
-3,18801489983951E-7;
-4,05558973826304E-7;
-5,68242327786032E-7;
-6,66948499995478E-7;
-5,49372549182246E-7;
-1,75763006934797E-7;
3,29942926650586E-7;
7,4832029021135E-7;
9,04832291173267E-7;
7,78651310352451E-7;
5,00984685499533E-7;
2,49753184961649E-7;
1,25288528351521E-7;
1,00538938959275E-7;
7,46683186144727E-8;
-2,45099857509391E-8;
-1,78181547489723E-7;
-3,02945832203837E-7;
-3,36122256799712E-7;
-2,99982526093943E-7;
-2,84910113061275E-7;
-3,63496626082084E-7;
-5,10077227253216E-7;
-5,99699687713225E-7;
-4,96197860060212E-7;
-1,6374768453042E-7;
2,8741271659529E-7;
6,61715644803319E-7;
8,03364572246604E-7;
6,93354937890201E-7;
4,48099421263053E-7;
2,25759055347834E-7;
1,15649190692913E-7;
9,38901868938426E-8;
7,09816282563242E-8;
-1,72048957087566E-8;
-1,54022640823655E-7;
-2,65463759038703E-7;
-2,95842794565946E-7;
-2,64800281130989E-7;
-2,52405334220365E-7;
-3,23029509250164E-7;
-4,54031749601826E-7;
-5,34778629817901E-7;
-4,44577889324507E-7;
-1,51405906812335E-7;
2,4757232197679E-7;
5,79584423207355E-7;
7,06768153289492E-7;
6,11913755648538E-7;
3,97359028505837E-7;
2,02436477080299E-7;
1,05947158885591E-7;
8,70118677943881E-8;
6,69167483434565E-8;
-1,07907581582801E-8;
-1,31521821157192E-7;
-2,30203294141545E-7;
-2,57811198665031E-7;
-2,31495245981835E-7;
-2,21530711913928E-7;
-2,84481617406539E-7;
-4,00563935335732E-7;
-4,72733335083425E-7;
-3,9499059576382E-7;
-1,38947630414966E-7;
2,10576560378217E-7;
5,02395363076051E-7;
6,15651814325097E-7;
5,34877130870163E-7;
3,49143138060082E-7;
1,80002196130655E-7;
9,63147483424571E-8;
8,0023719282537E-8;
6,25827201387397E-8;
-5,22725563369687E-9;
-1,10748517660249E-7;
-1,97325633282004E-7;
-2,2222012768412E-7;
-2,00246909488552E-7;
-1,9246869951846E-7;
-2,48095174341676E-7;
-3,50020925222271E-7;
-4,13981196790254E-7;
-3,47804867098673E-7;
-1,26555300584148E-7;
1,76514411691564E-7;
4,3047588480052E-7;
5,30448536474257E-7;
4,62640884182639E-7;
3,0373069729756E-7;
1,58626981215226E-7;
8,68742940203737E-8;
7,30365108013957E-8;
5,8071565688169E-8;
-4,6890157489054E-10;
-9,17316926549057E-8;
-1,66925127192377E-7;
-1,89189828598017E-7;
-1,71175652538063E-7;
-1,65345288634528E-7;
-2,140411385557E-7;
-3,02651133875995E-7;
-3,58823322197573E-7;
-3,03295744279255E-7;
-1,14380207744713E-7;
1,45418110368081E-7;
3,64019459997055E-7;
4,51431639040945E-7;
3,95468356296679E-7;
2,61318784672864E-7;
1,38440215157606E-7;
7,77206115580083E-8;
6,61420854682266E-8;
5,34684073481183E-8;
3,53672879517071E-9;
-7,44669367609479E-8;
-1,39047098530327E-7;
-1,58790283257891E-7;
-1,44349466237838E-7;
-1,40236259678224E-7;
-1,8243026538428E-7;
-2,58618406396758E-7;
-3,07465250220448E-7;
-2,61660493390781E-7;
-1,02548863852745E-7;
1,17267044856374E-7;
3,03105973704774E-7;
3,78741554397606E-7;
3,33507378124918E-7;
2,22029145400509E-7;
1,19535173233589E-7;
6,89322436669692E-8;
5,94141524218812E-8;
4,88459062895144E-8;
6,84586893854499E-9;
-5,89298773558585E-8;
-1,13687655302427E-7;
-1,31034314731815E-7;
-1,19796159575771E-7;
-1,17180086756487E-7;
-1,53321687308663E-7;
-2,18010300161977E-7;
-2,60022067963573E-7;
-2,23022231858142E-7;
-9,11639288098071E-8;
9,19984292578943E-8;
2,47721046625999E-7;
3,12403533490481E-7;
2,76803762595397E-7;
1,85915892016355E-7;
1,01971826157669E-7;
6,05728297978538E-8;
5,29188070379366E-8;
4,42678887275696E-8;
9,51707860213559E-9;
-4,506803351241E-8;
-9,08096848450702E-8;
-1,05898513295335E-7;
-9,75010946838441E-8;
-9,61750564419101E-8;
-1,26728162265817E-7;
-1,80852964040282E-7;
-2,16535087370934E-7;
-1,87444595175336E-7;
-8,03093824069279E-8;
6,95180693717215E-8;
1,97772778078948E-7;
2,52346395092615E-7;
2,25323357261785E-7;
1,52984621103821E-7;
8,57809586130065E-8;
5,26858765054475E-8;
4,67057184042047E-8;
3,97864624169546E-8;
1,1609169555374E-8;
-3,28162582504391E-8;
-7,034566606019E-8;
-8,33209343141776E-8;
-7,74208944669835E-8;
-7,71919486003053E-8;
-1,02621479448561E-7;
-1,47120346430643E-7;
-1,76986392819695E-7;
-1,54934328932084E-7;
-7,0045667533067E-8;
4,97052642600876E-8;
1,53105377219743E-7;
1,98419804586926E-7;
1,78959850694387E-7;
1,23190656030282E-7;
7,09711413235145E-8;
4,53055046131408E-8;
4,08137573382381E-8;
3,54464396063727E-8;
1,31813704972777E-8;
-2,20937289928922E-8;
-5,22016734646808E-8;
-6,3216774311954E-8;
-5,94886840107624E-8;
-6,01775852843936E-8;
-8,09473265181169E-8;
-1,16740381841487E-7;
-1,41300640504539E-7;
-1,25457155796955E-7;
-6,04202643073919E-8;
3,24177662654352E-8;
1,13507985253912E-7;
1,5040607612082E-7;
1,37549803041752E-7;
9,64508008441307E-8;
5,75279485500382E-8;
3,84522581782213E-8;
3,52722845410497E-8;
3,12843617487105E-8;
1,42912149587585E-8;
-1,28118842181617E-8;
-3,6266219483213E-8;
-4,54752822970397E-8;
-4,36142652984727E-8;
-4,50574278529531E-8;
-6,16217390085331E-8;
-8,96036809103911E-8;
-1,09362474875631E-7;
-9,8941125314533E-8;
-5,14613346752954E-8;
1,74993477093636E-8;
7,87323761598141E-8;
1,08041465922358E-7;
1,00887859115909E-7;
7,26561289563679E-8;
4,54233733188766E-8;
3,21383343447246E-8;
3,01006803496368E-8;
2,7324629326212E-8;
1,49946599983969E-8;
-4,86961090791771E-9;
-2,24109070606388E-8;
-2,99705019360502E-8;
-2,9694457004181E-8;
-3,17437597855049E-8;
-4,45419921356268E-8;
-6,55733219066666E-8;
-8,10195149706792E-8;
-7,52824005358731E-8;
-4,31864390517801E-8;
4,78531794586881E-9;
4,84999429877645E-8;
7,10168032611092E-8;
6,87296289425937E-8;
5,16708202924952E-8;
3,46113592299783E-8;
2,63639621254569E-8;
2,53146834204066E-8;
2,35943629590253E-8;
1,53462260747889E-8;
1,83152897280135E-9;
-1,05015261839247E-8;
-1,65652706980213E-8;
-1,76134785448235E-8;
-2,01333929321774E-8;
-2,95887424885368E-8;
-4,4492003048445E-8;
-5,60964814847958E-8;
-5,43576658215729E-8;
-3,5600736730861E-8;
-5,89625752724518E-9;
2,25097571184638E-8;
3,90022783400787E-8;
4,08085381488358E-8;
3,33382405414483E-8;
2,5037759521415E-8;
2,11263622551011E-8;
2,0916817490225E-8;
2,01039791076443E-8;
1,53957405565713E-8;
7,39567667855271E-9;
-3,93475017622863E-10;
-5,11041491140215E-9;
-7,24624947299655E-9;
-1,01192899630089E-8;
-1,66344653921265E-8;
-2,61829717127771E-8;
-3,4394666347002E-8;
-3,60210326997084E-8;
-2,86995209952741E-8;
-1,47223877105352E-8;
4,48383837636723E-10;
1,16459030430378E-8;
1,68386491977682E-8;
1,74945493725551E-8;
1,66395494751291E-8;
1,64093411947745E-8;
1,69066524856378E-8;
1,68675283215075E-8;
1,51912612698062E-8;
1,1926366969207E-8;
8,05859942029649E-9;
4,5433936032696E-9;
1,53402141654279E-9;
-1,58815988612465E-9;
-5,53976233252193E-9;
-1,04598544477561E-8;
-1,57051549109809E-8;
-2,01159156179913E-8;
-2,24695453437614E-8;
-2,18648928439432E-8;
-1,8005043740381E-8;
-1,14153447269536E-8;
-3,47534006487787E-9;
3,96107498084358E-9;
9,34653885750824E-9;
1,22003248774046E-8;
1,32789004836307E-8;
1,38876302055259E-8;
1,47752932365661E-8;
1,55240335499825E-8;
1,50013279200032E-8;
1,25497247379941E-8;
8,85789886054488E-9;
5,58022100986736E-9;
3,83859987383256E-9;
2,87092880159427E-9;
1,94413734375392E-10;
-6,47741233278742E-9;
-1,68936830653668E-8;
-2,74935600065136E-8;
-3,31674446880815E-8;
-3,05458015061177E-8;
-2,04356196542094E-8;
-7,43926412862116E-9;
3,0856784163844E-9;
8,47607400083222E-9;
1,00263954956636E-8;
1,11670221717144E-8;
1,41880313061592E-8;
1,82914027453728E-8;
2,05811884583331E-8;
1,90608310846E-8;
1,48582573873141E-8;
1,15022909655119E-8;
1,16423585348107E-8;
1,40066834159674E-8;
1,35281466223182E-8;
5,0690670293359E-9;
-1,19426369480814E-8;
-3,17743097761264E-8;
-4,53576229217472E-8;
-4,61092373826061E-8;
-3,43423596494067E-8;
-1,68906785349183E-8;
-2,22158652612606E-9;
5,21156823179494E-9;
7,13135844192262E-9;
8,70185398015867E-9;
1,34689572620305E-8;
2,03221068732029E-8;
2,49369413290512E-8;
2,42250156622854E-8;
1,9660913081317E-8;
1,62945421693075E-8;
1,80144744943349E-8;
2,31413074680173E-8;
2,4519583960446E-8;
1,46939730246804E-8;
-7,58984897817541E-9;
-3,48648012566115E-8;
-5,48823949825585E-8;
-5,8461835907669E-8;
-4,54916709815552E-8;
-2,45716440087624E-8;
-6,65141220581193E-9;
2,38172501280641E-9;
4,58255503353322E-9;
6,48835850963408E-9;
1,26468057322527E-8;
2,17073963886358E-8;
2,82080628205275E-8;
2,81874723391583E-8;
2,33933210884141E-8;
2,00714244894712E-8;
2,30939978313304E-8;
3,04687042614084E-8;
3,3390702567486E-8;
2,25720238879184E-8;
-3,79977436008682E-9;
-3,691674697377E-8;
-6,20401628955798E-8;
-6,79461558170342E-8;
-5,41691068951631E-8;
-3,06590426023585E-8;
-1,02832547832659E-8;
-4,49931290220562E-11;
2,35810504786635E-9;
4,51718728485087E-9;
1,17532769748379E-8;
2,25335718902382E-8;
3,05220770908528E-8;
3,10852912757445E-8;
2,61730555998282E-8;
2,29438577746741E-8;
2,70211146877975E-8;
3,61769625285834E-8;
4,03563162233335E-8;
2,88696376921862E-8;
-5,3794386005901E-10;
-3,80678465699146E-8;
-6,7113308809668E-8;
-7,48949779256E-8;
-6,06526451686167E-8;
-3,53230179676763E-8;
-1,31925095109605E-8;
-2,09606545740999E-9;
4,41096025629259E-10;
2,77997380997077E-9;
1,08129913055233E-8;
2,287786362741E-8;
3,20015985082023E-8;
3,30531267010684E-8;
2,8118374222185E-8;
2,50169612313113E-8;
2,99227120227135E-8;
4,04450296449073E-8;
4,5625949472835E-8;
3,37536455327713E-8;
2,23204545062098E-9;
-3,84512826700854E-8;
-7,03663491606505E-8;
-7,9618055292521E-8;
-6,52049526803705E-8;
-3,87278685593546E-8;
-1,54529474985525E-8;
-3,80088078251675E-9;
-1,19064953906918E-9;
1,26446020648784E-9;
9,84928130466803E-9;
2,28177951162934E-8;
3,27639031591331E-8;
3,42124671703567E-8;
2,93342202523714E-8;
2,63904172646881E-8;
3,19252945175669E-8;
4,34456744002783E-8;
4,93975067601404E-8;
3,73807716214238E-8;
4,54919320237452E-9;
-3,81881030981988E-8;
-7,2052861368583E-8;
-8,24116484073717E-8;
-6,80749873291068E-8;
-4,10280868930864E-8;
-1,71356338023816E-8;
-5,19163331913137E-9;
-2,55995644551063E-9;
-4,23273124808863E-11;
8,8805988049294E-9;
2,24201981931659E-8;
3,29141649155375E-8;
3,46786751687568E-8;
2,99239877410116E-8;
2,71585283052173E-8;
3,31441881775082E-8;
4,53399394301364E-8;
5,18593045238674E-8;
3,99040226652737E-8;
6,45259315214505E-9;
-3,73900188882483E-8;
-7,24029725540535E-8;
-8,35491398263186E-8;
-6,94939523033738E-8;
-4,23690021235885E-8;
-1,83112138262426E-8;
-6,29614748503905E-9;
-3,68604532195492E-9;
-1,15559313768485E-9;
7,92210325406915E-9;
2,17461316736294E-8;
3,25502917135381E-8;
3,45574935195021E-8;
2,99789175964445E-8;
2,74077545170929E-8;
3,36893060204979E-8;
4,62818633979313E-8;
5,31885107068759E-8;
4,14608479555153E-8;
7,97850183591598E-9;
-3,61562620057137E-8;
-7,16314761918645E-8;
-8,32841212855795E-8;
-6,96769340140338E-8;
-4,28875815002156E-8;
-1,90441435207034E-8;
-7,14519727940863E-9;
-4,59263561839486E-9;
-2,08689460022905E-9;
6,9908746330904E-9;
2,08521894162583E-8;
3,17629698776792E-8;
3,39498486748858E-8;
2,95869499488268E-8;
2,72192169526702E-8;
3,36623366049867E-8;
4,64091534298996E-8;
5,3547121694204E-8;
4,21858322181387E-8;
9,16485019023969E-9;
-3,45778775291903E-8;
-6,99332374373564E-8;
-8,18500803815046E-8;
-6,88244527601214E-8;
-4,2707533226721E-8;
-1,93918816842342E-8;
-7,76707360326285E-9;
-5,29839795243069E-9;
-2,85145688564642E-9;
6,09210319390964E-9;
1,97891843905741E-8;
3,06337298228053E-8;
3,29406816530709E-8;
2,8827170538184E-8;
2,66670180668732E-8;
3,31568257664725E-8;
4,5853524086912E-8;
5,30865887388616E-8;
4,22027336700247E-8;
1,00466545802881E-8;
-3,27358959399733E-8;
-6,748479041927E-8;
-7,94591554679588E-8;
-6,71137604196306E-8;
-4,19454884477268E-8;
-1,94132915758015E-8;
-8,18621003808685E-9;
-5,82735685785756E-9;
-3,46532523312765E-9;
5,238517668304E-9;
1,859998593798E-8;
2,92351468120566E-8;
3,16126671471022E-8;
2,77692644246941E-8;
2,58170900122839E-8;
3,22554136275965E-8;
4,47321271323602E-8;
5,19460405682772E-8;
4,16236864223085E-8;
1,06605030724191E-8;
-3,07016465262974E-8;
-6,44450996907444E-8;
-7,63003573832409E-8;
-6,47113709830083E-8;
-4,07065001515852E-8;
-1,91590157038482E-8;
-8,42951945483326E-9;
-6,19741623655354E-9;
-3,94129140172014E-9;
4,43563904830424E-9;
1,73236817134991E-8;
2,76317023228483E-8;
3,00370170242244E-8;
2,64783283695578E-8;
2,4731758452521E-8;
3,1037159967842E-8;
4,3152176887716E-8;
5,02509213276053E-8;
4,05528521737695E-8;
1,10381055493573E-8;
-2,8537323994576E-8;
-6,09560469581769E-8;
-7,25469573823603E-8;
-6,17644254510679E-8;
-3,9084801870281E-8;
-1,867628959956E-8;
-8,52132678987848E-9;
-6,4289782535848E-9;
-4,29372017377952E-9;
3,68853875018567E-9;
1,59943260618567E-8;
2,58816747410676E-8;
2,82770954576189E-8;
2,5011028963171E-8;
2,34647949887012E-8;
2,95691563583821E-8;
4,12115475514827E-8;
4,81158341508404E-8;
3,9082920559492E-8;
1,12099163498599E-8;
-2,62985917430888E-8;
-5,71420346117183E-8;
-6,83490123554504E-8;
-5,84042985915958E-8;
-3,71663308965907E-8;
-1,80094163957386E-8;
-8,48294955686674E-9;
-6,53809002547135E-9;
-4,53748561958225E-9;
2,99924813500221E-9;
1,46417763066608E-8;
2,40345546590402E-8;
2,63898577849835E-8;
2,34172640187301E-8;
2,20629048732974E-8;
2,79159339298558E-8;
3,89956051888176E-8;
4,56410137048574E-8;
3,7300896177577E-8;
1,12055374153727E-8;
-2,40306041014982E-8;
-5,31127058957637E-8;
-6,38415650699338E-8;
-5,47467124456293E-8;
-3,50265485505093E-8;
-1,71961066520415E-8;
-8,33549484802124E-9;
-6,54248311746932E-9;
-4,6830443247033E-9;
2,37035671154924E-9;
1,32890193193659E-8;
2,21331496272828E-8;
2,4423144562222E-8;
2,17427318191697E-8;
2,05691055680112E-8;
2,61276355703972E-8;
3,65813460908418E-8;
4,2916895417455E-8;
3,52787939562299E-8;
1,10529876537381E-8;
-2,17714469223686E-8;
-4,89632036686351E-8;
-5,91402644758088E-8;
-5,08912067842836E-8;
-3,2731353608745E-8;
-1,62711455216609E-8;
-8,09682206915305E-9;
-6,46046947835494E-9;
-4,74605658415823E-9;
1,80255353524315E-9;
1,19576171747093E-8;
2,02160655599948E-8;
2,24185456755298E-8;
2,00222149851704E-8;
1,90202715921977E-8;
2,42538770908029E-8;
3,40333516497874E-8;
4,00217296733596E-8;
3,30857290701712E-8;
1,07750761732335E-8;
-1,95569811945233E-8;
-4,477307724809E-8;
-5,43442862854082E-8;
-4,69273038043361E-8;
-3,03380935886456E-8;
-1,52660614079975E-8;
-7,78599385814638E-9;
-6,30164838152374E-9;
-4,7352721560525E-9;
1,2927483558627E-9;
1,0662998059001E-8;
1,83138863151307E-8;
2,04130524874093E-8;
1,82904517937986E-8;
1,74478581571748E-8;
2,2335335148869E-8;
3,14117236417258E-8;
3,70250990368925E-8;
3,07783184032944E-8;
1,03961501189234E-8;
-1,74108203478045E-8;
-4,06114750948173E-8;
-4,95399445725668E-8;
-4,2929776888298E-8;
-2,78976748615777E-8;
-1,42068866733232E-8;
-7,41745461717731E-9;
-6,08458991758602E-9;
-4,66512917731282E-9;
8,42167460934351E-10;
9,42001404125717E-9;
1,6451558823166E-8;
1,84350669567812E-8;
1,65730641660124E-8;
1,58773328019477E-8;
2,04075080895993E-8;
2,87653603236672E-8;
3,39853953910431E-8;
2,8409429817809E-8;
9,93583924364433E-9;
-1,53557593985143E-8;
-3,65345313383769E-8;
-4,47991503480616E-8;
-3,89616744827731E-8;
-2,54529177313578E-8;
-1,31183485911523E-8;
-7,00514946187192E-9;
-5,81867343816415E-9;
-4,54198961829636E-9;
4,49727554686862E-10;
8,23955401136955E-9;
1,46513998189437E-8;
1,65097298340942E-8;
1,4894376260026E-8;
1,43323075550232E-8;
1,84974722249353E-8;
2,61351606184257E-8;
3,09523185842121E-8;
2,60196250676771E-8;
9,41320833047626E-9;
-1,34063423545959E-8;
-3,25881082719502E-8;
-4,01796731568426E-8;
-3,50755847741841E-8;
-2,30385654809763E-8;
-1,20179326817772E-8;
-6,56043639905824E-9;
-5,51486750020803E-9;
-4,37766116459626E-9;
1,09288590973745E-10;
7,12751931777393E-9;
1,29289500593927E-8;
1,4657357369876E-8;
1,32722459345274E-8;
1,28306118512635E-8;
1,66313641820832E-8;
2,3557173326442E-8;
2,79699032399982E-8;
2,36483587282626E-8;
8,84517095191305E-9;
-1,15760050432222E-8;
-2,88095603855937E-8;
-3,572850872116E-8;
-3,13146520783356E-8;
-2,06853177017989E-8;
-1,09244574603964E-8;
-6,09629900033236E-9;
-5,18384773694326E-9;
-4,17864805219761E-9;
-1,78723024787415E-10;
6,09202203332869E-9;
1,12973735070495E-8;
1,289093206525E-8;
1,17195285320331E-8;
1,13866488514323E-8;
1,48282065852977E-8;
2,10581684562418E-8;
2,50688667253533E-8;
2,13234409817677E-8;
8,24620105469493E-9;
-9,87219489932242E-9;
-2,52263167618286E-8;
-3,1482955942264E-8;
-2,7711887553584E-8;
-1,84150455446034E-8;
-9,85286748804176E-9;
-5,62195940382848E-9;
-4,83246499915916E-9;
-3,95451760333683E-9;
-4,21227196501341E-10;
5,1340684046559E-9;
9,76627956319337E-9;
1,12248609865206E-8;
1,02496860031856E-8;
1,00123042026282E-8;
1,31034487845006E-8;
1,86628945286221E-8;
2,22800290024483E-8;
1,90711058131976E-8;
7,6280053837901E-9;
-8,29978319845899E-9;
-2,1858528289794E-8;
-2,74721679765316E-8;
-2,42952970526737E-8;
-1,6249583324958E-8;
-8,81294444836505E-9;
-5,14328209581851E-9;
-4,47106241446531E-9;
-3,71206285749658E-9;
-6,205720115663E-10;
4,2548376807233E-9;
8,34127504212342E-9;
9,66773630169906E-9;
8,87036334406183E-9;
8,71536040423858E-9;
1,14705960583707E-8;
1,63887134656082E-8;
1,96245381063133E-8;
1,69116092754393E-8;
7,00148673383881E-9;
-6,86154867517448E-9;
-1,87214958999372E-8;
-2,37155879329064E-8;
-2,10823352401697E-8;
-1,42021808600809E-8;
-7,81629774859647E-9;
-4,66854973949227E-9;
-4,10332129554606E-9;
-3,45451946600315E-9;
-7,78097725121798E-10;
3,45746293869684E-9;
7,02770282681229E-9;
8,22108760287152E-9;
7,58551851721644E-9;
7,50574113277017E-9;
9,93789503309666E-9;
1,42470895646687E-8;
1,71183956357097E-8;
1,48607591775225E-8;
6,37875596576196E-9;
-5,5558842947002E-9;
-1,58248805113367E-8;
-2,02286361044039E-8;
-1,80865316271029E-8;
-1,2280873493871E-8;
-6,86863442733703E-9;
-4,2039316330095E-9;
-3,73723134209499E-9;
-3,19177300525235E-9;
-8,99708497437521E-10;
2,73837454205648E-9;
5,82337149723054E-9;
6,89144312810412E-9;
6,39879964580596E-9;
6,38064500049893E-9;
8,50993753257975E-9;
1,22472814584535E-8;
1,47721728147607E-8;
1,29305165774782E-8;
5,76552001693163E-9;
-4,38290499576129E-9;
-1,31683332341583E-8;
-1,70144065876074E-8;
-1,53184672180007E-8;
-1,04961392878708E-8;
-5,97496995119406E-9;
-3,7538578433887E-9;
-3,37644411626443E-9;
-2,92524226434686E-9;
-9,89363327807395E-10;
2,09698331915089E-9;
4,73127129596073E-9;
5,67804566120051E-9;
5,31368379892157E-9;
5,3470934482555E-9;
7,19091068077576E-9;
1,03970594561581E-8;
1,25951368241589E-8;
1,11257387135417E-8;
5,16778328456293E-9;
-3,33608085937989E-9;
-1,07535324752631E-8;
-1,40774800584346E-8;
-1,27767806635862E-8;
-8,84866025103121E-9;
-5,14185026697306E-9;
-3,32404598341049E-9;
-3,02642525175956E-9;
-2,65900714799141E-9;
-1,0502485193299E-9;
1,52794521134053E-9;
3,74921261536189E-9;
4,57989333713335E-9;
4,3270066268773E-9;
4,40424478794171E-9;
5,98160250882113E-9;
8,69652429062867E-9;
1,05900768066779E-8;
9,45477469523099E-9;
4,59499591955748E-9;
-2,41064982922645E-9;
-8,57712514928626E-9;
-1,14144803723679E-8;
-1,04643270365152E-8;
-7,34115440825707E-9;
-4,36732489598912E-9;
-2,91417342956158E-9;
-2,68856462042183E-9;
-2,39814173729906E-9;
-1,08585472043464E-9;
1,03130860088691E-9;
2,87129771351599E-9;
3,591861374337E-9;
3,43811381861649E-9;
3,55036130277608E-9;
4,88290359468174E-9;
7,1480624798832E-9;
8,75780733219929E-9;
7,91892276632299E-9;
4,04697072383442E-9;
-1,6032720353988E-9;
-6,63013351148525E-9;
-9,02019704171659E-9;
-8,37704120033559E-9;
-5,97160986300112E-9;
-3,65589856679374E-9;
-2,5286219882552E-9;
-2,36643284545599E-9;
-2,14413426498276E-9;
-1,09893074444454E-9;
5,98789153659261E-10;
2,09564397271578E-9;
2,71571196614979E-9;
2,64370042716955E-9;
2,78481182102538E-9;
3,89183975052963E-9;
5,74474781779305E-9;
7,09633844375136E-9;
6,51743535473977E-9;
3,52830396901051E-9;
-9,03576967588026E-10;
-4,90452595938783E-9;
-6,88510252628446E-9;
-6,50757131373193E-9;
-4,73848301478551E-9;
-3,00606483547674E-9;
-2,1679550798265E-9;
-2,06215421243338E-9;
-1,9002917322916E-9;
-1,09388435546118E-9;
2,30592031106229E-10;
1,4166482120919E-9;
1,94157394630176E-9;
1,94129960558957E-9;
2,10183060015921E-9;
3,00481727425105E-9;
4,4886570186541E-9;
5,60164638293691E-9;
5,24822764147423E-9;
3,04309375486844E-9;
-3,05489255275956E-10;
-3,39049860367846E-9;
-4,99828624859284E-9;
-4,84837712320796E-9;
-3,63750238000167E-9;
-2,41814924432547E-9;
-1,83366182995792E-9;
-1,7751256001433E-9;
-1,6675373617314E-9;
-1,07356175761716E-9;
-8,13095053073019E-11;
8,26930402354005E-10;
1,26491787914844E-9;
1,3242262701228E-9;
1,50069993979242E-9;
2,21970639869127E-9;
3,37044353901853E-9;
4,26835854434961E-9;
4,11048830565437E-9;
2,59174433139603E-9;
1,97908084848584E-10;
-2,07355964433677E-9;
-3,34673551372013E-9;
-3,38861891825657E-9;
-2,66063453386068E-9;
-1,88977656598295E-9;
-1,52753632837854E-9;
-1,50961153777811E-9;
-1,44755431944842E-9;
-1,04015481831445E-9;
-3,40731138940459E-10;
3,2336418622508E-10;
6,81983306103823E-10;
7,88802411046135E-10;
9,74163557490275E-10;
1,52835889999075E-9;
2,38536726898182E-9;
3,08948834418611E-9;
3,09536845575696E-9;
2,17422242097278E-9;
6,15103905651421E-10;
-9,43092346316544E-10;
-1,91640505589401E-9;
-2,1173322361178E-9;
-1,80436102586926E-9;
-1,41918869878816E-9;
-1,24719485293409E-9;
-1,26454254040816E-9;
-1,24167683698667E-9;
-9,94664861148157E-10;
-5,51135904818079E-10;
-1,02740078556818E-10;
1,83597957440986E-10;
3,29125261693621E-10;
5,20062722940823E-10;
9,27464635001294E-10;
1,52571301506437E-9;
2,05731448324126E-9;
2,19955001890663E-9;
1,79247176040695E-9;
9,54823467518058E-10;
1,64243425520959E-11;
-6,91071951523662E-10;
-1,02335654256766E-9;
-1,06246184544854E-9;
-1,00435072149619E-9;
-9,93345405206641E-10;
-1,03837393109796E-9;
-1,04992445630499E-9;
-9,4244203245469E-10;
-7,19103629308855E-10;
-4,58209407868116E-10;
-2,35602337316248E-10;
-6,05889839462997E-11;
1,31872222479321E-10;
4,11261792709893E-10;
7,8161726634778E-10;
1,16158342015447E-9;
1,41788728761043E-9;
1,4451727135757E-9;
1,22274068699569E-9;
8,18284802591012E-10;
3,44637951212513E-10;
-9,17483019614612E-11;
-4,24249464482834E-10;
-6,41004341902644E-10;
-7,65794403900399E-10;
-8,33646777581501E-10;
-8,72003652684662E-10;
-8,83978767019796E-10;
-8,49523156489649E-10;
-7,47966514849262E-10;
-5,83455929030548E-10;
-3,85217187398624E-10;
-1,94082535283161E-10;
-2,80839746440228E-11;
1,48338785896731E-10;
3,94050065149653E-10;
7,38690207675709E-10;
1,13137486850123E-9;
1,42885541675305E-9;
1,4763104507979E-9;
1,20651237070471E-9;
6,91302562942409E-10;
1,16790331158447E-10;
-3,27465692146887E-10;
-5,62609817998463E-10;
-6,49246882947057E-10;
-7,11239383007709E-10;
-8,20531713962087E-10;
-9,43231050814635E-10;
-9,79011971689476E-10;
-8,64580030600382E-10;
-6,51024333043663E-10;
-4,6593586763228E-10;
-3,95061399552E-10;
-3,84825685501718E-10;
-2,55146653047076E-10;
1,60576896287446E-10;
8,51226141500855E-10;
1,57936513262518E-9;
2,00592142948902E-9;
1,90863336002036E-9;
1,33476018720443E-9;
5,694481479527E-10;
-5,81591574557055E-11;
-3,84121454019029E-10;
-4,84688557208995E-10;
-5,64291090900362E-10;
-7,55472214779817E-10;
-1,00920183682333E-9;
-1,15762443349271E-9;
-1,08787816382514E-9;
-8,65062427633135E-10;
-6,8629100246481E-10;
-6,9810956577312E-10;
-8,2753246999627E-10;
-7,96529998740629E-10;
-3,27833869115612E-10;
6,02917234547701E-10;
1,67980938209996E-9;
2,41822379270972E-9;
2,46998170554706E-9;
1,85570170972483E-9;
9,40151911660081E-10;
1,69033297310352E-10;
-2,26919727835006E-10;
-3,38925002510634E-10;
-4,31738153628854E-10;
-6,87766383091124E-10;
-1,04770615516853E-9;
-1,28947473047823E-9;
-1,25907214952638E-9;
-1,03055640162699E-9;
-8,59619242846557E-10;
-9,40667092408403E-10;
-1,18596739745268E-9;
-1,23873451226404E-9;
-7,33221647245745E-10;
3,83589177317889E-10;
1,73873855322709E-9;
2,72855376700913E-9;
2,90292509610239E-9;
2,26382306626975E-9;
1,23712051591494E-9;
3,56028247715225E-10;
-9,27203920147853E-11;
-2,1050582273007E-10;
-3,14788660306536E-10;
-6,2096840270653E-10;
-1,06359948072618E-9;
-1,38030322638219E-9;
-1,3815728563856E-9;
-1,1536162434056E-9;
-9,93057287279209E-10;
-1,13124132209454E-9;
-1,47027823767278E-9;
-1,59167889221169E-9;
-1,06400127395809E-9;
1,94058345266548E-10;
1,76296913037523E-9;
2,94669126951528E-9;
3,22320442496924E-9;
2,57407746087215E-9;
1,46853494679444E-9;
5,09708397811192E-10;
2,30479775462427E-11;
-9,90371632366674E-11;
-2,10234176434906E-10;
-5,55084612030682E-10;
-1,06042476798169E-9;
-1,43515100236724E-9;
-1,46574360097618E-9;
-1,24118026947593E-9;
-1,0912115542855E-9;
-1,27477827696381E-9;
-1,6869184131071E-9;
-1,86561630774277E-9;
-1,32646681390012E-9;
3,05756413852427E-11;
1,75540665791794E-9;
3,08622421425808E-9;
3,44295197976122E-9;
2,79559735142106E-9;
1,64214801803032E-9;
6,3187393930482E-10;
1,20138017108326E-10;
-3,93378768788392E-12;
-1,18090293325743E-10;
-4,90735606403065E-10;
-1,04380817190476E-9;
-1,46100675614221E-9;
-1,5136341344698E-9;
-1,29508267368673E-9;
-1,15692279042375E-9;
-1,37613519413376E-9;
-1,84380966944109E-9;
-2,06900985846435E-9;
-1,52837446320255E-9;
-1,07958770150705E-10;
1,72188195141871E-9;
3,15842095001951E-9;
3,57900059593141E-9;
2,94094580981563E-9;
1,7630629698545E-9;
7,24804347001517E-10;
2,01108368365566E-10;
7,78942138908218E-11;
-3,88860138777076E-11;
-4,28619971325328E-10;
-1,01217306034971E-9;
-1,46075416727665E-9;
-1,53194078196096E-9;
-1,32189085940546E-9;
-1,19643407783587E-9;
-1,44166659819615E-9;
-1,94952907497412E-9;
-2,21060701470397E-9;
-1,67571223913584E-9;
-2,22982327451111E-10;
1,66768913382744E-9;
3,17068255125007E-9;
3,63986406961736E-9;
3,02093541599323E-9;
1,83908565528642E-9;
7,92745393898275E-10;
2,66991310407523E-10;
1,44786581137781E-10;
2,74377903798127E-11;
-3,69252327366078E-10;
-9,70151075688435E-10;
-1,4385189596528E-9;
-1,5239779261552E-9;
-1,32365289249074E-9;
-1,20867817578135E-9;
-1,47445768820324E-9;
-2,01024961259092E-9;
-2,29740770094233E-9;
-1,77641266472E-9;
-3,16530474977585E-10;
1,59739293174904E-9;
3,13379738432667E-9;
3,63754794415832E-9;
3,04388658392497E-9;
1,87789630507191E-9;
8,39199340040606E-10;
3,17271197624555E-10;
1,99625473497509E-10;
8,46506855747263E-11;
-3,14420288845394E-10;
-9,21436775689947E-10;
-1,39843326329395E-9;
-1,49473829500924E-9;
-1,3076082256817E-9;
-1,20508137605554E-9;
-1,48234251672851E-9;
-2,03295108361277E-9;
-2,33712241883029E-9;
-1,83618490180155E-9;
-3,9379047759275E-10;
1,51513829673676E-9;
3,05854556767214E-9;
3,58194356023634E-9;
3,01812937477579E-9;
1,88260395194707E-9;
8,65594231906156E-10;
3,55829183151174E-10;
2,44469162788442E-10;
1,31236726650154E-10;
-2,63957267330666E-10;
-8,65264967365195E-10;
-1,34354911187195E-9;
-1,44902193551243E-9;
-1,2739666816588E-9;
-1,1825104939256E-9;
-1,46675661505289E-9;
-2,02163626250351E-9;
-2,337178874243E-9;
-1,86052587501805E-9;
-4,52081517276995E-10;
1,42345770126519E-9;
2,95010591067587E-9;
3,48389009001937E-9;
2,95335329052246E-9;
1,859115652775E-9;
8,76937463281616E-10;
3,84322790333135E-10;
2,76916610980443E-10;
1,68873660561029E-10;
-2,16220369892804E-10;
-8,06035571618234E-10;
-1,27882873620783E-9;
-1,38908146127536E-9;
-1,22655567595087E-9;
-1,14726406689549E-9;
-1,4336067272281E-9;
-1,9841006635564E-9;
-2,30432367222758E-9;
-1,85454909247334E-9;
-4,95912198313382E-10;
1,32445875131981E-9;
2,81642718838939E-9;
3,35141478167055E-9;
2,85669375217409E-9;
1,81326169287417E-9;
8,72462478373197E-10;
4,02030742378107E-10;
3,0186950455694E-10;
2,00016125868872E-10;
-1,71579318654963E-10;
-7,44036795747321E-10;
-1,20421004980025E-9;
-1,31808933674292E-9;
-1,17023429842969E-9;
-1,10008865428183E-9;
-1,38371043069831E-9;
-1,92401829937723E-9;
-2,24371366500622E-9;
-1,82300846307633E-9;
-5,26048186678388E-10;
1,22160307895676E-9;
2,66263154297276E-9;
3,19096538061224E-9;
2,73421618591836E-9;
1,7496004376757E-9;
8,57025216972878E-10;
4,11442692091724E-10;
3,19318200177494E-10;
2,22474595895198E-10;
-1,33018926076842E-10;
-6,81225204690977E-10;
-1,12524070897992E-9;
-1,24041035738764E-9;
-1,10643864721867E-9;
-1,04541283283729E-9;
-1,32229405632994E-9;
-1,84636048139193E-9;
-2,16144953493296E-9;
-1,77164633788048E-9;
-5,44691333917339E-10;
1,11719225281271E-9;
2,49456828253051E-9;
3,01031450055729E-9;
2,5915745629636E-9;
1,66998481548618E-9;
8,3305957821497E-10;
4,14426948998166E-10;
3,28610120691518E-10;
2,38871695783845E-10;
-9,76957269715671E-11;
-6,17173496117871E-10;
-1,04155434857771E-9;
-1,1565143640703E-9;
-1,03461684296804E-9;
-9,84573764901361E-10;
-1,25353374861722E-9;
-1,75502493062447E-9;
-2,06146807196833E-9;
-1,70261608708591E-9;
-5,51651506792573E-10;
1,01365561357298E-9;
2,31817730338721E-9;
2,81703993127266E-9;
2,43631010308384E-9;
1,57991563948802E-9;
8,00440648565984E-10;
4,10871592244666E-10;
3,31541270863502E-10;
2,48904688812193E-10;
-6,58424989371037E-11;
-5,5541013677694E-10;
-9,57136814952389E-10;
-1,068926645758E-9;
-9,60515306768344E-10;
-9,19488463798429E-10;
-1,17580879828942E-9;
-1,65235810201055E-9;
-1,94837898442153E-9;
-1,62155419304807E-9;
-5,52672896233588E-10;
9,10594190745277E-10;
2,13618632087441E-9;
2,61179119587389E-9;
2,26940569715171E-9;
1,48185131235472E-9;
7,62126747203513E-10;
4,0336445946619E-10;
3,317082696747E-10;
2,55883160787892E-10;
-3,80126451156183E-11;
-4,95687095727224E-10;
-8,71420139252624E-10;
-9,80859881364389E-10;
-8,8602972178506E-10;
-8,51168310495725E-10;
-1,09462424281844E-9;
-1,54396162715861E-9;
-1,82547462562844E-9;
-1,52947215024793E-9;
-5,43285286806321E-10;
8,11988836217081E-10;
1,95222973810426E-9;
2,40296160514396E-9;
2,09734205114128E-9;
1,37804872254818E-9;
7,18114558369287E-10;
3,90026018319957E-10;
3,26731337677115E-10;
2,56822978266149E-10;
-1,47131066866029E-11;
-4,37417743504179E-10;
-7,87415513060289E-10;
-8,92527042601587E-10;
-8,08943863692736E-10;
-7,81906772711735E-10;
-1,01134769245811E-9;
-1,43033932512298E-9;
-1,69683351727298E-9;
-1,43142896607973E-9;
-5,29082375832824E-10;
7,16458995178314E-10;
1,77005495873937E-9;
2,1930228159768E-9;
1,92327661686298E-9;
1,27209902589126E-9;
6,72106255191556E-10;
3,74708833156912E-10;
3,1723229415903E-10;
2,54157563511005E-10;
6,5232569077824E-12;
-3,81951801812371E-10;
-7,05361248058324E-10;
-8,04677798752132E-10;
-7,31358767848154E-10;
-7,11471943803309E-10;
-9,25794243115081E-10;
-1,31398668799479E-9;
-1,56470980918432E-9;
-1,32918645661252E-9;
-5,09958243216758E-10;
6,26450168396677E-10;
1,59141929570083E-9;
1,9855935293026E-9;
1,7491785868902E-9;
1,16350981150544E-9;
6,23492136282175E-10;
3,55446858097453E-10;
3,05098734098043E-10;
2,49259326503393E-10;
2,32151792598711E-11;
-3,30476853830605E-10;
-6,25788878650463E-10;
-7,19977009378713E-10;
-6,57823333064436E-10;
-6,43450080052786E-10;
-8,41972668510382E-10;
-1,1983104154258E-9;
-1,4313164290597E-9;
-1,22431125984903E-9;
-4,8652754233116E-10;
5,40910185890341E-10;
1,41906275405363E-9;
1,78449042651303E-9;
1,57879979505312E-9;
1,05698931577889E-9;
5,73960614130577E-10;
3,3465966172965E-10;
2,90685169707844E-10;
2,40613162980466E-10;
3,79896494052689E-11;
-2,81447802994351E-10;
-5,49916853125749E-10;
-6,37767132729948E-10;
-5,85957816622781E-10;
-5,76096222665982E-10;
-7,58969404588196E-10;
-1,08405205252787E-9;
-1,29844475875835E-9;
-1,11953937013196E-9;
-4,60564412659043E-10;
4,61950075136059E-10;
1,25343628427089E-9;
1,58858995325393E-9;
1,41210811434123E-9;
9,5173676449249E-10;
5,24362818024319E-10;
3,1249701284982E-10;
2,7385776680904E-10;
2,30114332195763E-10;
4,95310018319056E-11;
-2,36993310399487E-10;
-4,79369225762319E-10;
-5,60735721273799E-10;
-5,17662361897174E-10;
-5,12751900915112E-10;
-6,78205764233593E-10;
-9,72603555006449E-10;
-1,16998856018983E-9;
-1,01516449630989E-9;
-4,32911705885546E-10;
3,88990010319237E-10;
1,09788112854873E-9;
1,40150995886963E-9;
1,25373319181924E-9;
8,5106543714052E-10;
4,74869555489227E-10;
2,90443382859769E-10;
2,57413861556705E-10;
2,19329314285429E-10;
5,96067845590952E-11;
-1,96449440952681E-10;
-4,12705165793897E-10;
-4,86304852878022E-10;
-4,5222213486645E-10;
-4,51349683021936E-10;
-6,01136985368943E-10;
-8,66206396601508E-10;
-1,04511055091039E-9;
-9,1260973355722E-10;
-4,02248287103367E-10;
3,21308215587268E-10;
9,49528813752868E-10;
1,22429235904303E-9;
1,10132508376228E-9;
7,5375756338209E-10;
4,27291677349114E-10;
2,65936712131719E-10;
2,38394818816626E-10;
2,06320173976666E-10;
6,59076261345896E-11;
-1,58340339493109E-10;
-3,50335400767481E-10;
-4,19150051242743E-10;
-3,90785069905063E-10;
-3,92864132480106E-10;
-5,28191937062408E-10;
-7,62668518713506E-10;
-9,24698778143544E-10;
-8,1558598896903E-10;
-3,71519847488615E-10;
2,61367173413994E-10;
8,13072572733502E-10;
1,05935131214745E-9;
9,58513810583461E-10;
6,61150180303304E-10;
3,81053547697301E-10;
2,42954678720597E-10;
2,20461883003556E-10;
1,92527804457482E-10;
7,02188964895533E-11;
-1,24491985215523E-10;
-2,92577847665223E-10;
-3,56102232295981E-10;
-3,3464053873313E-10;
-3,37618960679233E-10;
-4,58854211276734E-10;
-6,67215334248637E-10;
-8,11106111280028E-10;
-7,20376595198361E-10;
-3,39901673590986E-10;
2,06166833688242E-10;
6,86206732096554E-10;
9,0443265002642E-10;
8,24388669582098E-10;
5,74067687232234E-10;
3,35943749437184E-10;
2,20045183615611E-10;
2,01626474140855E-10;
1,78368364807268E-10;
7,45726649435976E-11;
-9,5211604320001E-11;
-2,41304303851925E-10;
-2,96707878098916E-10;
-2,8252391738168E-10;
-2,87981888627573E-10;
-3,93270787119557E-10;
-5,75998744007696E-10;
-7,04232274899383E-10;
-6,31230292575524E-10;
-3,09835811328866E-10;
1,57254700367811E-10;
5,7156925799947E-10;
7,62816336412869E-10;
7,00207298519979E-10;
4,9330705675564E-10;
2,94142568914418E-10;
1,96039307314463E-10;
1,82890296346359E-10;
1,64298322469698E-10;
7,49869974253139E-11;
-6,83263048674739E-11;
-1,94439780992505E-10;
-2,44137433920807E-10;
-2,33458982724011E-10;
-2,42154743754117E-10;
-3,34763967047252E-10;
-4,92867110483564E-10;
-6,05039136788601E-10;
-5,47537636256105E-10;
-2,79873839814862E-10;
1,14547532889161E-10;
4,65357356438322E-10;
6,31988241328981E-10;
5,87325566047533E-10;
4,17797281227803E-10;
2,54609107864741E-10;
1,75301765883292E-10;
1,64794217255117E-10;
1,49949456403259E-10;
7,5847804192625E-11;
-4,51103501831794E-11;
-1,52162972802632E-10;
-1,96015226048922E-10;
-1,90298825503636E-10;
-1,99257834305628E-10;
-2,78796843790055E-10;
-4,14427071177453E-10;
-5,12770447051101E-10;
-4,69396574940544E-10;
-2,49895072893403E-10;
7,56327904845986E-11;
3,70446667878684E-10;
5,15345409870458E-10;
4,84023910357813E-10;
3,49546253774169E-10;
2,18223906981099E-10;
1,54773895000612E-10;
1,47122410091878E-10;
1,35361440508938E-10;
7,44808708962447E-11;
-2,56895795926534E-11;
-1,14392874503403E-10;
-1,52596128503796E-10;
-1,51442829341836E-10;
-1,62583259730759E-10;
-2,29958242555513E-10;
-3,436171975837E-10;
-4,28527609277784E-10;
-3,9705277231737E-10;
-2,21564644607874E-10;
4,31945770859977E-11;
2,8570086227571E-10;
4,08301393748829E-10;
3,89705291421819E-10;
2,85674777091086E-10;
1,84151872326925E-10;
1,3649836371303E-10;
1,30454183169167E-10;
1,21088775795533E-10;
7,33759539823877E-11;
-7,11245608157305E-12;
-8,15054722305568E-11;
-1,15085600118938E-10;
-1,15691952984927E-10;
-1,27471387073399E-10;
-1,84317950088188E-10;
-2,78184565702985E-10;
-3,50676656654189E-10;
-3,31019749130432E-10;
-1,94778865775043E-10;
1,52221779168705E-11;
2,10549899933077E-10;
3,13642565622382E-10;
3,05425569839178E-10;
2,29394365674977E-10;
1,53271703001772E-10;
1,17339415305761E-10;
1,14223670548392E-10;
1,07768650200861E-10;
6,98848766674897E-11;
6,1176179543651E-12;
-5,23589275804032E-11;
-8,05297677488962E-11;
-8,42792242202182E-11;
-9,62707658308872E-11;
-1,43873077814863E-10;
-2,20519347850834E-10;
-2,81531268949554E-10;
-2,71666551964989E-10;
-1,69830235127422E-10;
-8,12398720387027E-12;
1,44543730343162E-10;
2,2925893731466E-10;
2,31445978070622E-10;
1,79009793114755E-10;
1,24658372113709E-10;
1,00424977744834E-10;
9,88952658707109E-11;
9,5074452992041E-11;
6,65918405873254E-11;
1,76603449615463E-11;
-2,73344616504166E-11;
-5,08550175545939E-11;
-5,67335949029358E-11;
-6,8493254418617E-11;
-1,07170899827431E-10;
-1,68389457279227E-10;
-2,18842071360431E-10;
-2,17396792943038E-10;
-1,45703581013627E-10;
-2,75591177094814E-11;
8,70915121369956E-11;
1,55969229545585E-10;
1,64548025818133E-10;
1,33568955026866E-10;
9,97141734346892E-11;
8,41967709855425E-11;
8,46028627865888E-11;
8,2832834056481E-11;
6,33686918021805E-11;
2,85313411921562E-11;
-6,68404640466874E-12;
-2,68035357740783E-11;
-3,31702357534629E-11;
-4,47197152189652E-11;
-7,60068053104654E-11;
-1,23434146823534E-10;
-1,63593464580991E-10;
-1,67786424112376E-10;
-1,23408648404159E-10;
-4,38634002476169E-11;
3,8274095018584E-11;
9,17538765596948E-11;
1,05831030192838E-10;
9,35224290768039E-11;
7,62897216504937E-11;
6,91502015847742E-11;
7,19517997624262E-11;
7,16893547685109E-11;
5,86453024964471E-11;
3,53618321656223E-11;
1,19188487401086E-11;
-4,73850710486387E-12;
-1,40227304161588E-11;
-2,43877844739329E-11;
-4,82131749640114E-11;
-8,29755148613562E-11;
-1,13911430022655E-10;
-1,24209416804563E-10;
-1,03067737335004E-10;
-5,69371964750962E-11;
-3,59118479060739E-12;
3,7993849754578E-11;
5,73159544518102E-11;
5,935415583925E-11;
5,64870877345096E-11;
5,62534326499173E-11;
5,91741479238246E-11;
6,09912729299097E-11;
5,51976183327869E-11;
4,17616483138322E-11;
2,61155743661269E-11;
1,30367480906212E-11;
3,7732418334621E-12;
-7,20652859682253E-12;
-2,45497564710606E-11;
-4,78925230842398E-11;
-7,1941945931935E-11;
-8,63138249899736E-11;
-8,46964833748104E-11;
-6,7197865500583E-11;
-3,84295411447053E-11;
-8,38847717399953E-12;
1,44861299417537E-11;
2,89559629302143E-11;
3,82457354515122E-11;
4,44043586703799E-11;
4,82312036438497E-11;
5,07374217692802E-11;
5,00527516339488E-11;
4,58964620062517E-11;
3,88125306470452E-11;
2,83801353777131E-11;
1,80134333942882E-11;
7,74033127407077E-12;
-4,30853366604313E-12;
-1,80187660658025E-11;
-3,5554971958543E-11;
-5,38881431168716E-11;
-6,70476104179418E-11;
-7,33520448790258E-11;
-6,80325818326597E-11;
-4,80796677836827E-11;
-2,16578342242495E-11;
3,33232741919444E-12;
2,30100893094046E-11;
3,36283590086548E-11;
3,80722485842267E-11;
4,18558249074461E-11;
4,64126424482086E-11;
4,95661096815329E-11;
4,7847186681014E-11;
4,04186435937576E-11;
2,9842260666474E-11;
2,00085213578158E-11;
1,32162900234711E-11;
7,40305150473308E-12;
-3,2494200722637E-12;
-2,37808525312945E-11;
-5,25546675628476E-11;
-7,77916862530043E-11;
-8,83732437810538E-11;
-7,91380959765299E-11;
-5,09117034985262E-11;
-1,72814454666945E-11;
8,91501048723614E-12;
2,45038811471757E-11;
2,9979132330836E-11;
3,28212894955454E-11;
4,11608321712237E-11;
5,09956989242735E-11;
5,47611227718697E-11;
5,01819876752814E-11;
3,90528142636972E-11;
2,94259337485805E-11;
2,72478306720943E-11;
2,86893012105301E-11;
2,23659601060958E-11;
-6,05746342161889E-13;
-3,8722636230568E-11;
-8,1053662189151E-11;
-1,0740090407863E-10;
-1,0427194024161E-10;
-7,54570193175033E-11;
-3,50216434060903E-11;
-1,54869310943938E-12;
1,55363788511518E-11;
2,14101457658313E-11;
2,63013271442781E-11;
3,72279629994433E-11;
5,17839011814264E-11;
6,03553280448262E-11;
5,72120084868253E-11;
4,59749585675645E-11;
3,73069246461802E-11;
3,86824178114945E-11;
4,56007541839295E-11;
4,42034873727325E-11;
2,009304120704E-11;
-2,68113413561507E-11;
-8,19346381518845E-11;
-1,21331094774131E-10;
-1,24357113708021E-10;
-9,4556891443775E-11;
-4,94291580274394E-11;
-1,06481325319043E-11;
7,93289117454978E-12;
1,39853688573973E-11;
1,95684545051657E-11;
3,24654216949044E-11;
5,12397619591212E-11;
6,32373319555721E-11;
6,19220507114972E-11;
5,21477408335691E-11;
4,474568707218E-11;
4,86887301714564E-11;
6,0028410993593E-11;
6,16231560700887E-11;
3,71356345950136E-11;
-1,62863394625573E-11;
-8,22500943997634E-11;
-1,30183058105383E-10;
-1,38766105107638E-10;
-1,09195520714698E-10;
-6,09006057142829E-11;
-1,9019869041278E-11;
2,8218637309803E-12;
8,86284535979024E-12;
1,40071599181758E-11;
2,88553613533068E-11;
5,05569962925824E-11;
6,55023250636123E-11;
6,53646849065204E-11;
5,58796821013602E-11;
4,86400177266936E-11;
5,47671615363311E-11;
7,12782008661933E-11;
7,63659481858428E-11;
5,07155312729081E-11;
-7,09062399323852E-12;
-8,03640003154405E-11;
-1,36921210184115E-10;
-1,49294647573465E-10;
-1,19385174837411E-10;
-6,9092085195812E-11;
-2,48341013075912E-11;
-3,47348260641063E-12;
2,82762703927013E-12;
8,9521963961729E-12;
2,41217683634523E-11;
4,83052027763111E-11;
6,64915330183187E-11;
6,81210168358623E-11;
5,84014983777506E-11;
5,18528893662132E-11;
6,02266754766952E-11;
7,8654075726082E-11;
8,62366131975846E-11;
6,12498561554745E-11;
-1,1195729966387E-13;
-7,80755035181181E-11;
-1,3906862596971E-10;
-1,55792763472013E-10;
-1,26610570240561E-10;
-7,5424192812939E-11;
-3,0373142263583E-11;
-6,43720058255791E-12;
-9,32007786747345E-13;
4,18420748040371E-12;
2,19359456621886E-11;
4,70963412483024E-11;
6,64508454491577E-11;
6,89851468310421E-11;
5,89228926364571E-11;
5,35007959604747E-11;
6,3002765598581E-11;
8,42766562768499E-11;
9,52275380481264E-11;
6,97267456199539E-11;
6,35010350095859E-12;
-7,41697850263209E-11;
-1,38650899268994E-10;
-1,58575499365462E-10;
-1,31530238340148E-10;
-7,98282831365291E-11;
-3,44566701121898E-11;
-1,11816774590724E-11;
-4,51002130689796E-12;
2,17562461271687E-13;
1,73335559654971E-11;
4,42661745917979E-11;
6,46826030685137E-11;
6,91071677678983E-11;
5,94521954729269E-11;
5,30848448819505E-11;
6,56196740806621E-11;
8,8010287010779E-11;
9,88832177053875E-11;
7,53538900133326E-11;
1,15233186723675E-11;
-7,03009330692179E-11;
-1,3740404794195E-10;
-1,5954020293444E-10;
-1,32402611262105E-10;
-8,12551277272184E-11;
-3,63959528324272E-11;
-1,44158333510763E-11;
-8,34149491771244E-12;
-2,18847347360146E-12;
1,52953405580767E-11;
4,16710381209481E-11;
6,16791830266952E-11;
6,61076969971943E-11;
5,84981201146714E-11;
5,43570766177405E-11;
6,62075939172344E-11;
8,83055534162656E-11;
1,01086024769703E-10;
7,99232393244544E-11;
1,65755538746455E-11;
-6,68437510773518E-11;
-1,33925471660129E-10;
-1,56528481992763E-10;
-1,31371637066755E-10;
-8,21044402190539E-11;
-3,83968945902506E-11;
-1,54928814259583E-11;
-9,66929456215936E-12;
-4,51443219965045E-12;
1,26547888563153E-11;
3,92078526720537E-11;
6,00095862987697E-11;
6,4294750252361E-11;
5,73914555223509E-11;
5,28725013238365E-11;
6,45842194202549E-11;
8,97117834310972E-11;
1,03158722848358E-10;
8,20619638550399E-11;
2,12514405670818E-11;
-6,14642854979153E-11;
-1,29319537208432E-10;
-1,52326905010064E-10;
-1,29542450418187E-10;
-8,25644034633702E-11;
-3,89386070164282E-11;
-1,7100154115238E-11;
-1,2449274367282E-11;
-7,81058284141807E-12;
8,91862266151645E-12;
3,54592502050111E-11;
5,58671640040354E-11;
6,11971397310115E-11;
5,53423355983373E-11;
5,1577755104917E-11;
6,43302564119912E-11;
8,81201069690212E-11;
1,0211300968903E-10;
8,31038651404331E-11;
2,29307737601678E-11;
-5,74640767713138E-11;
-1,23134974415537E-10;
-1,46792130955711E-10;
-1,26378338775242E-10;
-8,14513891567443E-11;
-3,96305325910959E-11;
-1,89227775449598E-11;
-1,41566542409092E-11;
-9,8129048392488E-12;
6,83292544101475E-12;
3,29481334522602E-11;
5,29375535959715E-11;
5,83242423528739E-11;
5,22155427700706E-11;
4,90784868828316E-11;
6,25443410044247E-11;
8,66679387664988E-11;
1,0050963409877E-10;
8,22107365620117E-11;
2,48903390712277E-11;
-5,23858499465485E-11;
-1,1613909888227E-10;
-1,40027437430382E-10;
-1,20998850211329E-10;
-7,85575590328712E-11;
-3,93049118895739E-11;
-1,90147944991251E-11;
-1,47264699439908E-11;
-1,11532523155564E-11;
4,87866342751258E-12;
2,98625949728135E-11;
4,96279551537723E-11;
5,44768034281852E-11;
4,83423796447556E-11;
4,67660166017433E-11;
5,98333422870588E-11;
8,28990811836752E-11;
9,71823725506683E-11;
8,04377906670552E-11;
2,63944785787264E-11;
-4,72051246157586E-11;
-1,08518887190905E-10;
-1,31722014642043E-10;
-1,14133736193137E-10;
-7,50607497613161E-11;
-3,81002292123453E-11;
-1,88906028756469E-11;
-1,54841884736925E-11;
-1,12612973992719E-11;
3,58077046905377E-12;
2,64862690427837E-11;
4,55591638881225E-11;
5,0585780503959E-11;
4,68512988707682E-11;
4,53488920215911E-11;
5,62011932921087E-11;
7,93105905487359E-11;
9,35298822427111E-11;
7,75688825934074E-11;
2,73162077616119E-11;
-4,23767533934815E-11;
-1,01036357899361E-10;
-1,24091358585206E-10;
-1,08250060585862E-10;
-7,06828461746101E-11;
-3,65536732062494E-11;
-1,99040654776116E-11;
-1,66378579109971E-11;
-1,25841195347787E-11;
1,47919876382142E-12;
2,34073080171378E-11;
4,16004919971309E-11;
4,69845537435857E-11;
4,32009201916546E-11;
4,11806577173927E-11;
5,28101766667824E-11;
7,50385963498786E-11;
8,82621924346664E-11;
7,4673525000849E-11;
2,75838184480769E-11;
-3,79815281305101E-11;
-9,22818256320076E-11;
-1,1377085613433E-10;
-1,00346516307582E-10;
-6,68998960521422E-11;
-3,51911562109277E-11;
-1,96136060957962E-11;
-1,61196418752062E-11;
-1,21040006179846E-11;
5,03918821146767E-13;
2,07678683575011E-11;
3,79607178905924E-11;
4,28775772304627E-11;
3,92027197413615E-11;
3,85155378848234E-11;
4,93996179588466E-11;
7,0077014389556E-11;
8,34432798768172E-11;
7,04571959106344E-11;
2,75855031913316E-11;
-3,31165038654105E-11;
-8,54813012786642E-11;
-1,05939822522472E-10;
-9,33554032425055E-11;
-6,18820390133325E-11;
-3,25229906110665E-11;
-1,91771895226261E-11;
-1,59686344400191E-11;
-1,22719561044988E-11;
-1,46053741024346E-12;
1,79008882270471E-11;
3,4985109814928E-11;
3,97990703966118E-11;
3,60873049552933E-11;
3,53918554141743E-11;
4,65497773262524E-11;
6,59774898521518E-11;
7,8266927604036E-11;
6,68446382779441E-11;
2,66340946062046E-11;
-2,9785251094778E-11;
-7,68752475804088E-11;
-9,6134260906601E-11;
-8,6084882052662E-11;
-5,74479860454662E-11;
-3,07194623027571E-11;
-1,79956654569533E-11;
-1,55247504328872E-11;
-1,2833023587394E-11;
-1,31627262201528E-12;
1,56727344948353E-11;
2,97571000914422E-11;
3,56320430162479E-11;
3,29298411231406E-11;
3,17377244663843E-11;
4,20724421902098E-11;
6,03368096804976E-11;
7,23371796509291E-11;
6,1901610370713E-11;
2,50547644835403E-11;
-2,58490112684803E-11;
-6,9872912846683E-11;
-8,77368158931804E-11;
-7,77741550540154E-11;
-5,31114046035421E-11;
-2,90838222556508E-11;
-1,70280381209711E-11;
-1,57022214436531E-11;
-1,32982040291201E-11;
-2,07567736056626E-12;
1,3364532406728E-11;
2,65993845728248E-11;
3,20558040934254E-11;
2,89284526166291E-11;
2,92142042580994E-11;
3,87674699280305E-11;
5,47170762019783E-11;
6,68727404987138E-11;
5,76138066996794E-11;
2,43159884011314E-11;
-2,16052236938996E-11;
-6,21863293153086E-11;
-7,88914109208991E-11;
-6,99510027199642E-11;
-4,81697773893782E-11;
-2,69438839242408E-11;
-1,57438146576506E-11;
-1,45522818085191E-11;
-1,28465883171667E-11;
-3,18631602580893E-12;
1,23739378871656E-11;
2,46894255539036E-11;
2,78364926854652E-11;
2,57167117239127E-11;
2,60415857347315E-11;
3,54154074879129E-11;
5,05042353872773E-11;
6,03520947350544E-11;
5,3443435227389E-11;
2,393723016293E-11;
-1,82613785751673E-11;
-5,45398320451586E-11;
-7,02224018745434E-11;
-6,2914892829684E-11;
-4,31484080592264E-11;
-2,4448660595987E-11;
-1,50412202100805E-11;
-1,40495619441394E-11;
-1,23816973119715E-11;
-3,55083366434866E-12;
9,52283731718422E-12;
2,0706264500929E-11;
2,4919191327297E-11;
2,31753047954809E-11;
2,38150265001188E-11;
3,20202818602362E-11;
4,49553136521116E-11;
5,43263128196204E-11;
4,85379274622433E-11;
2,24097088525551E-11;
-1,46881644628451E-11;
-4,68158326901743E-11;
-6,2227979477867E-11;
-5,64889202140415E-11;
-3,82896179128373E-11;
-2,23591112537506E-11;
-1,38076619710531E-11;
-1,24235280343113E-11;
-1,20712582265018E-11;
-4,41293288123686E-12;
7,77686434180138E-12;
1,74190736980796E-11;
2,12755620654094E-11;
2,06724415326175E-11;
2,10160768275907E-11;
2,78901635855808E-11;
4,04356850111702E-11;
4,91611557837491E-11;
4,42978406046179E-11;
2,21571521439766E-11;
-1,16952683823861E-11;
-4,1836986244239E-11;
-5,43223709965661E-11;
-4,91923211218487E-11;
-3,53922586054238E-11;
-2,09386909930737E-11;
-1,29601584056824E-11;
-1,20749041723143E-11;
-1,10467803328873E-11;
-4,12838836754125E-12;
6,59159888646172E-12;
1,53816290689897E-11;
1,86138069813571E-11;
1,74194951130538E-11;
1,87712260912506E-11;
2,46292322292309E-11;
3,51361938776524E-11;
4,41481651855249E-11;
3,87287618909441E-11;
1,96165628066356E-11;
-8,70426867008533E-12;
-3,53243300585788E-11;
-4,6351627845153E-11;
-4,3140171976906E-11;
-3,02939538252356E-11;
-1,71887688257682E-11;
-1,17900278692435E-11;
-1,06700653086583E-11;
-9,93622903093184E-12;
-4,49357488023349E-12;
5,1965228624093E-12;
1,17436167474001E-11;
1,49327656650955E-11;
1,53763726839786E-11;
1,54099867676842E-11;
2,16551740498331E-11;
3,12967725500274E-11;
3,83165105424895E-11;
3,56517209648757E-11;
1,79265519114045E-11;
-7,0438627970884E-12;
-2,87961633161343E-11;
-3,96021494477591E-11;
-3,66622163215042E-11;
-2,61715298390348E-11;
-1,60100676834795E-11;
-1,07418836701596E-11;
-1,02787561485687E-11;
-9,65179171082503E-12;
-4,40002800271666E-12;
3,7146860016884E-12;
1,08568242440037E-11;
1,38128994792999E-11;
1,26916568790956E-11;
1,29885336316481E-11;
1,85740755567635E-11;
2,74898622767554E-11;
3,32404477491517E-11;
3,01399612049074E-11;
1,59877722867484E-11;
-5,0396722527391E-12;
-2,38490949077864E-11;
-3,37953706483496E-11;
-3,19813467139679E-11;
-2,27271270346269E-11;
-1,41825293201405E-11;
-9,84789955516824E-12;
-8,95351339396251E-12;
-8,42922850014169E-12;
-4,73218001518448E-12;
2,25601735565251E-12;
8,39174350185751E-12;
1,08213372394115E-11;
1,0684655575792E-11;
1,14072417521739E-11;
1,59771342405026E-11;
2,33987154126787E-11;
2,88832165221103E-11;
2,71527789636137E-11;
1,50616861750154E-11;
-4,02252314396295E-12;
-2,05417445819879E-11;
-2,77310434376254E-11;
-2,55106826447215E-11;
-1,89124889139514E-11;
-1,23476312927964E-11;
-8,45083783826671E-12;
-8,53630554190936E-12;
-7,49232662996972E-12;
-3,53659854859814E-12;
9,2156857962571E-13;
6,23517174866771E-12;
9,20768776593658E-12;
9,01838700798556E-12;
9,87753883725127E-12;
1,32737119220301E-11;
1,9057230547295E-11;
2,50992782081206E-11;
2,42555870301627E-11;
1,35328545749678E-11;
-1,64932397654579E-12;
-1,57010824611671E-11;
-2,28442513057408E-11;
-2,12003373274377E-11;
-1,59295506015186E-11;
-1,07624294929388E-11;
-7,71838219434325E-12;
-7,94965319554659E-12;
-7,10083528281189E-12;
-3,69217872976891E-12;
4,26347135106489E-13;
5,26655623057236E-12;
6,47708038608939E-12;
6,12022718011782E-12;
8,56967382779402E-12;
1,14105027083008E-11;
1,67611319624955E-11;
2,17393713680662E-11;
1,95114289451837E-11;
1,19444014675694E-11;
7,5581038989797E-13;
-1,13042375647057E-11;
-1,83995689930857E-11;
-1,81667324835095E-11;
-1,28657400081709E-11;
-8,69348053939901E-12;
-7,09524612042591E-12;
-6,74571317001146E-12;
-6,4112780053798E-12;
-3,51064467465307E-12;
3,45128515774592E-13;
2,83731018090773E-12;
4,03450409835748E-12;
5,08725317964239E-12;
6,16216860510364E-12;
8,83958127422039E-12;
1,41840831105933E-11;
1,80509060384632E-11;
1,71458620100132E-11;
1,08859103371027E-11;
1,33813100958251E-12;
-8,1936629444123E-12;
-1,45069764302471E-11;
-1,43983052839143E-11;
-1,08534129371021E-11;
-7,90780508603054E-12;
-6,26347480926812E-12;
-6,49749802553336E-12;
-5,51763397852193E-12;
-3,2517141823112E-12;
-1,05118270592038E-12;
2,2201693895444E-12;
3,44338399001196E-12;
3,62661838267613E-12;
4,41643312738098E-12;
6,51691380545815E-12;
1,13700631149591E-11;
1,38064116615428E-11;
1,37799589716498E-11;
1,04749197243717E-11;
1,86748099556707E-12;
-5,67977117375604E-12;
-9,75565432852732E-12;
-1,02615231655387E-11;
-8,44539260204908E-12;
-6,38727973285855E-12;
-4,59829273814902E-12;
-4,79062349816533E-12;
-4,81107209133413E-12;
-3,43891559814681E-12;
-1,5244043591846E-12;
1,31282544470327E-12;
2,96419817387979E-12;
3,15471531168401E-12;
3,90322783078387E-12;
5,41755637824525E-12;
7,74120110681825E-12;
1,09181131238728E-11;
1,20853136825718E-11;
8,60029269284675E-12;
2,16914558306851E-12;
-3,73650800342836E-12;
-6,40818037504945E-12;
-6,82836400926076E-12;
-5,74084119257086E-12;
-4,06417223388055E-12;
-4,04113941102728E-12;
-3,69196669712708E-12;
-3,61661674415752E-12;
-3,37621362451897E-12;
-1,38676042958038E-12;
2,76042943957697E-13;
1,93689594010477E-12;
1,70022341286368E-12;
1,63827705228348E-12;
4,39702778318298E-12;
6,63521473500643E-12;
8,48861009107035E-12;
9,25452139867309E-12;
8,20554718423388E-12;
3,94520816876596E-12;
-2,3279905167313E-12;
-4,47469404159901E-12;
-4,57319846870907E-12;
-5,53387145223194E-12;
-4,50046774321872E-12;
-3,0806149795984E-12;
-4,02568710802589E-12;
-3,94946467882349E-12;
-2,47038435899942E-12;
-1,77077888892198E-12;
-6,65218311487702E-14;
8,14317737687665E-13;
4,91940047209167E-13;
2,01539665873634E-12;
3,50019857466121E-12;
4,80311674731408E-12;
7,06314158887163E-12;
7,63267786670996E-12;
6,01885933592046E-12;
3,50558984075342E-12;
1,02084494762318E-12;
-1,49467620033746E-12;
-3,21178178895918E-12;
-2,736665598321E-12;
-2,29224220074744E-12;
-2,35319734615069E-12;
-2,69997422905956E-12;
-3,07569924012425E-12;
-2,80498603172019E-12;
-2,27846858606424E-12;
-1,02822135173182E-12;
-3,15912105727158E-13;
-1,0164421852419E-13;
2,78536836280016E-13;
1,2812739297073E-12;
3,19243701282655E-12;
4,66471840242824E-12;
4,99613522604946E-12;
4,2538935175128E-12;
3,62672673742678E-12;
2,23069631027357E-12;
1,62574859740557E-14;
-1,06291259247213E-12;
-1,376107327431E-12;
-1,34636363881914E-12;
-1,82662641732403E-12;
-2,1002743220284E-12;
-2,02624346813699E-12;
-2,94790673354754E-12;
-2,31341106215424E-12;
-8,03139246057169E-13;
-1,04366679212139E-12;
-9,71829000467121E-13;
5,45228180918771E-14;
1,0341763447911E-12;
1,81130062262547E-12;
2,74767064915523E-12;
4,00715724340838E-12;
4,27249081720732E-12;
3,76298459712258E-12;
3,375394632554E-12;
2,26858805195299E-12;
1,05354659992112E-12;
4,99845071446465E-13;
-7,90599527637116E-13;
-1,66451338453466E-12;
-1,68236329662134E-12;
-2,32329829772931E-12;
-2,05232361470064E-12;
-2,22582892451132E-12;
-2,9096222778421E-12;
-1,40469894432631E-12;
-1,82835544338973E-13;
-3,13723792836009E-13;
-6,23742953608139E-13;
-6,78134104640115E-13;
4,19638522159737E-13;
1,9673293281913E-12;
3,60361937953529E-12;
4,93398773394309E-12;
5,06586006158381E-12;
4,24513668599706E-12;
2,55476033308003E-12;
1,01739504461707E-12;
-2,46356537927477E-13;
-1,5972711069586E-12;
-1,24355490890102E-12;
-8,92441472631192E-13;
-2,58286327823989E-12;
-2,81572186895887E-12;
-1,83733589947318E-12;
-2,24081873840398E-12;
-1,64380754780158E-12;
-7,4525198192041E-13;
-6,69471634766036E-13;
1,2425024103628E-13;
5,33725647201326E-13;
1,12721593396516E-12;
3,18937250862869E-12;
4,74053298929317E-12;
4,73585666983974E-12;
4,47332899931532E-12;
3,1686106714656E-12;
1,51855823409096E-12;
7,39562976971425E-13;
-1,73017022647775E-13;
-6,19577015476687E-13;
-1,19763899991406E-12;
-1,6568675989388E-12;
-2,04775081195242E-12;
-2,53257464059987E-12;
-2,015952012792E-12;
-1,75751519976465E-12;
-1,43693395595497E-12;
-1,14458297191366E-12;
-1,19379364152344E-12;
-5,45929129239736E-13;
9,1514525582272E-13;
2,67299708729286E-12;
4,22517524128294E-12;
6,27883463676956E-12;
6,13857362247856E-12;
3,59357741791033E-12;
2,05143357783703E-12;
5,6267818085909E-13;
7,91784079541901E-14;
1,16260849247298E-13;
-4,96390691748923E-13;
-5,70067832236638E-13;
-2,10468554789624E-12;
-2,95281782290613E-12;
-1,89212720078811E-12;
-1,81562554596326E-12;
-2,18088839300162E-12;
-2,43363846790249E-12;
-2,09083403098781E-12;
-1,98780825056239E-12;
-1,29454554094973E-12;
2,03551041040207E-12;
4,88703579944141E-12;
6,34338829696973E-12;
6,78796005863179E-12;
4,86485313469866E-12;
2,6714075099904E-12;
1,42139543260555E-12;
4,42630811526455E-14;
-3,22599481105636E-13;
-3,06054768873152E-13;
-1,86617771568164E-12;
-2,40210392288788E-12;
-1,94593950720169E-12;
-2,88752156029146E-12;
-2,59752669527212E-12;
-1,84154682317313E-12;
-2,49297260653945E-12;
-2,19959076268381E-12;
-2,31139724602878E-12;
-1,94758415308276E-12;
1,1408721743747E-12;
4,44312647627455E-12;
7,22684136357045E-12;
7,41509043405403E-12;
5,10781078730989E-12;
3,41038789303143E-12;
1,79375281402792E-12;
6,8422950597958E-13;
-5,69544755246763E-14;
-3,59097982245775E-13;
-3,31073789417207E-13;
-2,02069680150791E-12;
-3,03732672129511E-12;
-2,0869767528366E-12;
-2,12813311602777E-12;
-2,84348881754814E-12;
-2,46745139403362E-12;
-2,47753315769568E-12;
-3,43390106182972E-12;
-2,45610766431478E-12;
9,82963241314487E-13;
4,16560547346595E-12;
6,20529952311646E-12;
7,61054179870507E-12;
6,15806788254547E-12;
3,11939624432146E-12;
2,24464377524109E-12;
9,52939033916977E-13;
2,09964578640658E-13;
8,80732741782243E-13;
-7,72964686752992E-13;
-2,42727330795305E-12;
-2,44524114857488E-12;
-2,40469284082374E-12;
-2,32599666265255E-12;
-2,16937622163295E-12;
-2,54472769504709E-12;
-2,77860971854438E-12;
-2,90977449585381E-12;
-2,94269852968768E-12;
3,48966826884428E-13;
4,38449465942954E-12;
6,22313382963214E-12;
7,20447004431887E-12;
6,03778187078221E-12;
3,79053451318916E-12;
1,61531389672242E-12;
5,3349787787279E-13;
7,70533899380879E-13;
4,09304905835671E-13;
-1,21613664815264E-13;
-1,9182941485817E-12;
-3,65740446202256E-12;
-2,7443550668086E-12;
-1,7188180467522E-12;
-1,95197098360703E-12;
-2,65256713961992E-12;
-3,51022553752754E-12;
-3,35222034149665E-12;
-2,68730397300277E-12;
-9,14675622563515E-13;
3,68119513996859E-12;
7,08887208174909E-12;
7,59745620030841E-12;
6,46078208218446E-12;
4,25640175492687E-12;
2,56694988096016E-12;
1,05168266635278E-12;
9,02320422198859E-13;
4,67703085279882E-13;
-1,11045268212805E-12;
-9,15255710247338E-13;
-1,69988975282351E-12;
-2,99578854999403E-12;
-1,7515455584165E-12;
-1,58655507280795E-12;
-2,91325544238021E-12;
-3,16615812971976E-12;
-3,92957347323294E-12;
-3,63833110574504E-12;
-8,60795135744922E-13;
2,965917300253E-12;
6,51875472098159E-12;
7,29421663158745E-12;
6,26716787287692E-12;
4,29385775368199E-12;
2,03366938959146E-12;
1,21344732406748E-12;
1,10534643074573E-12;
1,06516610852208E-12;
1,04538665894602E-13;
-1,60281130670358E-12;
-2,45303808111722E-12;
-2,11674821519068E-12;
-1,58659483239418E-12;
-2,26889455401913E-12;
-3,31032068113568E-12;
-3,8373054366497E-12;
-4,03757478552158E-12;
-2,91423690827504E-12;
-5,14770379937832E-13;
3,0763418875333E-12;
6,33080623588691E-12;
7,00996427916805E-12;
6,27552061868796E-12;
4,61376098790999E-12;
2,33447909436489E-12;
8,8416326564377E-13;
5,18664982380626E-13;
6,32227314525467E-13;
9,82259819375753E-14;
-1,91818111218581E-12;
-3,50313684605687E-12;
-2,40731788764698E-12;
-1,73325694979917E-12;
-2,24457682850374E-12;
-2,32663949956732E-12;
-3,55066858005245E-12;
-3,92346754198961E-12;
-3,31645924715175E-12;
-1,21349762174246E-12;
3,43866397655041E-12;
5,85098167237583E-12;
6,33105257118953E-12;
5,94874784447766E-12;
3,94539389940351E-12;
1,91778653804519E-12;
1,24959414658652E-12;
1,84063168886623E-12;
1,32912877161707E-12;
7,38256121351526E-13;
-4,66892556876888E-13;
-2,48276106915975E-12;
-1,82221424258339E-12;
-1,39853892793934E-12;
-2,10573372047715E-12;
-2,03285838104916E-12;
-3,30149402706094E-12;
-4,20639646832507E-12;
-3,3357303351654E-12;
-1,26088848223759E-12;
2,63437370605043E-12;
5,84765658066993E-12;
6,9568941240842E-12;
6,12886275628531E-12;
3,72719638035825E-12;
1,71600918668341E-12;
5,00549702024883E-13;
4,9285536433132E-13;
9,390777422253E-13;
-5,36847964775909E-14;
-1,31847099082736E-12;
-1,85858573772988E-12;
-2,14581426458278E-12;
-2,06696529693369E-12;
-1,75147394908939E-12;
-2,42684234189052E-12;
-3,69444849739299E-12;
-3,59552128645896E-12;
-3,15288735362914E-12;
-1,93298446851361E-12;
1,88385659441156E-12;
5,43377634810631E-12;
6,55679191761775E-12;
5,52804286197547E-12;
3,85146403337065E-12;
2,36517608321178E-12;
1,00678794117391E-12;
1,22850981287935E-12;
8,30004676744116E-13;
-4,63442088902844E-13;
-5,59314986501231E-13;
-1,664885958431E-12;
-2,51189491452429E-12;
-1,42906997268949E-12;
-8,01341272766167E-13;
-1,66199765496633E-12;
-3,40588683840732E-12;
-3,88791414625888E-12;
-2,7648256554276E-12;
-1,2615019568298E-12;
1,70738127774483E-12;
5,04589984539517E-12;
5,8483370163562E-12;
5,09715840548727E-12;
4,11411837552746E-12;
2,40799584845107E-12;
1,27358304701619E-12;
1,1212273986578E-12;
1,00434455315196E-12;
4,92743248833351E-13;
-9,23702056024459E-13;
-1,51127040986822E-12;
-1,46869523474688E-12;
-2,09738102117462E-12;
-1,62747081730244E-12;
-2,08423769717595E-12;
-3,31619424744724E-12;
-3,36832067769441E-12;
-3,13648983128613E-12;
-5,21412800770672E-13;
1,76741962762497E-12;
3,57780458000315E-12;
5,92649434628215E-12;
4,2131304380359E-12;
3,04442448231306E-12;
2,87109788825825E-12;
1,10861181810635E-12;
1,53570762078054E-12;
9,15467007951553E-13;
-1,66630106372005E-13;
3,13288428473588E-13;
-8,60879392029558E-13;
-1,35767178340041E-12;
-8,85885420978632E-13;
-1,29128571504943E-12;
-1,53324533300767E-12;
-1,98657312064299E-12;
-3,16079086905903E-12;
-3,18972087509993E-12;
-7,98494998006799E-13;
1,72574957105283E-12;
3,99011016285756E-12;
5,33370950718669E-12;
3,93722821682278E-12;
2,47886591148792E-12;
2,00598262290346E-12;
1,47045376604774E-12;
1,04460502046649E-12;
1,30402443025827E-12;
1,04053300389512E-12;
-9,80036108071658E-13;
-1,75379570046997E-12;
-1,17475263498414E-12;
-1,05307674832971E-12;
-1,26326634786785E-12;
-1,89841625501259E-12;
-2,47130561944119E-12;
-3,50303311907772E-12;
-3,34657595947257E-12;
-4,76747784258103E-13;
2,06937909853444E-12;
3,51527787789594E-12;
4,65292982520304E-12;
4,20763504973873E-12;
3,02310100155642E-12;
2,05452479990746E-12;
8,34227172702298E-13;
7,71381847547018E-13;
9,22215619464382E-13;
8,58838640195752E-14;
3,05038048718799E-13;
-5,57935224894075E-13;
-1,62856114394024E-12;
-6,30291123609953E-13;
-1,13154500249459E-12;
-1,69563434547267E-12;
-2,19855637122256E-12;
-2,89983606973727E-12;
-1,88260412078778E-12;
-1,20806151322095E-12;
4,59958434672719E-13;
3,3823485721468E-12;
4,6225066055616E-12;
3,31612839143979E-12;
1,99676440488264E-12;
2,25283551794644E-12;
1,74853052570272E-12;
1,27030385508654E-12;
1,44456061367915E-12;
8,49628240322813E-13;
4,25181295125903E-13;
-6,28916607157517E-13;
-1,60156470450395E-12;
-5,56034303115592E-13;
-7,01264660377089E-13;
-1,42290886394703E-12;
-1,32448524858856E-12;
-2,40286260363893E-12;
-2,29463650379766E-12;
-8,69798812891819E-13;
8,05122317051418E-13;
3,24738283804475E-12;
4,1831515955709E-12;
3,80252848072465E-12;
3,16623736623693E-12;
1,92801329556114E-12;
1,49850647338221E-12;
1,74973789197907E-12;
1,25754020747295E-12;
8,78911594749417E-13;
3,52470145159643E-13;
-8,12219064911106E-13;
-4,99698572015976E-13;
-5,57914700267895E-13;
-1,33810939225357E-12;
-1,02052676849728E-12;
-2,19757019587567E-12;
-2,61924300881521E-12;
-1,11399515293768E-12;
-5,00729321146629E-13;
2,22140963281762E-13;
1,9595121870053E-12;
3,57691290003005E-12;
3,05834194545743E-12;
2,14781782232458E-12;
1,6675065401677E-12;
3,62768600113555E-13;
3,63532682771374E-13;
9,94932180985132E-13;
8,58312743052772E-13;
2,11751009562092E-13;
-5,51834937689429E-13;
-3,65994727487063E-13;
-1,77605822677923E-13;
-4,98718235719321E-13;
-1,26946862211949E-12;
-2,13451970408917E-12;
-2,01187114121531E-12;
-1,9632548515449E-12;
-7,97060652373915E-13;
1,27557023394587E-12;
1,96790164676736E-12;
2,53208191640124E-12;
2,51893310472322E-12;
2,1222444426572E-12;
1,70109188841274E-12;
8,9170014705916E-13;
9,59598657091351E-13;
1,74645372375961E-12;
1,3979899314969E-12;
-1,04408502351925E-13;
-1,71881797486538E-13;
3,83299602349017E-13;
-2,9754509241396E-14;
-8,10351025501657E-13;
-9,98933392720652E-13;
-1,20354106585316E-12;
-1,88990419929876E-12;
-1,02175630817319E-12;
-8,09068906179699E-14;
5,99529184441773E-13;
2,35798962093118E-12;
3,04616772607756E-12;
2,92456371863494E-12;
2,50705510061861E-12;
1,83223495929087E-12;
1,45756243790052E-12;
8,63986181797358E-13;
1,18392316699182E-12;
1,10236089616143E-12;
-2,39089224638088E-13;
-5,54222278892092E-13;
-4,2148353757953E-13;
-6,72506057006791E-13;
-4,98046230015424E-13;
-4,18544168923016E-13;
-1,27444762068871E-12;
-1,94502356386703E-12;
-1,54917055991035E-12;
-2,99128771358011E-13;
9,18267095572643E-13;
1,98787442060061E-12;
2,63891033250111E-12;
1,97174776529143E-12;
1,59483937829593E-12;
1,25506873365923E-12;
7,48511531259128E-13;
1,12119090509583E-12;
8,06499483858508E-13;
2,72093931051962E-13;
2,4726707213418E-13;
-3,68069036428804E-13;
-6,19476407024405E-13;
3,36714433337188E-14;
3,41065894546204E-13;
-3,92854219645329E-13;
-1,54325056904601E-12;
-1,61819021746492E-12;
-1,49094317082689E-12;
-7,23661784809726E-13;
1,36659840603712E-12;
1,80148808885272E-12;
2,22564432942414E-12;
2,44346555465623E-12;
8,01412664802701E-13;
1,04967508081604E-12;
1,4045291645409E-12;
8,3422135401445E-13;
1,23735133506544E-12;
6,18008869991051E-13;
6,43563464755678E-14;
4,62419662328519E-13;
7,12278613242965E-14;
-1,0194355613831E-13;
2,96599386063222E-13;
-1,79285623367438E-14;
-6,85373175416182E-13;
-1,29349891682089E-12;
-9,80726597575731E-13;
-2,66027563118806E-13;
2,08394463415479E-13;
1,74583708621454E-12;
1,57168399342711E-12;
9,06317375282454E-13;
2,26615958084397E-12;
1,20345788462122E-12;
2,74385062635389E-13;
1,65173877364026E-12;
1,09634775753906E-12;
2,00878095504188E-13;
3,83653965902137E-13;
3,39850107782684E-13;
5,08865604232415E-14;
-4,65487634349273E-13;
-4,27568112708378E-13;
1,81243680054502E-15;
-6,38369702389417E-13;
-1,16509970016661E-12;
-7,18657446396291E-13;
-3,83262010755114E-13;
1,00355715782915E-12;
1,8630123721581E-12;
1,42350933584697E-12;
1,31338264047067E-12;
1,20672153367636E-12;
1,59288126876113E-12;
6,97275300990382E-13;
-3,49964161019304E-13;
7,62761485093625E-13;
1,06676974427426E-12;
1,97581202235372E-13;
4,23778740797907E-13;
5,39069404931516E-13;
-2,58940192590199E-13;
-4,57769875252614E-14;
9,11137485156969E-14;
-7,06420324945953E-13;
-1,06699215709833E-12;
-5,48114883151074E-13;
2,47911136373882E-13;
3,87004043687094E-13;
1,41719816287118E-12;
1,86125569622805E-12;
7,05904352840781E-13;
1,08222778480149E-12;
1,07291710012948E-12;
5,16798845955393E-13;
6,27187319275816E-13;
6,58719572599692E-13;
9,72517778073122E-13;
2,04656833346095E-13;
4,56018147900484E-13;
7,45659648077237E-13;
-5,00303839346587E-13;
2,81713461437654E-13;
3,64599665299796E-13;
-8,43427671489369E-13;
-3,55967581741347E-13;
-6,55326254320898E-13;
-1,442987557379E-12;
-1,50098415547847E-13;
1,18560153749146E-12;
1,42970359389688E-12;
1,41980805609794E-12;
1,19869413811506E-12;
1,02836245581173E-12;
4,92955798950547E-13;
8,32917627069302E-14;
5,94293108650209E-13;
1,11760882155634E-12;
1,12231331096731E-12;
4,81894329172303E-13;
-3,30746402469079E-13;
-3,99506002108001E-13;
-2,74350708053396E-13;
-3,9311778944311E-13;
-5,46494983301563E-13;
-6,391946270525E-13;
-9,01785166329585E-13;
-4,04043424279723E-13;
6,19502165721151E-13;
1,61971119075562E-13;
2,86491425712346E-13;
1,20187667423546E-12;
9,12862876819584E-13;
2,57877148722442E-13;
4,38860326978103E-13;
1,70330258168539E-12;
8,85209641367287E-13;
-3,54651766809707E-13;
7,0734181890868E-13;
5,28650877852944E-13;
9,21281450355592E-14;
1,32400577098791E-13;
7,06444444601961E-14;
5,49507457322331E-13;
9,85171047699528E-14;
-5,58811283292935E-13;
-1,0572493710725E-12;
-1,14995739541188E-12;
-2,97435113355461E-13;
4,91511038429968E-13;
8,91047880025982E-13;
1,38413934309565E-12;
1,62281310229886E-12;
1,02532727562648E-12;
4,10322501864606E-13;
-1,27616946647905E-13;
3,54037538777557E-13;
9,86961663587787E-13;
3,22289351189093E-14;
1,28438892178514E-13;
7,34235013849845E-13;
3,46748082378218E-13;
7,32335987965306E-13;
7,71216266691754E-13;
5,44456946673962E-15;
4,21471750527008E-13;
3,36108707376232E-13;
-3,92906887704299E-13;
5,35828019349909E-13;
7,72432379078789E-13;
2,85166941014582E-13;
7,67410350973598E-13;
6,87132216570641E-13;
3,52424826266699E-13;
3,38027644805294E-13;
5,99563808630507E-14;
2,83643608546087E-13;
7,83055636099826E-13;
-1,80687983785326E-13;
-3,81126045014842E-13;
4,2866157412785E-13;
-2,01090620518147E-13;
-2,20561548040848E-13;
1,12931711634628E-13;
3,80246590452066E-13;
-9,43604849947057E-14;
-1,15575261337056E-12;
2,14351476283012E-13;
8,76050068591662E-13;
5,94241745496954E-13;
1,10274480694901E-12;
7,94989065413847E-13;
8,37450436325272E-13;
1,10344380053988E-12;
4,56930288631613E-13;
-1,5223543068765E-13;
9,85277799641023E-13;
1,53201493246595E-12;
3,65356675661094E-13;
5,2736873508451E-13;
6,96223186352942E-13;
2,03347817734929E-13;
2,89833485814284E-13;
3,1549167112146E-13;
-2,54734528155936E-13;
-6,18733025489561E-13;
6,22526148444005E-13;
9,62451653107889E-13;
-1,73930074412749E-13;
1,47032379806444E-13;
2,84614004406113E-13;
4,01964614647922E-13;
1,07687618599658E-12;
4,76406694158902E-13;
4,9295685248675E-13;
4,69915482465369E-13;
7,11950816353166E-13;
1,87788403482323E-12;
9,60231063427457E-13;
8,42416055911379E-14;
7,13060146362055E-13;
1,07371648639714E-12;
1,10209898129644E-12;
5,35215179645694E-13;
-5,42975868683024E-13;
-3,19840831533625E-13;
8,55067244756156E-13;
8,0541017640387E-13;
2,77460511729501E-13;
4,10892004096136E-13;
1,16922742167479E-12;
8,18830569509008E-13;
3,14213846258386E-13;
1,37666545926563E-12;
7,40761627944197E-13;
5,86863769560919E-13;
1,87918298571285E-12;
6,03019235731873E-13;
-2,41499846619895E-13;
2,45038765133682E-13;
-3,02548675773356E-13;
2,44682414026733E-13;
7,57299596967015E-13;
4,72164692740103E-14;
7,52013144744863E-13;
8,17382037889555E-13;
5,07625862241267E-13;
6,70302443374379E-13;
-4,49682492105497E-13;
-4,11676991196945E-14;
5,56904793787668E-13;
1,81714372338757E-13;
6,69384620408576E-13;
9,2868642020685E-13;
8,87157266323353E-13;
8,9338086770822E-13;
1,32190845497534E-12;
9,14089086373359E-13;
1,40974732140171E-13;
7,77654002988491E-13;
4,68026093686267E-13;
-3,50402082422843E-13;
4,28788372169038E-13;
9,36150962385056E-13;
3,62463544337195E-13;
-1,77699430961022E-13;
-3,3631049209559E-13;
2,13413989953656E-13;
3,93184005016079E-13;
-8,60546438540357E-14;
2,48703745287348E-13;
6,00983653748526E-13;
6,39149302955163E-13;
2,78309842390253E-13;
-7,88932915447005E-14;
9,08502536497741E-13;
9,27551935466232E-13;
2,01453039230819E-13;
5,52227205713064E-13;
6,25512549138869E-13;
5,21696880482766E-13;
3,2153174279503E-13;
6,21085584994171E-13;
8,6687280725199E-13;
1,07804004521373E-13;
7,0022575720314E-13;
9,52438111368823E-13;
-2,9313751747815E-13;
-3,70910245995097E-13;
-3,69132545409859E-13;
-2,64405304264155E-13;
2,8108431979699E-13;
2,97757281673153E-13;
4,29945333989929E-13;
-5,17730248561021E-13;
-1,1822939191734E-12;
-2,72930395337193E-13;
2,17969210252571E-13;
8,35812478059303E-13;
6,89346655181086E-13;
3,7237195183067E-13;
1,18341846289006E-12;
-1,23918769256643E-13;
-8,03188241576249E-13;
8,20437495315209E-13;
7,32625580618738E-13;
2,02838325168383E-13;
-1,42792473281767E-13;
6,88110864884968E-14;
7,69678695538088E-13;
1,63518500813845E-13;
2,60589987583645E-13;
7,53191430127915E-13;
6,60297306809289E-13;
9,63628659007643E-13;
1,07999226378863E-12;
7,43511336484772E-13;
6,13208716918948E-13;
4,89585395879471E-13;
5,80592315571016E-14;
3,6134265914159E-13;
1,52305729049628E-13;
1,93041461917008E-13;
1,06632933423659E-12;
-2,75585272174552E-14;
-1,47716967387529E-13;
2,94131499327404E-13;
-2,4318747239928E-13;
1,02626658328785E-12;
7,376548384323E-13;
-6,37980979176396E-13;
2,01847132282082E-13;
3,19337181168094E-13;
5,81804746254981E-14;
4,57305715439339E-13;
2,93049432212393E-13;
2,91551159124776E-13;
3,45850938855907E-13;
5,2331910719143E-13;
3,16251434730062E-13;
-2,33391079173599E-13;
3,91342007036731E-13;
4,4811768135357E-13;
-5,1820037512778E-13;
-1,33609571716378E-13;
7,89734632165502E-13;
6,7619964984302E-13;
3,98925851429997E-13;
2,70964935049045E-13;
1,34624870568735E-13;
4,25915472245939E-13;
4,25971351780632E-13;
8,48596624603512E-15;
-1,3155915203114E-13;
2,09030477962247E-13;
8,58471773857835E-13;
-3,60940227390403E-15;
-4,09862977349777E-13;
1,24854091692769E-12;
9,98860620561831E-13;
5,6022142559561E-14;
6,63241234534524E-13;
1,00908827604154E-12;
8,76898760890454E-13;
5,45323262436886E-13;
4,70450420764972E-13;
7,23118421286072E-13;
3,77809279213076E-13;
-9,02618920921539E-15;
3,01322164483317E-13;
3,61486652787051E-13;
2,76519548911212E-13;
-2,92947055469103E-14;
-2,82903254259318E-13;
3,51494514351187E-13;
2,28747916629334E-14;
1,00399767517238E-13;
8,49102667093915E-13;
2,35389076704648E-13;
5,77655421903689E-13;
1,04140459186273E-12;
6,64960004937349E-13;
3,69649678457959E-13;
-1,28238628196748E-14;
7,38752786648093E-13;
1,22267286777601E-12;
4,54154377130551E-13;
1,11972431079094E-13;
5,65389102738835E-13;
2,29546992653429E-13;
-6,57351378045176E-13;
4,83749210732391E-14;
5,55406333465405E-13;
3,09701764147286E-13;
2,33367383702642E-13;
-2,2311755595488E-13;
1,07308388878364E-13;
7,14776018814255E-13;
6,51136373528804E-13;
2,30008084567205E-13;
2,28703500040175E-13;
3,44773095709786E-13;
3,24617941948102E-14;
4,19540238867611E-13;
2,45956046265502E-13;
2,66376028090696E-14;
5,13563644359148E-13;
4,56720797630659E-13;
1,97663442111613E-13;
4,2601448009512E-14;
8,59837655866043E-13;
2,32117203027195E-13;
-5,26470169353496E-13;
5,74024337981175E-13;
1,09584175221822E-13;
-2,5253228159396E-14;
1,06961549370605E-13;
1,19420510866574E-13;
7,22833025177551E-13;
4,83165260643557E-13;
1,02163420271955E-12;
9,28625547619171E-13;
4,86442341054418E-13;
9,07137154839371E-13;
1,922267677308E-13;
-1,62756233542025E-14;
1,66711189019983E-13;
-5,00133563951582E-13;
-4,00623066816385E-13;
9,05703065322167E-14;
-1,28721365027335E-13;
-1,0309745844397E-13;
5,73370844618664E-13;
3,7229224045139E-13;
3,91710842619051E-13;
7,47293915016069E-13;
2,17007534567392E-13;
7,40587047739584E-13;
6,77565195788375E-13;
-2,4745083376077E-13;
3,58837485056806E-13;
7,93578194840101E-13;
7,16875869842393E-13;
9,24848904366984E-13;
6,05669168662166E-13;
5,29731884615677E-13;
1,14676937290274E-12;
8,58144509575144E-13;
-3,77734897886162E-14;
-4,07889222429029E-13;
-2,66114067272996E-13;
2,57206147707686E-13;
2,98690087678638E-13;
2,17138558453494E-13;
2,42411424411552E-13;
-4,48928613291602E-13;
-4,86425203148965E-13;
2,53394514259992E-13;
4,30798563174394E-13;
8,95051733310871E-14;
3,36124976983542E-13;
8,23098047236696E-13;
-1,29505596352435E-13;
1,16632038451121E-13;
1,27589761405307E-12;
3,8779085487569E-14;
1,49871504563373E-13;
1,52818376804788E-12;
6,06783144806519E-13;
-5,04352551691675E-15;
-1,00179834527511E-13;
-5,19889979762296E-13;
-1,40010010097199E-14;
3,00943947641214E-13;
5,31049695755133E-13;
9,33263344107035E-13;
8,29341655908582E-13;
8,1686627035513E-13;
3,24133470266889E-13;
-2,47362308651635E-13;
2,10413248821259E-13;
1,92572443437835E-13;
-3,15757162873637E-13;
-3,87057083773945E-14;
1,15733337218151E-13;
4,48587988354401E-13;
1,12797392980201E-12;
8,3659097771805E-13;
1,12230728852269E-13;
-4,00731972623316E-13;
-1,30739089237925E-14;
8,86196707556608E-13;
1,26771884599594E-13;
-4,77126692525809E-13;
6,56850394252994E-13;
5,13842832512356E-13;
4,3198473380346E-13;
1,22432242147557E-12;
6,13596384969999E-13;
8,16437757967559E-13;
7,97882948950434E-13;
-2,07747924702692E-13;
3,81958862840217E-13;
8,01187081023574E-13;
9,529584072688E-13;
8,36066261789792E-13;
-4,83527745706165E-13;
5,11984881388118E-13;
1,5079212105304E-12;
-2,55332652793281E-13;
-2,99248500117784E-13;
-2,0366741054689E-13;
-6,18318783796536E-13;
-7,11013889217748E-15;
-3,87131171098392E-13;
2,26056853215671E-13;
1,0661710279071E-12;
5,40024022847204E-13;
5,87167444082885E-13;
9,18235025810398E-13;
9,01365811429635E-13;
8,30867128807019E-13;
8,02108716262755E-13;
5,44586580619658E-13;
3,30835532859883E-13;
9,96314495572429E-13;
1,24043441306995E-12;
4,62982423639462E-13;
2,6415733684103E-13;
-7,49267236596264E-14;
-1,49551518578304E-13;
8,36606660799069E-14;
-3,14071918869124E-13;
-1,73869829291525E-13;
5,93659078086898E-14;
6,35939804396343E-13;
4,40037135406929E-13;
-7,34150532823059E-13;
1,26360437562172E-13;
9,12000183387954E-13;
1,92951436159342E-13;
4,0684012300688E-13;
6,84477437563609E-13;
4,64145024393502E-13;
7,32262178899858E-13;
2,458526763554E-13;
-1,24032194838185E-13;
2,42238428561231E-13;
3,55282499731656E-13;
1,03752685072743E-12;
4,36561072328476E-13;
-5,12400352024307E-13;
6,05612680694055E-13;
9,61199452586621E-13;
7,46152061762928E-13;
8,04735814468048E-13;
1,09076613934138E-13;
-5,84773641494953E-14;
2,47713359497158E-13;
7,67650817858562E-13;
1,0867548754122E-12;
5,40580207151915E-13;
5,71086837513035E-13;
1,00164675402611E-12;
5,97311655818446E-13;
3,09564711662675E-13;
9,66190449829757E-13;
6,82415018718622E-13;
2,84925314202173E-14;
5,94437787710123E-13;
1,72239966291227E-13;
-2,00452789203307E-13;
4,11137122202539E-13;
5,59409492551146E-13;
7,65038092984785E-13;
5,87512056744621E-14;
2,99078654014028E-14;
7,47212262706247E-13;
7,64639499952109E-14;
5,95930268278259E-14;
4,76151701836811E-13;
6,5053845820085E-13;
1,64550915118463E-13;
-2,28212831066717E-13;
9,18985774827657E-13;
1,02982551697929E-12;
5,79520679926864E-14;
4,84369529264449E-13;
8,38522375673929E-13;
-3,38400248111117E-14;
6,07891562615261E-13;
1,29940502536593E-12;
-2,62267492562751E-14;
-4,10441288384774E-13;
6,5999742991594E-13;
7,12537776951651E-13;
-5,19022435812525E-13;
-3,23097236878876E-13;
6,82073518044922E-13;
3,96413852384439E-13;
5,61593158492152E-13;
5,9177239972504E-13;
-2,30983129553936E-13;
3,17276871664354E-13;
7,87729405137361E-13;
2,27836231405468E-13;
2,70028172214012E-13;
6,3185956656253E-13;
8,99568308902494E-13;
3,36676692585836E-13;
-4,58187717138407E-13;
-4,21634228305827E-14;
3,57795730265109E-13;
4,12376260819459E-13;
5,17235431081266E-13;
2,15300267375585E-14;
-2,68689118015518E-13;
1,1189507364186E-13;
8,65025984936876E-13;
8,74381418823357E-13;
-2,70861291539544E-13;
2,2981812671232E-13;
9,38189057607383E-13;
4,19619937480196E-13;
1,09852018866807E-12;
7,1732315387251E-13;
-1,58233630659865E-13;
3,90930551431388E-13;
-1,64474768190531E-13;
-1,59983015447006E-13;
5,45926248137591E-13;
1,17775224668343E-13;
7,04227082371421E-13;
1,4334308680104E-12;
9,27481944860093E-13;
3,40675021789073E-13;
2,54731329751549E-13;
4,12128507119791E-13;
3,81510492445507E-13;
6,13979030620255E-13;
2,97916565039397E-13;
3,70312089820639E-13;
1,36233110949067E-12;
7,97227406428692E-13;
-4,98970862899919E-14;
3,82916721361691E-13;
8,09332761008395E-13;
3,90465112048497E-13;
1,2871587715918E-13;
6,83941346659701E-13;
6,39944194953669E-13;
1,1795633479429E-13;
4,16201590090481E-13;
7,80879628072514E-13;
3,42172337809742E-13;
6,14287815355445E-13;
9,99967556732507E-13;
8,66335865173273E-14;
1,94141185741102E-13;
1,11618229711532E-12;
7,91602619776446E-13;
4,7609781426927E-13;
8,38507885112379E-13;
8,48547806371988E-13;
6,90234314576735E-13;
8,72799243756067E-13;
6,4500116190441E-13;
1,97659198989446E-13;
-1,55490169474775E-14;
-2,15023990530156E-13;
2,24085433115841E-13;
5,26771353516328E-13;
6,48933798355183E-14;
-1,29505865183067E-13;
6,30192658687445E-13;
8,65550354772183E-13;
-5,33211127056081E-14;
-2,84464528897353E-13;
4,18580706228746E-13;
9,58460573532299E-13;
4,0121498964976E-13;
4,17577428447982E-13;
8,80930022526228E-13;
6,14651104237758E-13;
9,8277420070017E-13;
7,10380424453002E-13;
3,80749439732155E-13;
9,51635152915785E-13;
5,17577226410829E-13;
9,22062508464202E-14;
-1,56501223381185E-13;
-5,11878853946327E-14;
9,65367989274339E-13;
1,29837637168235E-13;
-4,37824537295296E-13;
7,89078873951486E-13;
9,74456611668926E-13;
4,71109196501593E-13;
5,06656683829056E-13;
9,80469298316029E-13;
4,69402106344059E-13;
1,67427453906209E-13;
4,06365965504118E-13;
3,24183963653238E-13;
8,52030926208515E-13;
6,3886338620458E-13;
1,00614583841518E-13;
3,71096238835206E-13;
4,47501367503526E-13;
-5,20000307428045E-14;
-2,43687272950344E-14;
-5,40371377025237E-14;
-2,8950973039232E-13;
5,93188635218739E-14;
2,33812693959237E-13;
6,63744995410041E-13;
2,16442300049674E-14;
5,88615076603614E-14;
3,99676779773139E-13;
-1,981708844316E-13;
1,30636578204577E-12;
7,04387016789903E-13;
-4,57529896073614E-13;
2,77010016241368E-13;
-1,44768532771979E-13;
2,699341503814E-13;
5,34876279377594E-13;
7,31816753228561E-13;
1,08333155217704E-12;
8,4657308045578E-13;
9,09492660229816E-13;
2,14843790518392E-13;
3,69549988888768E-13;
1,02433736914953E-12;
5,37890200965191E-13;
8,58304812202955E-14;
3,68573109462255E-13;
6,60655495453592E-13;
7,90160699320106E-13;
1,154011678264E-12;
4,97246882157787E-13;
-8,11158962658947E-14;
-4,16068822792248E-14;
2,57009422629523E-13;
8,46375539927097E-13;
6,0524367701235E-13;
4,00492008884258E-13;
5,5269556094691E-13;
8,77312427357851E-13;
9,0860177484895E-13;
6,79585989528949E-13;
7,4783158741171E-14;
-1,29415228717731E-13;
9,44938795277992E-13;
6,80157346240264E-13;
2,39628192768726E-13;
-1,61770202396211E-13;
-2,66789449814926E-13;
9,33682019443597E-13;
3,59511967062035E-13;
9,06889308414496E-14;
8,87421418486133E-13;
1,0513361285546E-12;
7,86527970672034E-13;
4,7779695230495E-13;
1,0127722860932E-12;
7,53458505564623E-13;
2,42827894384152E-13;
4,48976475441196E-13;
4,20144425953794E-14;
-2,59686117599908E-13;
3,99869265204386E-13;
3,82779521447281E-13;
-3,73028903010883E-13;
1,12215546434812E-13;
2,77017111325676E-13;
6,76384449036089E-14;
7,97888285639087E-13;
1,09691263743241E-12;
6,6512510030368E-13;
4,04035847379702E-13;
7,90412826071599E-13;
5,54271406595288E-13;
-1,55062194644736E-13;
2,70184323629396E-13;
1,07926739642274E-12;
3,48620028814451E-13;
-1,34914277405546E-13;
3,45990060780631E-13;
3,07031033876989E-13;
1,04145901018574E-12;
5,883584456192E-13;
-1,5435211906463E-14;
9,20572942523949E-13;
7,68898770971018E-13;
6,99889712532436E-13;
5,41769340774842E-13;
-3,9203645733999E-13;
-2,22192858820644E-13;
4,71910131724384E-13;
1,81001268928762E-13;
2,16692997439954E-13;
7,27098966719618E-13;
6,6894723963098E-13;
7,79601760100672E-13;
9,1720834078675E-13;
6,76440124660258E-13;
2,85443379041651E-13;
2,16282350411792E-13;
-2,54763960533301E-14;
-6,00284319646716E-14;
5,00551043208324E-13;
2,72409421108432E-13;
3,19770713658908E-13;
3,68482390875078E-13;
-3,86048242452046E-13;
-1,40809817647075E-14;
3,00522644702687E-13;
2,22721238982175E-13;
5,94829940845963E-13;
3,17951992608529E-14;
4,4578842699727E-14;
6,35358311709683E-13;
3,32582674288776E-13;
1,15613412600406E-13;
8,72838698618167E-14;
4,77888595410554E-13;
6,14846466688745E-14;
-5,50123098657841E-13;
6,75377982737614E-13;
1,04303672731492E-12;
6,03678880987865E-13;
6,58174499252235E-13;
4,90562103195091E-13;
8,50873909072073E-13;
6,7108586252782E-13;
-3,39315426776555E-14;
5,80331308570475E-14;
1,34346928949647E-13;
6,00111615382569E-13;
1,06406221898595E-12;
6,82654364119285E-13;
8,98760546167499E-13;
7,3919814490017E-13;
-6,67128283222064E-14;
2,24292256121642E-13;
5,98211064409424E-13;
3,58506868061094E-14;
4,57134807179156E-14;
5,97615369000347E-13;
3,88192793034728E-13;
5,7631354763207E-13;
6,93006519149978E-13;
4,59970160513871E-13;
2,8904886211825E-13;
3,31186454680499E-13;
6,60556586776018E-13;
2,79597073836246E-13;
5,15940098762254E-13;
5,05359005109553E-13;
8,40278035457909E-13;
1,15641403629616E-12;
5,42421274838541E-14;
1,27255505887881E-12;
1,29971604217988E-12;
-5,13347904004195E-13;
6,04221697155573E-13;
6,3576914958629E-13;
-5,41017666656827E-13;
3,5117621696465E-13;
1,06017937605094E-13;
-6,89013630566376E-13;
2,90694038011998E-13;
1,59298401691508E-13;
-1,47504165296996E-13;
3,86088281838999E-13;
-1,88313738215611E-13;
-2,30851219357277E-13;
-4,4894540367144E-13;
-6,15075685756469E-13;
6,10661438736003E-13;
1,21050617449203E-13;
1,22465954367409E-13;
1,44092016283538E-12;
6,61101921810669E-13;
2,39665712765799E-13;
6,17554168039327E-13;
-6,215580975465E-14;
3,47268704893169E-14;
8,82236038339683E-13;
8,48334047973358E-13;
5,42808182310756E-13;
3,15372014488354E-13;
2,53211537649634E-13;
3,39946718812589E-13;
2,84406251000009E-13;
-2,68047178879716E-13;
-3,49801387270276E-13;
8,28552576000056E-13;
5,37400539341736E-13;
-2,41413988422387E-13;
-4,31854774737949E-14;
1,75457911723932E-13;
3,53663148877041E-13;
-1,68210004635768E-13;
5,18193279244337E-14;
8,93362872658478E-14;
1,99693995658048E-15;
9,13131870068102E-13;
7,31445598936237E-13;
1,04500552692364E-13;
-3,82412798523013E-13;
2,39025295905414E-13;
1,14057731278736E-12;
2,6702139877647E-13;
1,89646871681495E-13;
3,86793829811452E-13;
2,39564923210648E-14;
6,23898900844899E-13;
5,90378014068961E-13;
8,87238185073244E-14;
8,19296697705834E-14;
1,13183903600296E-13;
3,87215554941194E-13;
4,82902767658315E-13;
-2,83492562957934E-14;
1,90822581513947E-13;
1,23453610997171E-12;
6,839585876276E-13;
2,05375048453976E-13;
1,06072832307673E-12;
5,03117780548084E-13;
-1,89819504935276E-13;
-4,27452457953004E-14;
1,72346749747209E-13;
1,16635880579812E-12;
1,23919722112661E-12;
4,53676730383717E-13;
1,25321328850181E-13;
4,71427520652104E-14;
7,61806635171677E-13;
1,018050162543E-12;
-1,79850378318506E-14;
-4,45238210872602E-13;
6,39966637649294E-13;
9,0920093435227E-13;
2,28603563562919E-13;
4,39038372522383E-13;
3,44278841830737E-13;
8,97176518355148E-14;
1,41158194292247E-13;
9,57305520501355E-14;
6,9536062037103E-13;
8,55672279380411E-13;
1,97744312210499E-14;
4,48606924451073E-13;
1,45592177306847E-12;
6,73109336386335E-13;
1,06420664358346E-13;
1,81775473682398E-13;
-1,6688254836905E-13;
6,44421337485791E-13;
9,19817326771839E-13;
3,17212198775496E-14;
4,33188859755E-13;
6,84153471701958E-13;
9,93817302512576E-14;
3,27297585244328E-14;
7,84601232499159E-13;
1,25649191554311E-12;
5,22456117639727E-13;
4,90170360465568E-13;
1,93942977385417E-13;
-3,3473893511578E-13;
9,8235497510276E-13;
9,30887290599183E-13;
2,55840690325024E-14;
1,74061046341861E-13;
-3,17280394449441E-13;
