0,00117555856683949;
0,00157425266540568;
0,0017498805725966;
0,00169171274614539;
0,00151008722783545;
0,00134997056007755;
0,0012910504611859;
0,0013092755803443;
0,00132190400342366;
0,00127090719034065;
0,00117264007443286;
0,00109516462065783;
0,00108851263714341;
0,0011331848778971;
0,00115508365506875;
0,00109604836572416;
0,000978664001301307;
0,000905405015474483;
0,000985415987679075;
0,00124367068144296;
0,00158566034430509;
0,00184973495482862;
0,00191099320861462;
0,00175992856235737;
0,00149856336630774;
0,0012606873139613;
0,0011198404536482;
0,00105400527352562;
0,000987176918078518;
0,000866126080420141;
0,00070601973529687;
0,00056949247500396;
0,000502535760548618;
0,000487243269504287;
0,000455604148922207;
0,000354276250294756;
0,000203992467032043;
9,86740306063424E-5;
0,000138244077185331;
0,000345420892207517;
0,000633495684987414;
0,000854383226357002;
0,000893745246626209;
0,000742864115711842;
0,000494969383926038;
0,000272223524370712;
0,00014164020295407;
8,29223369689961E-5;
2,65164415201434E-5;
-7,62939248985941E-5;
-0,000211814344461706;
-0,000323099741189298;
-0,000368427614836667;
-0,000364316765537635;
-0,000372889628953825;
-0,000442859672724511;
-0,000555503912444097;
-0,00062555921045567;
-0,000562385977852125;
-0,000345583741556846;
-5,41662264183678E-5;
0,000177198646639403;
0,000244597637181372;
0,000140040671901191;
-5,19939570632374E-5;
-0,000220867538062268;
-0,000306005579070319;
-0,000325965068206995;
-0,000343877118323842;
-0,000403951206156095;
-0,000493889019074598;
-0,000562285759584059;
-0,000571538958135251;
-0,000536701534240862;
-0,000513996873578014;
-0,000547482711558701;
-0,000620306177749964;
-0,000655593050112169;
-0,000571684930693673;
-0,000350309335340057;
-6,27865817505145E-5;
0,000169502037441363;
0,000252978024530506;
0,000180481376137279;
2,80523075350492E-5;
-0,00010480217642111;
-0,000163654687116608;
-0,000165217026592104;
-0,000166212796962312;
-0,000206323620790621;
-0,000274483528949732;
-0,000324554942663063;
-0,000322814490898773;
-0,000282758863915174;
-0,000254752876918376;
-0,000278216929445155;
-0,000338007584253528;
-0,000365286076273764;
-0,000286994984840801;
-8,68116700226899E-5;
0,000171505202926059;
0,000379533779234872;
0,000453773529014925;
0,000387930339404618;
0,000249945970191727;
0,000128633772717633;
7,25503793217435E-5;
6,68285015742909E-5;
6,09810029585907E-5;
1,97367225486343E-5;
-4,69885162023814E-5;
-9,80955267157871E-5;
-0,00010356101495341;
-7,53531810890587E-5;
-5,81791033037652E-5;
-8,69874788869078E-5;
-0,000148269160187034;
-0,000180893854994152;
-0,000120048390899718;
4,8731272617498E-5;
0,000268943253131436;
0,000444580295061433;
0,000501777565516381;
0,000435044414693135;
0,00030454689635586;
0,00018884843550941;
0,000130874941262516;
0,000117502300891195;
0,000104175085799288;
5,98020831647409E-5;
-6,83126934047343E-6;
-5,94628196014498E-5;
-7,16263493668867E-5;
-5,38642221793752E-5;
-4,55296266594088E-5;
-7,73532862966728E-5;
-0,000137420983581846;
-0,000171970037000877;
-0,000124055309344705;
1,89932984678384E-5;
0,000207535553196819;
0,000357312248753092;
0,000403557785646656;
0,000341497698720733;
0,000223884348539853;
0,000119532694502923;
6,60045062603197E-5;
5,17958276869245E-5;
3,79321347753559E-5;
-2,7581150020082E-6;
-6,25911431523237E-5;
-0,000109905190835279;
-0,00012161964932902;
-0,00010695499070965;
-0,000100237265452734;
-0,00012824524117166;
-0,000180594324988264;
-0,000210486844708081;
-0,000168405083319853;
-4,33796064010697E-5;
0,000121395935885139;
0,000252699474492238;
0,00029430279861384;
0,000242084346267358;
0,000141813824596161;
5,31394762667638E-5;
8,58085251197936E-6;
-1,85060524332786E-6;
-1,19005296519631E-5;
-4,50723863452194E-5;
-9,47208082385514E-5;
-0,000133496558494138;
-0,000141489066123134;
-0,000126680004772024;
-0,000118691376680556;
-0,000140606686685396;
-0,000183471307991958;
-0,000206992661273197;
-0,000168582919842976;
-5,88500352822916E-5;
8,50385359451789E-5;
0,000200163430445056;
0,000238260296744481;
0,000195817851942071;
0,000112103758340807;
3,82365778107356E-5;
2,05230254436741E-6;
-5,01649130555759E-6;
-1,18421687046481E-5;
-3,85097342708842E-5;
-7,93310632129963E-5;
-0,000110953948033762;
-0,000116400478656776;
-0,000102490847293817;
-9,44720423323502E-5;
-0,000111991837048913;
-0,00014741358923033;
-0,00016646401385476;
-0,000132962972414443;
-3,89653371851247E-5;
8,39524380367521E-5;
0,000182413524422358;
0,000215525519456719;
0,000180345728096584;
0,000110137989605938;
4,81485508357846E-5;
1,78975225047925E-5;
1,21381402198627E-5;
6,50171306445945E-6;
-1,59384903905227E-5;
-5,03720894751232E-5;
-7,71249171133171E-5;
-8,19141514960498E-5;
-7,04839943884982E-5;
-6,40493240265964E-5;
-7,90935182210277E-5;
-0,000109189826072519;
-0,000125595787056645;
-9,80149939944809E-5;
-1,98253068831106E-5;
8,25364598730196E-5;
0,0001644557404618;
0,000191804384677665;
0,000162159650546711;
0,000103279666710229;
5,11962835655484E-5;
2,54773923185672E-5;
2,00870890399147E-5;
1,4779409379883E-5;
-4,48377931804351E-6;
-3,36966771760511E-5;
-5,65490495472813E-5;
-6,12214292057569E-5;
-5,24751486857169E-5;
-4,78440494364254E-5;
-6,09253906425833E-5;
-8,63995470734877E-5;
-0,000100571238269458;
-7,85093950895234E-5;
-1,47972186486616E-5;
6,88110970876742E-5;
0,000135679135279797;
0,000157832841542021;
0,000133317947312014;
8,48803131142959E-5;
4,19892349969562E-5;
2,06187088030223E-5;
1,58311963124126E-5;
1,1122241032861E-5;
-4,92752247001296E-6;
0,00930438799990341;
0,0225817524813039;
0,0163205997988019;
0,00938769754285474;
0,0121274298355974;
0,00697335319720955;
0,0055611758119117;
0,00449739187954761;
0,000772731990622255;
0,00101572806502434;
-0,0104734024717009;
-0,0245174742689015;
-0,0190577460997759;
-0,0138840814188763;
-0,0169925845445842;
-0,0128520832613432;
-0,0115630479099695;
-0,0107560093785184;
-0,00782861958893304;
-0,00896036799828349;
-0,00818483766145433;
-0,00829232360403555;
-0,00775605689135747;
-0,00559422457029066;
-0,00435699881455421;
-0,00261956259807525;
-0,00195071244885373;
-0,00134560688236927;
-0,000111306117046477;
0,00148526401140792;
0,0037092848370408;
0,00536243922723302;
0,00615777367891512;
0,00609539994310976;
0,00559191123362572;
0,00542562110229713;
0,00561113900011476;
0,00589078826460485;
0,00569036937012769;
0,00474714993449523;
0,00342886960531094;
0,00233914029150341;
0,00201153761826529;
0,00240287599783045;
0,00301049359664736;
0,0033082260342208;
0,00314455444359734;
0,00289447940787027;
0,00308241446007812;
0,00393012437362815;
0,00512549892888305;
0,00602317923240872;
0,00614063679522225;
0,00549991600796584;
0,00458608543666011;
0,00393415917109612;
0,00369834404573069;
0,00355915681628711;
0,00302416287291511;
0,00188040896750946;
0,00041082218363329;
-0,000799246979603674;
-0,00130503322816066;
-0,00113436339733111;
-0,00073540250385704;
-0,000592561321281775;
-0,000828764727857532;
-0,00112162287671437;
-0,000999190792280219;
-0,000265559912875229;
0,000796400570663621;
0,00161443198594257;
0,00175410754400238;
0,00123644215475054;
0,000491707847530543;
-6,17427378292146E-6;
-0,000120710783648693;
-0,000138934051476023;
-0,000499029664384236;
-0,00139120704679439;
-0,00256473416370784;
-0,00350023063452701;
-0,00380436200347668;
-0,00350283334299443;
-0,00299449797538065;
-0,00270989507474142;
-0,00275892724595438;
-0,00285729063114876;
-0,00258825737799944;
-0,00177954605004212;
-0,000681969627994892;
0,000198399632004225;
0,000477724413637098;
0,000174549777887437;
-0,0003317593344038;
-0,000623913713399983;
-0,00058258307464698;
-0,000461619055189713;
-0,000647416841754295;
-0,00130735029555605;
-0,00222038403834476;
-0,0029293836934203;
-0,00308860789273461;
-0,00272106139822494;
-0,00217763104205687;
-0,00183675707904319;
-0,00179516843194314;
-0,00180369986002006;
-0,00149721042163409;
-0,000724899251858452;
0,000293592135561646;
0,00111558857310663;
0,00140584174379657;
0,00118116836400598;
0,000773470544935276;
0,000547196221417575;
0,000606168005691178;
0,000728549966936704;
0,000577407025662719;
7,40321661450293E-6;
-0,000788013968419931;
-0,00140997444028252;
-0,0015571396866223;
-0,00124951319099979;
-0,000792374315364117;
-0,000514737767537598;
-0,000500596385149371;
-0,000533518203040129;
-0,000296563158919607;
0,00034115030977939;
0,00118946472831408;
0,00186535808252215;
0,00207925296810329;
0,00184639791799228;
0,00145426709870169;
0,00121789157836686;
0,00122668074038721;
0,00128885410196548;
0,00111377370296967;
0,000576651763093954;
-0,000154974073177416;
-0,000736804483206226;
-0,000909067620867833;
-0,000689017645044115;
-0,000339411014125751;
-0,000143219306514888;
-0,000172664270748931;
-0,000241960150775033;
-7,92207244248137E-5;
0,000427740770042665;
0,0011160610692044;
0,00165804409629254;
0,00180637117658223;
0,00157459034088423;
0,00120865844768573;
0,000977515111808884;
0,000957042381075978;
0,000983220648891938;
0,000808193935236829;
0,000326000650009544;
-0,000320111924993631;
-0,000836678686336692;
-0,0010026485527057;
-0,000832889811265431;
-0,000550927377338672;
-0,000397262272434632;
-0,000433381126279499;
-0,000501997415850163;
-0,000373023396795025;
4,83104599102987E-5;
0,000624203719822483;
0,00107787574617808;
0,00120082590918918;
0,00100485471599622;
0,000697487209563421;
0,000505078158442422;
0,000490983894770241;
0,000516697214066376;
0,000373666579859879;
-2,68647684477218E-5;
-0,000564134523505726;
-0,000991546687407886;
-0,00112372365057402;
-0,000973377697223815;
-0,000728010610835061;
-0,000589138081204546;
-0,000608410659817793;
-0,0006547068397268;
-0,000536283299909805;
-0,000174342211824169;
0,000316273630225672;
0,000705397852743838;
0,00082003509364744;
0,000670352654403038;
0,00042870807877142;
0,000282544241199003;
0,000283829595130141;
0,000317434289379582;
0,000210746512766188;
-0,000109279114583815;
-0,000542420225974461;
-0,000884850068985163;
-0,000983700845915512;
-0,000849660380842381;
-0,00063732525820777;
-0,000512621031314766;
-0,000518174558058328;
-0,000546619808685909;
-0,000441041116986582;
-0,00013710639024948;
0,00027126548172443;
0,000596305174933686;
0,000697290388036325;
0,000582924641502107;
0,000393683381433442;
0,000281772750707361;
0,000288922633186412;
0,00032128319076315;
0,000238870825727239;
-1,71044043800941E-5;
-0,000365018025502441;
-0,000639750890956411;
-0,000717821039167112;
-0,000608029979111501;
-0,000435156435918618;
-0,000332896035722032;
-0,000335668307874663;
-0,000357511500818908;
-0,00027290355945453;
-3,05253856707026E-5;
0,000294603723932284;
0,000552948013661469;
0,000632865084058287;
0,000541735408308375;
0,000391338751882889;
0,000302202717610905;
0,000306898668071909;
0,000330762368760657;
0,000263163566782034;
5,8111781773515E-5;
-0,000219503855319797;
-0,000439345972905901;
-0,000504314090799562;
-0,000421502697126949;
-0,000288924014818243;
-0,000211357134582713;
-0,000215849927986199;
-0,000235600840185062;
-0,000173187045205396;
1,10673924028925E-5;
0,000259041394721126;
0,000455362983598636;
0,000514346559218941;
0,000442158215490307;
0,000324936363953431;
0,000254938667864822;
0,000256586875284011;
0,000272345430149549;
0,000217747366420421;
5,81754670405536E-5;
-0,000156436611403349;
-0,0003267650094974;
-0,0003792150798909;
-0,000319368892579257;
-0,00022143145967106;
-0,000164472752889529;
-0,000168988829769489;
-0,000185195368295339;
-0,000140616790445924;
-5,91663270434629E-6;
0,000175752631316061;
0,000319274237034833;
0,000361924156466474;
0,000308758620876002;
0,000223198932656343;
0,000172491848769387;
0,000173869343536443;
0,00018495367410069;
0,000144392751722487;
2,75860670821169E-5;
-0,00012877948812886;
-0,000252788104383474;
-0,000291601338014944;
-0,000249470640020019;
-0,000179611194987538;
-0,000138435061610451;
-0,000140660966135727;
-0,000151474929809251;
-0,000120342527767321;
-2,70191136574747E-5;
9,84870715026551E-5;
0,000197613476347827;
0,000227767721718776;
0,000193009642522858;
0,000136829553101051;
0,000104562380819392;
0,000107166739168473;
0,000115562850370265;
8,8637129039841E-5;
1,05354255173433E-5;
-9,36703001177576E-5;
-0,000176048558360532;
-0,000201906723431589;
-0,000174328901695429;
-0,000128194119723828;
-0,000100129666062109;
-9,98000066112915E-5;
-0,000105423137050139;
-8,55643329742327E-5;
-2,78877234546693E-5;
4,90323743343676E-5;
0,000109712654357046;
0,000129039665558462;
0,000110193427844919;
7,93603470693777E-5;
6,28803853466121E-5;
6,63017728451831E-5;
7,20983814290318E-5;
5,66994943515341E-5;
1,18121933117043E-5;
-4,7568210883738E-5;
-9,42781688080879E-5;
-0,000109320568205973;
-9,47634937133997E-5;
-6,96342716978858E-5;
-5,34645000934665E-5;
-5,15407057492675E-5;
-5,33001398322923E-5;
-4,3751927835914E-5;
-1,73637423583811E-5;
1,71272747013904E-5;
4,40747484979809E-5;
5,33712056720005E-5;
4,74274287426682E-5;
3,75751389803027E-5;
3,38750674256222E-5;
3,72646183493986E-5;
4,01428476075984E-5;
3,39705109857411E-5;
1,69133012956296E-5;
-4,67811318364121E-6;
-2,1417164582183E-5;
-2,77263527833912E-5;
-2,48015599042733E-5;
-1,81298075456661E-5;
-1,2647560231E-5;
-9,89508463391327E-6;
-8,85150721543137E-6;
-8,5113179990004E-6;
-9,12484569867158E-6;
-1,10736442910824E-5;
-1,31707312078299E-5;
-1,28071033227807E-5;
-8,23982863905814E-6;
-7,29194844537734E-7;
6,01253965197049E-6;
9,04536641007519E-6;
9,1842713235645E-6;
1,0599440478729E-5;
1,68965439423397E-5;
2,71031572171538E-5;
3,5587427328879E-5;
3,6604158357113E-5;
2,96943762807447E-5;
2,07785031131429E-5;
1,72089492055809E-5;
2,06069504231607E-5;
2,39919096875823E-5;
1,66425695698582E-5;
-6,53744975310778E-6;
-3,89367262787873E-5;
-6,52940350478284E-5;
-7,23855833988255E-5;
-5,90428960823594E-5;
-3,70431044556545E-5;
-2,15752700070268E-5;
-1,8787704811121E-5;
-2,08353863200497E-5;
-1,2966975599341E-5;
1,2931212656532E-5;
4,97753486303761E-5;
7,94411349752381E-5;
8,67794246166635E-5;
7,19439694466268E-5;
5,03120454108492E-5;
3,94165215275415E-5;
4,35048653176514E-5;
4,90002771567544E-5;
3,5515179592019E-5;
-6,03848472881306E-6;
-6,32977917027004E-5;
-0,000109440204285274;
-0,000122539714993056;
-0,000101915516684244;
-6,79719962741029E-5;
-4,52864005130071E-5;
-4,2608252184515E-5;
-4,63237189297256E-5;
-3,30343702828758E-5;
9,03667474296108E-6;
6,77974357806742E-5;
0,00011492701792017;
0,000127615285957605;
0,00010651671885413;
7,46965920195028E-5;
5,79567006090143E-5;
6,26853200798519E-5;
6,99818809519818E-5;
5,16578916198084E-5;
-4,5925794113205E-6;
-8,17767189228995E-5;
-0,000143780811449087;
-0,000161703039401074;
-0,000135270159678646;
-9,1806783276903E-5;
-6,33935569140185E-5;
-6,08346985231407E-5;
-6,58861422449677E-5;
-4,82459520020542E-5;
6,76612982974337E-6;
8,30463081782567E-5;
0,00014414692734093;
0,000161167361771238;
0,00013516250541662;
9,52942807939795E-5;
7,39140167089861E-5;
7,91137173921107E-5;
8,78114895955744E-5;
6,56927260294336E-5;
-2,07155839934518E-6;
-9,48640837654176E-5;
-0,000169314485126076;
-0,000191091289717792;
-0,00016025605861242;
-0,000109524657218197;
-7,67947371113064E-5;
-7,4437775860957E-5;
-8,05993828381401E-5;
-5,96335809346844E-5;
5,36500209498647E-6;
9,51726308522654E-5;
0,000167065115088183;
0,000187454341270657;
0,000157706157850453;
0,000111658972101811;
8,66795035355847E-5;
9,21727156995085E-5;
0,000101892044900427;
7,68874033664122E-5;
4,25078086741741E-7;
-0,000104147140870709;
-0,000188010501060601;
-0,000212777196328685;
-0,000178778449463212;
-0,00012276396317563;
-8,6952745554501E-5;
-8,48528371901865E-5;
-9,19055996334271E-5;
-6,85040581013274E-5;
3,88182895013375E-6;
0,000103699671359891;
0,000183588201959637;
0,000206514223960377;
0,000174075392145282;
0,00012353019984767;
9,59037661896224E-5;
0,000101567552480142;
0,000112006893668931;
8,49510999701515E-5;
2,3070930464571E-6;
-0,000110634530282213;
-0,000201199340437664;
-0,000228152030452314;
-0,000192035714205053;
-0,000132439741411755;
-9,45900977242461E-5;
-9,2754344382819E-5;
-0,000100467187372133;
-7,53759585451651E-5;
2,14746915241487E-6;
0,000108917750784706;
0,000194375969288253;
0,000219133991917474;
0,000184952078337266;
0,000131407826900437;
0,000101995807918653;
0,000107749723346798;
0,000118670002464966;
9,03142513393566E-5;
3,70659406854134E-6;
-0,000114606773508877;
-0,000209484848688976;
-0,000237898375868463;
-0,00020055150307334;
-0,000138832854484204;
-9,98316170310703E-5;
-9,82480425091286E-5;
-0,000106405300030592;
-8,02622170413231E-5;
4,50372792920026E-7;
0,000111519889514355;
0,000200441049394319;
0,00022641785781713;
0,000191313459922111;
0,000136069728204352;
0,000105619706636893;
0,000111394889255555;
0,000122587846270747;
9,35779136368739E-5;
4,91860869565339E-6;
-0,000116181313040733;
-0,000213312785117041;
-0,000242560902391145;
-0,00020474648261248;
-0,000142160813298089;
-0,000102771826840137;
-0,00010143233921732;
-0,000109853205154492;
-8,32142828019571E-5;
-9,97579152341974E-7;
0,000112078741320135;
0,00020263873491997;
0,000229292196075641;
0,000193954273560967;
0,000138112460782526;
0,000107254435647653;
0,000112982180974162;
0,000124258804177419;
9,51342854884938E-5;
6,04388320347651E-6;
-0,000115646730546563;
-0,000213282072767044;
-0,00024283518547899;
-0,000205205319052854;
-0,000142823166929785;
-0,000103698571450425;
-0,000102599954933657;
-0,000111136180710831;
-8,44809446595827E-5;
-2,19974134778975E-6;
0,000110927362561558;
0,000201566910125848;
0,000228424650732368;
0,000193424962738473;
0,000137908112492316;
0,000107168499650551;
0,000112785626671806;
0,000123980542760957;
9,51895055925987E-5;
7,02663346177903E-6;
-0,000113410681535741;
-0,000210079400586267;
-0,000239490204452557;
-0,000202588253858036;
-0,000141303102639506;
-0,000102985374950997;
-0,000102121737029435;
-0,000110647611520841;
-8,43777376947538E-5;
-3,23850056527902E-6;
0,000108300105101367;
0,000197710941764335;
0,0002243725045262;
0,000190183019342985;
0,00013575799538732;
0,000105575223964019;
0,000111030271494918;
0,000122006291139868;
9,39195159902676E-5;
7,80950618834821E-6;
-0,000109846350308052;
-0,000204327633491273;
-0,000233219250414777;
-0,000197485010707046;
-0,000138024759990247;
-0,000100952534627224;
-0,000100311891034777;
-0,00010871871093941;
-8,31614823959056E-5;
-4,15490078089153E-6;
0,000104447674338033;
0,000191553220453368;
0,00021768652638851;
0,000184690979680344;
0,000131984680340324;
0,000102718788626578;
0,00010797221223721;
0,000118618851870533;
9,1537954697961E-5;
8,39523273103405E-6;
-0,000105237065737382;
-0,000196536568894959;
-0,000224596528121995;
-0,000190376922716896;
-0,000133320698147734;
-9,78398608301172E-5;
-9,74059689496908E-5;
-0,000105601654343994;
-8,10182968487664E-5;
-4,94117426938608E-6;
9,96403852780578E-5;
0,000183572322540506;
0,000208905986903922;
0,000177407258782536;
0,000126918823736873;
9,88574204794848E-5;
0,00010387855052175;
0,000114107563161393;
8,82701327947693E-5;
8,81751722478523E-6;
-9,98084281861326E-5;
-0,00018713768323192;
-0,00021411389341774;
-0,000181675028703011;
-0,000127470955232615;
-9,38466314124834E-5;
-9,36017800504087E-5;
-0,000101511329654792;
-7,81057848138179E-5;
-5,58282722448226E-6;
9,41265519036693E-5;
0,000174201874447581;
0,000198517731925878;
0,000168745181451155;
0,000120858158008352;
9,42226889028869E-5;
9,89874260341741E-5;
0,000108729200438918;
8,43145968884114E-5;
9,1029177453699E-6;
-9,37662749219959E-5;
-0,000176521647249523;
-0,000202217242753977;
-0,000171754675422615;
-0,00012073560010035;
-8,91622569576804E-5;
-8,90884536509708E-5;
-9,66528639323307E-5;
-7,4578702821811E-5;
-6,08195526084293E-6;
8,81117772072145E-5;
0,000163812253911547;
0,000186939697024312;
0,000159057720169303;
0,000114053299082363;
8,90066069956196E-5;
9,34967269951336E-5;
0,000102698352439756;
7,98347241422411E-5;
9,26299921822196E-6;
-8,73043089712539E-5;
-0,000165045489349537;
-0,000189312538939281;
-0,00016095976659823;
-0,000113356985880927;
-8,39668321931064E-5;
-8,40457795136035E-5;
-9,12199356546695E-5;
-7,05859557900693E-5;
-6,45240388373996E-6;
8,17659033115506E-5;
0,000152719295391935;
0,00017453058491812;
0,000148647422877191;
0,000106717630245761;
8,33717247483643E-5;
8,75747595159213E-5;
9,6198631243424E-5;
7,49699531485387E-5;
9,3048618156342E-6;
-8,05946893020653E-5;
-0,000153024067778406;
-0,000175757383254907;
-0,00014959366251282;
-0,000105549756306114;
-7,84205969489988E-5;
-7,86336330397856E-5;
-8,53843348692759E-5;
-6,62599083307002E-5;
-6,70821631309882E-6;
7,52357143571409E-5;
0,000141197824865526;
0,00016160341622019;
0,000137779173418796;
9,90390089048747E-5;
7,74620700916523E-5;
8,13708738241927E-5;
8,93930503464917E-5;
6,98453698595929E-5;
9,23916015519051E-6;
-7,37819828684983E-5;
-0,000140725651692139;
-0,000161857342622768;
-0,000137915385319579;
-9,74965976727287E-5;
-7,26595645831451E-5;
-7,29879853309405E-5;
-7,9292484396527E-5;
-6,17129890314041E-5;
-6,85960001679333E-6;
6,86500167851847E-5;
0,000129487459287885;
0,00014843117882774;
0,000126684878455601;
9,1183253982401E-5;
7,14058186624715E-5;
7,50178070619536E-5;
8,2426116888391E-5;
6,4573034029657E-5;
9,0798737749358E-6;
-6,69853497354372E-5;
-0,000128375683911871;
-0,000147870312513391;
-0,000126143650273264;
-8,93516021857349E-5;
-6,67985103523769E-5;
-6,72240465214744E-5;
-7,30688752673105E-5;
-5,70408980686615E-5;
-6,91514052170634E-6;
6,2118817920511E-5;
0,000117792862077488;
0,000135247278650627;
0,000115563271655882;
8,32930373272396E-5;
6,53136278985673E-5;
6,86300112723896E-5;
7,54222564742202E-5;
5,92499391146056E-5;
8,84099900525155E-6;
-6,03035334377384E-5;
-0,000116163082310078;
-0,000134013143459395;
-0,000114462844911823;
-8,12452465391505E-5;
-6,09352949659854E-5;
-6,14404644940196E-5;
-6,68202675943486E-5;
-5,23263313697608E-5;
-6,88427046649495E-6;
5,57325378048931E-5;
0,000106284284707769;
0,000122246499186916;
0,000104580414683943;
7,54876449209189E-5;
5,92780493029552E-5;
6,23032380329226E-5;
6,84856351415371E-5;
5,39575134126177E-5;
8,53489105583237E-6;
-5,38181184308671E-5;
-0,000104244715229368;
-0,000120466344968447;
-0,0001030270026472;
-7,32873009075501E-5;
-5,51530641248926E-5;
-5,57213628691718E-5;
-6,06377054643685E-5;
-4,7640471197648E-5;
-6,77747360975615E-6;
4,95634995824955E-5;
9,51004179538521E-5;
0,000109588259399628;
9,38724717839694E-5;
6,7865005676331E-5;
5,33751511942044E-5;
5,6116267490941E-5;
6,17020912106413E-5;
4,8763178933177E-5;
8,17261359350148E-6;
-4,75948202419721E-5;
-9,27479718535499E-5;
-0,000107376961970962;
-9,19620546567462E-5;
-6,55681101972294E-5;
-4,95208835133793E-5;
-5,01368958470123E-5;
-5,45971434462983E-5;
-4,30432026941351E-5;
-6,60530740867175E-6;
4,36685084596731E-5;
8,43521965895524E-5;
9,74007571363062E-5;
8,35493168636296E-5;
6,0504444170408E-5;
4,76667951186856E-5;
5,01332387007482E-5;
5,5141581492683E-5;
4,37223512687337E-5;
7,76467511158751E-6;
-4,16844464332197E-5;
-8,17730652491736E-5;
-9,48612583174575E-5;
-8,13679466037907E-5;
-5,81598271372611E-5;
-4,40944431121371E-5;
-4,47439355662548E-5;
-4,87602483206856E-5;
-3,85835454266139E-5;
-6,37772109043025E-6;
3,80910418212575E-5;
7,41261828565922E-5;
8,57846272975994E-5;
7,36976165583897E-5;
5,34689393429401E-5;
4,22023997581748E-5;
4,44054118227605E-5;
4,88600277451465E-5;
3,88798415199244E-5;
7,32118557264181E-6;
-3,61244018944776E-5;
-7,13958329006615E-5;
-8,30078850383652E-5;
-7,13212833280709E-5;
-5,11182074114362E-5;
-3,89173230401953E-5;
-3,95873338280053E-5;
-4,31757784088125E-5;
-3,43006760338156E-5;
-6,10399839084198E-6;
3,286278016183E-5;
6,44872529765499E-5;
7,48159273017999E-5;
6,43832843936665E-5;
4,68067785468506E-5;
3,7020141115402E-5;
3,89724002875544E-5;
4,29006564410348E-5;
3,42707784157943E-5;
6,85161387180751E-6;
-3,09404856577308E-5;
-6,16707781889049E-5;
-7,18812759355063E-5;
-6,18782105902217E-5;
-4,4484667196374E-5;
-3,40225232824617E-5;
-3,47014083258214E-5;
-3,78811546060909E-5;
-3,02251489880284E-5;
-5,79290915580374E-6;
2,80049012823489E-5;
5,54810066071862E-5;
6,45488507475206E-5;
5,5653718840909E-5;
4,05530608504983E-5;
3,21480409301559E-5;
3,38632999527965E-5;
3,72952483495298E-5;
2,99214934754543E-5;
6,36457029496935E-6;
-2,61485970366543E-5;
-5,26339286419998E-5;
-6,15248046751224E-5;
-5,30770564773351E-5;
-3,82881232913591E-5;
-2,94338090090011E-5;
-3,01112680604797E-5;
-3,29038647713697E-5;
-2,63799312999207E-5;
-5,45273966475523E-6;
2,35294041301733E-5;
4,71361811969858E-5;
5,50184389240337E-5;
4,75400693276485E-5;
3,47312715534246E-5;
2,76051454914561E-5;
2,90979262585359E-5;
3,20654955237787E-5;
2,58505251978218E-5;
5,86777922770577E-6;
-2,17561452776059E-5;
-4,43053391199955E-5;
-5,19636012935785E-5;
-4,49406866522691E-5;
-3,25466111476558E-5;
-2,51668577133545E-5;
-2,58339082121456E-5;
-2,82626369702168E-5;
-2,27812716734856E-5;
-5,09119961595715E-6;
1,94404891413491E-5;
3,94670285668976E-5;
4,62432347621831E-5;
4,00594636935425E-5;
2,93548723021356E-5;
2,3402756720845E-5;
2,46880702481408E-5;
2,72243510143245E-5;
2,20696388983377E-5;
5,36814110950021E-6;
-1,77632937137388E-5;
-3,66913708046181E-5;
-4,32071128725519E-5;
-3,74786330992579E-5;
-2,72687287936697E-5;
-2,12302834333384E-5;
-2,18792305263321E-5;
-2,39685296166368E-5;
-1,94394797385282E-5;
-4,71533910973647E-6;
1,57358300011684E-5;
3,2475531924156E-5;
3,82277532783128E-5;
3,32170941690629E-5;
2,44287734292397E-5;
1,9545549122952E-5;
2,06386541626711E-5;
2,27772862314161E-5;
1,85847803178766E-5;
4,87177158726331E-6;
-1,41641338168524E-5;
-2,9786812275871E-5;
-3,52514970894536E-5;
-3,0689103252382E-5;
-2,24550248097415E-5;
-1,76266259121759E-5;
-1,82510124254516E-5;
-2,00259823462517E-5;
-1,63597088928566E-5;
-4,33151564589672E-6;
1,24077009013345E-5;
2,61533943812563E-5;
3,0964720707728E-5;
2,70080876735637E-5;
1,99506475270712E-5;
1,60325804840962E-5;
1,69487694602131E-5;
1,87234094571644E-5;
1,53969092606605E-5;
4,38401989335633E-6;
-1,09477722920511E-5;
-2,35768561892337E-5;
-2,8081862514654E-5;
-2,45608563441113E-5;
-1,80992925137032E-5;
-1,43533021162899E-5;
-1,49478452453886E-5;
-1,64338209264115E-5;
-1,35427117279785E-5;
-3,94539843927383E-6;
9,44398207738262E-6;
2,04838397609163E-5;
2,44370849931991E-5;
2,14192033409973E-5;
1,59121341658576E-5;
1,28581895656451E-5;
1,36126090090633E-5;
1,5056487357226E-5;
1,25027626307625E-5;
3,90947713714249E-6;
0,00932533469917404;
0,0226116909134957;
0,0163510629835051;
0,00941402126458212;
0,0121552020123028;
0,00701476385221632;
0,00562285313309493;
0,00456952387488545;
0,000829514559719329;
0,00102883037977919;
-0,00118361044317612;
-0,00197650942474263;
-0,00278851707713062;
-0,00453725094094305;
-0,00487502508328866;
-0,00584588787966485;
-0,00593059695108303;
-0,00617072245561808;
-0,0069836811080665;
-0,0079172515417953;
-0,00935448889951259;
-0,0102560329227677;
-0,0105344970769447;
-0,0101227292427536;
-0,00921837489422666;
-0,00843906365380966;
-0,00783972435213514;
-0,00746774483249597;
-0,00705673541259668;
-0,00642186272344543;
-0,0056709090215431;
-0,00494748470767038;
-0,00443959963785224;
-0,00407875128615091;
-0,00365472915012671;
-0,00301908360883242;
-0,00222027373540391;
-0,00156399172767067;
-0,00135351080658079;
-0,00166223079926425;
-0,00222915761180853;
-0,00259592102157079;
-0,00241777768002163;
-0,00166710912639652;
-0,000632374897982629;
0,000310239345289481;
0,000956749257961164;
0,00136818641543112;
0,00175850778111649;
0,00227564182673068;
0,00287628223262169;
0,00338533780287495;
0,00367392905474506;
0,00379257238198973;
0,00393102984006983;
0,00423870413982614;
0,00465971556729876;
0,00493538341588646;
0,00479089723777047;
0,00416465623089811;
0,00329682279515492;
0,00259605789418458;
0,00237736023993187;
0,00266513824071292;
0,00320421133806814;
0,00366101679358857;
0,00385394639781098;
0,00384054638875456;
0,00381250454868728;
0,0039037204162325;
0,00407727412761694;
0,00417840575372509;
0,00409424349456098;
0,00387072817332975;
0,00367778452995926;
0,00364883199116883;
0,00373444735453612;
0,00370525278589304;
0,00331763722687338;
0,00251776542942237;
0,00151956898122917;
0,000686120530850093;
0,000296954004465399;
0,000373510928915984;
0,000689393923115876;
0,000948837090806845;
0,000990758319818467;
0,000865779848518229;
0,000743105094525512;
0,000740802580397424;
0,000826001433851935;
0,000861850683665457;
0,000748541007292944;
0,000526286688866836;
0,000344368989960786;
0,000319554065841942;
0,000407345905709631;
0,00040490494484996;
9,72318524504363E-5;
-0,000563333973154773;
-0,0107222974795956;
-0,024690285923082;
-0,018706167381137;
-0,0116226134775666;
-0,0139978993715046;
-0,00853698494303818;
-0,00701334355491612;
-0,0059707030448975;
-0,00223214786855721;
-0,0023190883029614;
8,80559335599304E-5;
0,00103317592819175;
0,00186369713661673;
0,00353207418469132;
0,00382386392627183;
0,00488806815474467;
0,00516684458928181;
0,00552183260131175;
0,00617910976840989;
0,00664328303719601;
0,00746304411060318;
0,00788054856934586;
0,00802440978566178;
0,00784256611216171;
0,0073556328668797;
0,00695129545572353;
0,00655983801786248;
0,00626822311506495;
0,00594083904298469;
0,00548313838952085;
0,00497588582171127;
0,00445535524454413;
0,00403125444467627;
0,00366527167242746;
0,00326179272272892;
0,0027622369389416;
0,00218127910532406;
0,00166951998665703;
0,00136583058795825;
0,00130696191959058;
0,00137472813262261;
0,00135282058144851;
0,00108197872303752;
0,00054750756032395;
-0,000113942021633833;
-0,000723254903947587;
-0,00118329844961351;
-0,00152141864695721;
-0,00183984145073196;
-0,00220918859558718;
-0,00260873905489528;
-0,00295428816871476;
-0,00318305638127776;
-0,00331946117268021;
-0,00345571733654129;
-0,00366508522440593;
-0,00392076733988534;
-0,00409597520426958;
-0,00405523008137464;
-0,00376746356936267;
-0,00335109435249328;
-0,00300915338295251;
-0,00289930231728504;
-0,00303495912735513;
-0,00328939166024494;
-0,00349570379205397;
-0,0035626796809407;
-0,00351959157424704;
-0,00346396352775811;
-0,00346439003233767;
-0,00350252954901428;
-0,00349946485570857;
-0,00339730494613318;
-0,0032197552239782;
-0,00305494503871972;
-0,00297282059945632;
-0,00294876935482874;
-0,00286407068144685;
-0,00259154283004547;
-0,00210242609486064;
-0,00150841131830512;
-0,00100052448465995;
-0,000726914232619298;
-0,000699926904539098;
-0,000800321649902675;
-0,000871260485579703;
-0,000827092730189687;
-0,000695231072616962;
-0,0005669084366602;
-0,000506004818247988;
-0,000494729068922498;
-0,000458505456088692;
-0,000342522955151326;
-0,000168434424693478;
-1,8210696491805E-5;
4,32182222712742E-5;
3,93613857700486E-5;
8,16701146150485E-5;
0,000289466823722194;
0,000690168359506634;
0,00118018685961105;
0,00158207629907774;
0,00175852787405199;
0,001698866917785;
0,00151492139102561;
0,00135333629806633;
0,00129430627448578;
0,00131276168547568;
0,00132436162000458;
0,00127035584298004;
0,00116800793066441;
0,00108732272030508;
0,00107983502795179;
0,00112596310200125;
0,00115007114344404;
0,00109230902844893;
0,000974823274436768;
0,00090123483853594;
0,000982396341914144;
0,00124400930036769;
0,00159053545719758;
0,00185819383769356;
0,00192043085774279;
0,00176779337108637;
0,0015039374132131;
0,0012644936975391;
0,00112355887975812;
0,00105800334956261;
0,00099007641609822;
0,000865759791710221;
0,000701205688776043;
0,000561157322237446;
0,000493238119904792;
0,000479458279951361;
0,000450151334485426;
0,000350156198429898;
0,000199733162939738;
9,40336257207473E-5;
0,000134812915109773;
0,000345571322199072;
0,000638502786371031;
0,00086324852934033;
0,000903706454453787;
0,000751209944142854;
0,000500718713543548;
0,000276345715060158;
0,000145694904398737;
8,72947226955773E-5;
2,97480656016303E-5;
-7,64956599675214E-5;
-0,000216707132016825;
-0,000331724372422488;
-0,000378108295746365;
-0,000372460443623891;
-0,000378633080467818;
-0,000447240651782586;
-0,000560054644524223;
-0,000630529573228113;
-0,000566116083400289;
-0,000345597319541635;
-4,91249311102334E-5;
0,000186273100874612;
0,000254851566309808;
0,000148668318315161;
-4,60126628357616E-5;
-0,00021653877039802;
-0,000301725433297839;
-0,000321339273616116;
-0,000340410327434793;
-0,000404008212335237;
-0,000498773296121651;
-0,000571025271167248;
-0,000581398821280234;
-0,000545027480366237;
-0,000519901375829297;
-0,000552020417362994;
-0,000625037485040169;
-0,000660770923943067;
-0,000575615130203454;
-0,000350464014483365;
-5,77931949141185E-5;
0,000178617661259312;
0,000263327283991857;
0,000189219995493099;
3,41421417772375E-5;
-0,00010036141615687;
-0,000159245340701694;
-0,000160442946546133;
-0,000162595694912847;
-0,000206254885341083;
-0,00027928664200689;
-0,000333261696751202;
-0,000332680375864544;
-0,000291116745467728;
-0,000260707530015026;
-0,000282821714667165;
-0,000342823852075876;
-0,000370565703290714;
-0,000291039341675188;
-8,70859272730392E-5;
0,000176382913335024;
0,000388549545085364;
0,0004640515857775;
0,000396635289681545;
0,000256039355788118;
0,000133105573995688;
7,70062799569121E-5;
7,16604607117032E-5;
6,46749146950816E-5;
1,99131882767497E-5;
-5,16510788083758E-5;
-0,000106646593621095;
-0,000113287971715983;
-8,36166843652213E-5;
-6,40902627104177E-5;
-9,15831811372712E-5;
-0,000153088913803746;
-0,000186184971477695;
-0,000124133011709386;
4,83574957824982E-5;
0,00027365050823296;
0,00045337978683772;
0,000511846133599855;
0,000443595095111546;
0,000310555803077454;
0,000193282905693064;
0,000135307330573533;
0,000122315367890877;
0,000107882873551892;
6,00693382091514E-5;
-1,13058698855609E-5;
-6,77577337584725E-5;
-8,10951360828361E-5;
-6,19289680028777E-5;
-5,13194465400935E-5;
-8,18761359886374E-5;
-0,000142175769873141;
-0,000177196661664583;
-0,000128117461058707;
1,85385376264525E-5;
0,000212029230929282;
0,000365801332348137;
0,000413304226530812;
0,000349795375874936;
0,000229736218820069;
0,000123872989250195;
7,0354871491542E-5;
5,65257560019181E-5;
4,16006237233693E-5;
-2,41586013063765E-6;
-6,68410788348086E-5;
-0,000117863749839043;
-0,000130734276198117;
-0,000114736478743896;
-0,000105842255350906;
-0,000132642766075909;
-0,000185227583291925;
-0,000215586056908975;
-0,000172392285766639;
-4,38983609489505E-5;
0,000125643298388918;
0,00026080403494821;
0,000303637572948758;
0,00025005002195131;
0,00014745010983007;
5,7339230075126E-5;
1,28011995040825E-5;
2,74336324346288E-6;
-8,31556446011469E-6;
-4,46697269494478E-5;
-9,8718859416328E-5;
-0,000141056674154846;
-0,00015017439427397;
-0,000134111595607287;
-0,000124060990664949;
-0,000144836642242728;
-0,000187937259941263;
-0,00021191339308962;
-0,000172452042338638;
-5,94173397901026E-5;
8,90160004924073E-5;
0,000207827171187166;
0,000247114496469774;
0,000203390201793178;
0,000117478489337666;
4,22588756746785E-5;
6,10415124794076E-6;
-6,00970655435708E-7;
-8,37681283975003E-6;
-3,8060042511926E-5;
-8,30583376838427E-5;
-0,000118069588198739;
-0,000124599909796583;
-0,00010952182304424;
-9,9567305626342E-5;
-0,000116021161043195;
-0,000151676157719802;
-0,000171165864874009;
-0,00013667934787944;
-3,95672837185941E-5;
8,7644419919743E-5;
0,000189595879234508;
0,000223848501625668;
0,000187479102601928;
0,000115216394217436;
5,19649297953231E-5;
2,17509220996474E-5;
1,63420082389007E-5;
9,81872379787447E-6;
-1,54539110123222E-5;
-5,38169300664134E-5;
-8,37641545435256E-5;
-8,95874261528318E-5;
-7,70776983322132E-5;
-6,88415150279505E-5;
-8,28973176873808E-5;
-0,000113221583882995;
-0,000130047890123659;
-0,000101551556679622;
-2,04494810138746E-5;
8,59342795491029E-5;
0,00017112988664914;
0,000199561531026207;
0,000168822194514511;
0,000108036861667395;
5,47857760273345E-5;
2,91099738614129E-5;
2,40543563275519E-5;
1,7925920893789E-5;
-3,97523388651697E-6;
-3,68536372717341E-5;
-6,26922124121726E-5;
-6,8342542357774E-5;
-5,86072311774748E-5;
-5,23134510736417E-5;
-6,44859775513072E-5;
-9,01807171499066E-5;
-0,000104751165202297;
-8,1845849724975E-5;
-1,54326561876097E-5;
7,19119719598742E-5;
0,000141830135716005;
0,000165003438897908;
0,000139489808128764;
8,93000518424465E-5;
4,53374598626095E-5;
2,40147878413611E-5;
1,95442073227027E-5;
1,40819480641847E-5;
-4,40474070068788E-6;
-3,19149465105903E-5;
-5,3615298770783E-5;
-5,86927294611491E-5;
-5,10553968507689E-5;
-4,60966777074072E-5;
-5,61201247346495E-5;
-7,71588234946318E-5;
-8,92108936369036E-5;
-7,0890126716709E-5;
-1,73014313237255E-5;
5,32771768649184E-5;
0,000109831287411937;
0,000128703387065207;
0,000108367740083531;
6,82057537004824E-5;
3,30830897855808E-5;
1,61362189222448E-5;
1,2636469921718E-5;
8,21890994710343E-6;
-6,74363251063949E-6;
-2,89742140289937E-5;
-4,65201040029172E-5;
-5,06806173528063E-5;
-4,4559610157103E-5;
-4,04540485942127E-5;
-4,82119588332753E-5;
-6,47421305278672E-5;
-7,42206217689334E-5;
-5,97280140364088E-5;
-1,73930209484356E-5;
3,83680970543734E-5;
8,31367130628947E-5;
9,83369947409244E-5;
8,28149551498541E-5;
5,17973405882176E-5;
2,4736420046033E-5;
1,18359379377004E-5;
9,32200116661024E-6;
5,94965099995652E-6;
-5,75491006418264E-6;
-2,31676289910478E-5;
-3,6919647615358E-5;
-4,02042164885159E-5;
-3,54067813704089E-5;
-3,20538911997486E-5;
-3,77947315912726E-5;
-5,03149856673292E-5;
-5,75165616854599E-5;
-4,64641691371944E-5;
-1,42000955160089E-5;
2,83004191161944E-5;
6,24940602057997E-5;
7,43293007491703E-5;
6,29821755427974E-5;
3,99830916472814E-5;
1,99723352020144E-5;
1,05513057907816E-5;
8,79999300613425E-6;
6,24815855199084E-6;
-2,66656423434191E-6;
-1,59037960405996E-5;
-2,63926208753994E-5;
-2,90099357161214E-5;
-2,55051001431884E-5;
-2,29472094239967E-5;
-2,70332628671111E-5;
-3,61319277962786E-5;
-4,14387820348209E-5;
-3,35413362724499E-5;
-1,02903899523576E-5;
2,03775012284224E-5;
4,5105998765392E-5;
5,383575638065E-5;
4,60330499061437E-5;
2,99688901507479E-5;
1,60442922126965E-5;
9,57203741907395E-6;
8,38868054180719E-6;
6,46911716373424E-6;
-6,81856641080028E-8;
-9,70056032186212E-6;
-1,73829013449242E-5;
-1,94758986933162E-5;
-1,71714719105323E-5;
-1,53792731125104E-5;
-1,80792537585099E-5;
-2,4234995835216E-5;
-2,79268298480173E-5;
-2,28285113080078E-5;
-7,50031655594219E-6;
1,27785822911239E-5;
2,91871824358018E-5;
3,51548535858797E-5;
3,0400391553863E-5;
2,03480499842481E-5;
1,16999409632008E-5;
7,77553937184381E-6;
7,07514170011228E-6;
5,70714270072263E-6;
1,25320800900216E-6;
-5,21927332438308E-6;
-1,04342077803174E-5;
-1,20476325893184E-5;
-1,0768218580877E-5;
-9,62712222312296E-6;
-1,11091066509997E-5;
-1,46905032415836E-5;
-1,69525593709235E-5;
-1,42454419196299E-5;
-5,74599795329238E-6;
5,56616324389383E-6;
1,47941972782706E-5;
1,83842851621876E-5;
1,62725620742518E-5;
1,1423154695609E-5;
7,34508999734526E-6;
5,64050028377127E-6;
5,38606510393599E-6;
4,53193951203054E-6;
1,9196669407073E-6;
-1,77975451165325E-6;
-4,81865645023822E-6;
-5,97192466109749E-6;
-5,5340620188358E-6;
-4,92002054025437E-6;
-5,3266212933043E-6;
-6,66665384618525E-6;
-7,66472141498255E-6;
-6,9655688869078E-6;
-4,27589602458281E-6;
-6,08476409054654E-7;
2,49575183567975E-6;
4,06128911801782E-6;
4,20922216567832E-6;
3,8029525131995E-6;
3,62815857240909E-6;
3,82559207822918E-6;
3,96695033305953E-6;
3,57341905049903E-6;
2,55814153811142E-6;
1,25089269120457E-6;
9,45408446726526E-8;
-6,40614432714886E-7;
-8,98619274046543E-7;
-7,21046609876463E-7;
-2,08767536161475E-7;
3,59279036128175E-7;
4,45556804306723E-7;
-5,36360432864466E-7;
-2,74268601409413E-6;
-5,52625236336233E-6;
-7,5962186747045E-6;
-7,75398908401449E-6;
-5,72320082843151E-6;
-2,40983183678477E-6;
6,8114878529235E-7;
2,46457086219049E-6;
2,93194380058582E-6;
2,92620403128267E-6;
3,25904365459484E-6;
3,97019564318235E-6;
4,40384716455796E-6;
4,02663733710566E-6;
3,18661246706462E-6;
2,9924724281097E-6;
4,26275675952422E-6;
6,41655727178551E-6;
7,40624270105704E-6;
5,02722491034494E-6;
-1,25246662408593E-6;
-9,40663054419207E-6;
-1,57923369712009E-5;
-1,74067254989736E-5;
-1,38452445047099E-5;
-7,48029466077652E-6;
-1,71217085886856E-6;
1,3628694700045E-6;
2,0871122214582E-6;
2,3974309540138E-6;
3,84620307667989E-6;
6,23013522728479E-6;
7,98313984285268E-6;
7,90633407214299E-6;
6,58673688628546E-6;
6,07988922324935E-6;
7,96262857228323E-6;
1,14101310896152E-5;
1,31399967665694E-5;
9,62367416575925E-6;
2,06032470627523E-8;
-1,25190863189482E-5;
-2,24359896884802E-5;
-2,52587194303398E-5;
-2,04791350336966E-5;
-1,16613056541844E-5;
-3,74255337479036E-6;
3,64208579901776E-7;
1,28916648674559E-6;
1,85658676004228E-6;
4,21663480219744E-6;
7,96582784456382E-6;
1,07986540315569E-5;
1,09759454096333E-5;
9,27575491146996E-6;
8,51644451569128E-6;
1,08872728071791E-5;
1,53715927484568E-5;
1,77005489232905E-5;
1,32870654538904E-5;
1,04270813596741E-6;
-1,49882665334905E-5;
-2,77223757541468E-5;
-3,15220514379712E-5;
-2,57977283264418E-5;
-1,5057975878362E-5;
-5,45500085477084E-6;
-5,43792981659149E-7;
5,36941491092197E-7;
1,31313610484323E-6;
4,40446842981849E-6;
9,2460001528327E-6;
1,29465112483699E-5;
1,33392121315856E-5;
1,13502967291366E-5;
1,03958710309546E-5;
1,31466302429842E-5;
1,84404615602065E-5;
2,12442043279427E-5;
1,61498140427497E-5;
1,87544873540746E-6;
-1,68457555157696E-5;
-3,17567606098493E-5;
-3,63238408132251E-5;
-2,98958132098817E-5;
-1,77052295313259E-5;
-6,83195442008949E-6;
-1,31759580585203E-6;
-1,20591377870345E-7;
8,21054584356218E-7;
4,48236494467135E-6;
1,01717124472075E-5;
1,45493187234806E-5;
1,51212919822058E-5;
1,29239603379514E-5;
1,1824344573824E-5;
1,48579462328176E-5;
2,07580987691324E-5;
2,39243704710671E-5;
1,83385455953997E-5;
2,57385968139986E-6;
-1,81293986535102E-5;
-3,46510374035666E-5;
-3,98002238441425E-5;
-3,28817155488562E-5;
-1,96570469990099E-5;
-7,87989140331975E-6;
-1,94126980306612E-6;
-6,64471828191432E-7;
4,02214102697303E-7;
4,48843943910854E-6;
1,08068123446938E-5;
1,56903125000555E-5;
1,64068470303784E-5;
1,40694934663875E-5;
1,28667665686989E-5;
1,60960484173591E-5;
2,24218589895479E-5;
2,58496601730763E-5;
1,99364123590657E-5;
3,15319877215254E-6;
-1,89119298857167E-5;
-3,6547957340192E-5;
-4,21166434620864E-5;
-3,48941294968918E-5;
-2,10001162889488E-5;
-8,63986067854754E-6;
-2,43385715802857E-6;
-1,1099270496453E-6;
4,52248487050206E-8;
4,42788149107317E-6;
1,11821450986716E-5;
1,64200406995665E-5;
1,72491715574003E-5;
1,48303273747836E-5;
1,35605258605631E-5;
1,69090625496269E-5;
2,35025243125141E-5;
2,71029399077414E-5;
2,10038238133171E-5;
3,61147083620485E-6;
-1,92767063152504E-5;
-3,75953943329812E-5;
-4,34410432847068E-5;
-3,60746310885807E-5;
-2,18259516107663E-5;
-9,15930963614202E-6;
-2,82091779954728E-6;
-1,47769057610343E-6;
-2,6576767415358E-7;
4,30167810161936E-6;
1,13240302897412E-5;
1,67845306693723E-5;
1,76980261961301E-5;
1,52480541345851E-5;
1,39425310356987E-5;
1,73448319033479E-5;
2,4069993491525E-5;
2,77662723800207E-5;
2,16026964055307E-5;
3,95309098803099E-6;
-1,92945879793848E-5;
-3,79238682898276E-5;
-4,39222573088674E-5;
-3,65471787193413E-5;
-2,22116090046334E-5;
-9,4740094816467E-6;
-3,11760764132435E-6;
-1,77817398254436E-6;
-5,36385242664388E-7;
4,12012050945239E-6;
1,12665488552508E-5;
1,68363789127603E-5;
1,78096208726394E-5;
1,53713521446366E-5;
1,40570818860384E-5;
1,74577271384982E-5;
2,41989940036703E-5;
2,79255692464011E-5;
2,18001972795576E-5;
4,19185272278499E-6;
-1,9021674908064E-5;
-3,76449977248061E-5;
-4,36892439279022E-5;
-3,64181762678221E-5;
-2,2220606915413E-5;
-9,60978299649916E-6;
-3,3311225475766E-6;
-2,01456950484099E-6;
-7,65728407157157E-7;
3,89849337723721E-6;
1,10466541802012E-5;
1,66293425763608E-5;
1,76407458170047E-5;
1,52497442071904E-5;
1,39493070344272E-5;
1,73017617931827E-5;
2,3961904941052E-5;
2,76631777881977E-5;
2,16611539088715E-5;
4,34325223863891E-6;
-1,85069920747025E-5;
-3,68591763745377E-5;
-4,28587669254389E-5;
-3,57841808847829E-5;
-2,19106455034485E-5;
-9,59019327924185E-6;
-3,46831446349407E-6;
-2,19035860548932E-6;
-9,53766956501755E-7;
3,64981439978526E-6;
1,06970496269165E-5;
1,62113770124042E-5;
1,7242012905778E-5;
1,49270585345836E-5;
1,3658851545968E-5;
1,69245294261674E-5;
2,34229606447207E-5;
2,70523557039702E-5;
2,12428126146971E-5;
4,41952665365399E-6;
-1,77971763332113E-5;
-3,56599619342937E-5;
-4,15394724323882E-5;
-3,47356415728104E-5;
-2,13369944595184E-5;
-9,4396075363123E-6;
-3,53844169400375E-6;
-2,31175998967382E-6;
-1,10350657099502E-6;
3,38294772895036E-6;
1,0244581862244E-5;
1,56232968893127E-5;
1,66567734880607E-5;
1,44405927987945E-5;
1,32192963327508E-5;
1,63668867457917E-5;
2,26381731840672E-5;
2,61574022812818E-5;
2,05951384830326E-5;
4,43009080551765E-6;
-1,69359290638062E-5;
-3,41334195826011E-5;
-3,98310663848898E-5;
-3,3355886924256E-5;
-2,05512774052896E-5;
-9,18176464724581E-6;
-3,55157916086353E-6;
-2,38602615180455E-6;
-1,21917764579864E-6;
3,10450832847151E-6;
9,71224321472227E-6;
1,49008575419674E-5;
1,59232350301202E-5;
1,38232581874795E-5;
1,26603224840238E-5;
1,56651446957339E-5;
2,16575776774047E-5;
2,50359379463279E-5;
1,97630499283292E-5;
4,38362492392045E-6;
-1,59621049022591E-5;
-3,23563492910617E-5;
-3,78226168841602E-5;
-3,17193810571582E-5;
-1,95996376469958E-5;
-8,83790458063716E-6;
-3,51674750299182E-6;
-2,41962285740294E-6;
-1,30447965524841E-6;
2,82058589626425E-6;
9,1208623863074E-6;
1,40764029881849E-5;
1,50760340477075E-5;
1,31050376425652E-5;
1,20090795760644E-5;
1,48523883853642E-5;
2,05265243802313E-5;
2,3740135392741E-5;
1,87874961717577E-5;
4,28891537053985E-6;
-1,49091643192851E-5;
-3,03959845634418E-5;
-3,55923545410948E-5;
-2,98915268785491E-5;
-1,85224771238029E-5;
-8,42643456148421E-6;
-3,44158570065468E-6;
-2,4179560903351E-6;
-1,36236732285102E-6;
2,53692728428368E-6;
8,48928997062232E-6;
1,31790354393275E-5;
1,41463578176229E-5;
1,23130243289417E-5;
1,12901413710075E-5;
1,39584232657728E-5;
1,92856470758051E-5;
2,23166674871171E-5;
1,77052932536764E-5;
4,15445362509622E-6;
-1,3805854849231E-5;
-2,83108895251088E-5;
-3,32086548557656E-5;
-2,79295638850642E-5;
-1,73551918506178E-5;
-7,96353895564383E-6;
-3,33289896437227E-6;
-2,38591012056555E-6;
-1,39557828442331E-6;
2,25844979435283E-6;
7,83397870827431E-6;
1,22342465262092E-5;
1,31615615296499E-5;
1,14710133194452E-5;
1,05251050694638E-5;
1,30094049250785E-5;
1,79705666336678E-5;
2,0806470153327E-5;
1,65488160926406E-5;
3,98792451344832E-6;
-1,26769862761839E-5;
-2,61519443599022E-5;
-3,07310629828794E-5;
-2,58834698096421E-5;
-1,61288668821342E-5;
-7,46367433248596E-6;
-3,19704363597739E-6;
-2,32819957245983E-6;
-1,40695788089926E-6;
1,98899405714289E-6;
7,16884769132085E-6;
1,12638697775181E-5;
1,21451589984011E-5;
1,05994689848739E-5;
9,73253759936657E-6;
1,20278603695451E-5;
1,66120282571395E-5;
1,92449273321165E-5;
1,53461184196255E-5;
3,79610870287028E-6;
-1,15438239700549E-5;
-2,3962946741631E-5;
-2,82109394826981E-5;
-2,3796475852769E-5;
-1,48705665903473E-5;
-6,93967495511329E-6;
-3,03993102155567E-6;
-2,2493334342759E-6;
-1,39938740537439E-6;
1,73147247727149E-6;
6,50552786712444E-6;
1,0286406565911E-5;
1,11171656417419E-5;
9,71583785853243E-6;
8,928288553848E-6;
1,10330428874912E-5;
1,52363425090915E-5;
1,76623748569339E-5;
1,41213404843611E-5;
3,58504799781263E-6;
-1,04242291671322E-5;
-2,17810109559111E-5;
-2,56919290851734E-5;
-2,17054129997275E-5;
-1,36034693693636E-5;
-6,40269450081415E-6;
-2,86687706211093E-6;
-2,15344838183944E-6;
-1,37560100928049E-6;
1,48810869605942E-6;
5,85369934213717E-6;
9,3174272905331E-6;
1,00944949665594E-5;
8,83491144923915E-6;
8,12582142249062E-6;
1,00413018435216E-5;
1,38658375638577E-5;
1,60845806096854E-5;
1,28951002218645E-5;
3,36017549231403E-6;
-9,3328661461451E-6;
-1,9637024076722E-5;
-2,3210494471505E-5;
-1,96411386957432E-5;
-1,23470911851246E-5;
-5,86225342314521E-6;
-2,68256169766037E-6;
-2,04425408331493E-6;
-1,33812317739931E-6;
1,26056196083785E-6;
5,22131147060928E-6;
8,36986899520405E-6;
9,09126609861944E-6;
7,96907594346042E-6;
7,33643261969558E-6;
9,06634131304625E-6;
1,25192069314361E-5;
1,45331416972813E-5;
1,16847807617775E-5;
3,12634551125305E-6;
-8,28150387955172E-6;
-1,75562190739131E-5;
-2,07965673448324E-5;
-1,76290716905906E-5;
-1,11176059188151E-5;
-5,3263747116296E-6;
-2,49107220313544E-6;
-1,92505755232614E-6;
-1,28927652041877E-6;
1,04998055513715E-6;
4,61472362875618E-6;
7,45424329682683E-6;
8,1190184767962E-6;
7,12849196165089E-6;
6,56940937483122E-6;
8,11942233735933E-6;
1,12117969089021E-5;
1,30258096869595E-5;
1,05047710588479E-5;
2,8878223869158E-6;
-7,27935363851185E-6;
-1,55587587486049E-5;
-1,84742062690802E-5;
-1,56897422415757E-5;
-9,92819179826846E-6;
-4,80174758419595E-6;
-2,29598193590143E-6;
-1,79882230302554E-6;
-1,23122111975903E-6;
8,57030900181751E-7;
4,03884773423692E-6;
6,5788576154472E-6;
7,18694384354911E-6;
6,32128956035163E-6;
5,83219602456238E-6;
7,20956873341544E-6;
9,95590456160773E-6;
1,15768415553401E-5;
9,36672596761098E-6;
2,64829301646858E-6;
-6,33337267786262E-6;
-1,36602932908277E-5;
-1,62622303912693E-5;
-1,38393068296924E-5;
-8,78933931743484E-6;
-4,29385702053603E-6;
-2,10038322423283E-6;
-1,66818531861731E-6;
-1,1659518020751E-6;
6,81967533971783E-7;
3,49730484766961E-6;
5,750044073188E-6;
6,30212272793281E-6;
5,55377252422584E-6;
5,13059118868998E-6;
6,34380303231094E-6;
8,76109459747018E-6;
1,01973580830208E-5;
8,27983351379679E-6;
2,41090779469048E-6;
-5,44852838987949E-6;
-1,18724664774042E-5;
-1,41747892937233E-5;
-1,2090020494621E-5;
-7,70912849561507E-6;
-3,80709132169247E-6;
-1,90691857881931E-6;
-1,53545966681248E-6;
-1,09528582670386E-6;
5,24699213206945E-7;
2,99259149588427E-6;
4,97240464845797E-6;
5,46978769748297E-6;
4,83063645701022E-6;
4,46893039291649E-6;
5,52738062831152E-6;
7,63451865255374E-6;
8,89570467916951E-6;
7,25110191162948E-6;
2,17832939665077E-6;
-4,62804445325765E-6;
-1,02033868322115E-5;
-1,22219119978497E-5;
-1,04506850643238E-5;
-6,69349595649793E-6;
-3,34484856894671E-6;
-1,71780132036205E-6;
-1,40264713918956E-6;
-1,02085912018352E-6;
3,8486229918985E-7;
2,52623874729772E-6;
4,24902777299567E-6;
4,69354331066245E-6;
4,15516575647853E-6;
3,85027525112924E-6;
4,76400167778669E-6;
6,58119846475194E-6;
7,67778048301503E-6;
6,28560817472724E-6;
1,95277515834182E-6;
-3,87363637259935E-6;
-8,65808990283396E-6;
-1,04100314888864E-5;
-8,92708103893345E-6;
-5,74649849540868E-6;
-2,90964356218577E-6;
-1,53485117859453E-6;
-1,27146226667756E-6;
-9,44127883387621E-7;
2,61866315016783E-7;
2,09894714160303E-6;
3,58170234693536E-6;
3,97558919913787E-6;
3,52942233680021E-6;
3,27656975170744E-6;
4,05600972740592E-6;
5,6043115199327E-6;
6,54735202448002E-6;
5,3867314733091E-6;
1,736049323959E-6;
-3,18573846406906E-6;
-7,23896808160382E-6;
-8,74248167735636E-6;
-7,5223784098705E-6;
-4,87055327129466E-6;
-2,50321844254875E-6;
-1,35953138620722E-6;
-1,14333977655715E-6;
-8,66374282263224E-7;
1,54947691903975E-7;
1,71070911318192E-6;
2,97108193666415E-6;
3,3169067781464E-6;
2,95440429264526E-6;
2,74879210374776E-6;
3,40457446195354E-6;
4,70542343128098E-6;
5,50633847852478E-6;
4,55638637184004E-6;
1,52958234940469E-6;
-2,56371218642164E-6;
-5,94617123810698E-6;
-7,2199542230031E-6;
-6,23751630101361E-6;
-4,06667500128071E-6;
-2,12663889467134E-6;
-1,192989047267E-6;
-1,01947570438943E-6;
-7,8872148431276E-7;
6,31977611684489E-8;
1,36092791448383E-6;
2,41688483545818E-6;
2,71744954759209E-6;
2,43020801152457E-6;
2,26710306112496E-6;
2,80987186827668E-6;
3,88474289989375E-6;
4,55508152530787E-6;
3,79521512839703E-6;
1,33446399620304E-6;
-2,0060321867627E-6;
-4,77797248158773E-6;
-5,84091892225822E-6;
-5,07155178357988E-6;
-3,33468888877602E-6;
-1,78039124972407E-6;
-1,03607900581687E-6;
-9,00829422130115E-7;
-7,12134565553154E-7;
-1,43875021371516E-8;
1,04852450402075E-6;
1,91803582640083E-6;
2,17630947893291E-6;
1,95617260053644E-6;
1,83096354882682E-6;
2,27122858963842E-6;
3,14132574887011E-6;
3,69259513844562E-6;
3,10279123955002E-6;
1,15147994886921E-6;
-1,51045525529453E-6;
-3,73109734851109E-6;
-4,60200992875374E-6;
-4,02198275994311E-6;
-2,67342259263463E-6;
-1,46446013479631E-6;
-8,89406044418594E-7;
-7,88162627381857E-7;
-6,37433199413161E-7;
-7,88764029569507E-8;
7,72034138904777E-7;
1,47281580403581E-6;
1,69187061972474E-6;
1,53101685833919E-6;
1,43927180628222E-6;
1,78728346214838E-6;
2,47328032287838E-6;
2,91679691270987E-6;
2,47779988921749E-6;
9,81148808007041E-7;
0,0093323598710605;
0,0226269287947025;
0,0163692388995134;
0,00943001114642879;
0,0121673109040299;
0,00702498891407716;
0,00563406378147806;
0,00458202801061064;
0,000839934793215227;
0,00103226099183058;
-0,00118990980900307;
-0,00199087365886417;
-0,00280587497963154;
-0,00455252836219884;
-0,00488623454012219;
-0,00585454459800843;
-0,00593933932369314;
-0,00618026361370966;
-0,00699165847790915;
-0,00791987979216492;
-0,00934958195027052;
-0,0102448709937923;
-0,0105210233839378;
-0,0101107790524646;
-0,00920921908580792;
-0,00843121828623218;
-0,0078310622510134;
-0,00745805436787535;
-0,0070485495593531;
-0,00641885008437846;
-0,005675134135552;
-0,00495775330867659;
-0,00445219747547635;
-0,00408994759674828;
-0,0036630432708622;
-0,00302559209511959;
-0,00222688047637713;
-0,00157121642326423;
-0,00135965513315992;
-0,00166456619671133;
-0,00222609167136451;
-0,0025883303992181;
-0,00240843424520708;
-0,00165871376825509;
-0,000625824881949281;
0,000315977094961937;
0,000963149898762619;
0,00137537796809768;
0,0017647009301398;
0,00227825703481836;
0,00287385115595787;
0,00337864385109819;
0,0036654971419705;
0,00378495470292032;
0,00392526111234146;
0,00423409033186345;
0,00465499505330115;
0,00493020588202919;
0,0047863802339889;
0,00416260382330829;
0,00329830680928968;
0,00260055162045303;
0,00238311214873302;
0,00267043614828055;
0,00320848395537927;
0,00366490506265353;
0,00385835842828257;
0,00384553839085128;
0,00381693578133876;
0,00390596076136322;
0,00407637621191981;
0,00417479834616597;
0,0040894197148083;
0,0038662166669797;
0,00367423146091868;
0,00364587329757651;
0,00373137716500391;
0,00370186759038505;
0,00331455207316001;
0,00251598396285096;
0,0015197111117363;
0,000687959515712076;
0,000299617465157308;
0,000376139139826599;
0,000691696991410313;
0,000951118667259432;
0,000993438795095238;
0,000868854539532516;
0,000745992864179048;
0,000742692124032589;
0,000826395881052485;
0,000860876384371366;
0,00074680611079897;
0,00052444086416792;
0,000342723501441141;
0,00031802604709974;
0,000405704779210982;
0,00040307297785239;
9,53943722572753E-5;
-0,000564858318492061;
-0,010723276701023;
-0,0246906929986761;
-0,0187061264564176;
-0,0116222582058545;
-0,0139972796348475;
-0,00853608359000523;
-0,00701215445467176;
-0,00596928175719655;
-0,00223059849334143;
-0,00231752449111504;
8,95223303724345E-5;
0,00103441695041464;
0,00186457168325096;
0,00353248668729547;
0,00382384050398618;
0,00488776223566593;
0,00516642666046886;
0,00552133128687637;
0,00617834781465713;
0,00664200061629193;
0,00746114445998202;
0,00787827011889179;
0,00802225620072853;
0,0078410135086188;
0,00735483325828315;
0,00695102615443484;
0,00655975837646787;
0,00626823581703557;
0,00594124100952818;
0,00548440211292327;
0,00497822409107868;
0,00445842974972593;
0,00403429928828109;
0,00366756878458339;
0,00326312885271059;
0,002762960806351;
0,00218189432422715;
0,00167014374367372;
0,00136598449622575;
0,0013059052119094;
0,00137208958172262;
0,00134901150966255;
0,00107802071846514;
0,000544380327593647;
-0,000115919405321449;
-0,000724502439809286;
-0,00118444206108794;
-0,00152258917322509;
-0,00184041038551938;
-0,00220819913002242;
-0,00260570900165631;
-0,00294972635110199;
-0,00317824027493124;
-0,00331561959940722;
-0,00345326113104513;
-0,00366350751788991;
-0,00391929307627554;
-0,00409441481184371;
-0,00405430728260547;
-0,0037683114575254;
-0,00335430919780069;
-0,00301418570264316;
-0,00290471207777391;
-0,0030393592060083;
-0,00329232749496936;
-0,00349775425743666;
-0,0035647003708784;
-0,00352173947172764;
-0,00346534146853237;
-0,00346364914528683;
-0,00349896840221963;
-0,00349372698609451;
-0,00339107724020041;
-0,00321467631486013;
-0,00305158549589981;
-0,00297054878073336;
-0,00294659432151158;
-0,00286174505680764;
-0,00258998541338021;
-0,00210308244071358;
-0,00151205809411336;
-0,00100650511043615;
-0,00073345953943608;
-0,00070532875227584;
-0,000804018403870087;
-0,000873955419669444;
-0,000829821245155048;
-0,000698169747722756;
-0,000568948014383898;
-0,000505487277543198;
-0,000490778912213512;
-0,000451869032357465;
-0,000335205122377658;
-0,000162393208313031;
-1,41423967575817E-5;
4,60402988669044E-5;
4,20944325102723E-5;
8,46062688381419E-5;
0,000291537116047019;
0,000689686159771688;
0,00117623510847979;
0,0015753911564745;
0,0017511281233199;
0,00169270473991812;
0,00151064015727391;
0,00135013897738572;
0,00129102199718098;
0,00130920004090295;
0,0013217935273237;
0,00127067457534676;
0,0011722226890378;
0,00109461250433412;
0,00108795813826639;
0,00113272244521429;
0,00115467498342295;
0,00109555285958554;
0,000977986608241295;
0,000904643011516882;
0,000984869980697085;
0,00124368397040813;
0,00158638925774603;
0,00185101833691988;
0,00191242429241652;
0,00176108399981006;
0,00149922793447855;
0,00126092031687487;
0,00111985432833168;
0,00105396840589868;
0,000987099100903691;
0,000865903349392408;
0,000705577264842492;
0,000568885887698195;
0,000501916457940859;
0,000486720926185579;
0,000455137878034085;
0,000353707983443193;
0,000203213474605648;
9,77908406657314E-5;
0,000137592155431287;
0,000345385907324279;
0,000634257274808974;
0,000855768901073659;
0,000895309089585095;
0,000744139730871155;
0,000495718050067896;
0,000272507589101942;
0,000141689741407064;
8,29188269354002E-5;
2,64675506474375E-5;
-7,65047183478799E-5;
-0,000212271026601982;
-0,000323742855700676;
-0,000369092019075217;
-0,000364881622044647;
-0,0003733973946286;
-0,000443480769076362;
-0,000556356971615367;
-0,000626531520820548;
-0,000563117722270864;
-0,000345659282582459;
-5,33888895733549E-5;
0,000178649496410075;
0,000246249821469723;
0,000141398497856156;
-5,11854851307388E-5;
-0,000220544494921502;
-0,000305926506233882;
-0,000325940183170297;
-0,000343900657351414;
-0,000404148539551841;
-0,00049435062359435;
-0,000562949864087183;
-0,000572231322574923;
-0,000537293726637625;
-0,000514532045852744;
-0,000548139173486423;
-0,000621209165572641;
-0,000656626321905294;
-0,00057247346826033;
-0,000350418348309204;
-6,20078633945434E-5;
0,000170986067952877;
0,000254680095394188;
0,000181888434486518;
2,88993668522477E-5;
-0,000104450861338589;
-0,000163551666419403;
-0,000165168336486618;
-0,000166214368272435;
-0,000206506441188918;
-0,000274942233212731;
-0,000325226744050089;
-0,000323520070807288;
-0,000283365290545066;
-0,000255303259041246;
-0,000278893614471632;
-0,000338939549275096;
-0,000366355824032886;
-0,00028782017448645;
-8,69476956529741E-5;
0,000172273294267793;
0,000381023752773127;
0,000455492580900102;
0,000389358299774194;
0,000250813274764336;
0,000129003962393168;
7,2672294656302E-5;
6,68967792400372E-5;
6,09982196158383E-5;
1,95690607700979E-5;
-4,74378345107689E-5;
-9,87638028452973E-5;
-0,000104267286822978;
-7,59626736739818E-5;
-5,87342629219829E-5;
-8,76714074580622E-5;
-0,000149212124945623;
-0,000181979020583907;
-0,000120892802058385;
4,85740741375852E-5;
0,000269690858244197;
0,000446053348003826;
0,000503485815134325;
0,000436469254356783;
0,00030541877996203;
0,000189229334196316;
0,000131011219118599;
0,000117586321686537;
0,000104208126166977;
5,96498715178242E-5;
-7,26593150489953E-6;
-6,01182447534896E-5;
-7,23228301774754E-5;
-5,44673877777751E-5;
-4,60807584860956E-5;
-7,80334769742892E-5;
-0,000138359717352267;
-0,000173052740469654;
-0,000124904031677667;
1,88201670913079E-5;
0,000208254752967241;
0,000358749516916991;
0,000405232143263012;
0,000342899344645216;
0,000224747612026549;
0,000119917284701572;
6,61511149732268E-5;
5,18921138658257E-5;
3,79782577343696E-5;
-2,89488395508964E-6;
-6,30069774991186E-5;
-0,000110540161279514;
-0,000122297714949708;
-0,000107544064343359;
-0,000100777051208933;
-0,000128912544070567;
-0,000181516118966852;
-0,000211552120755414;
-0,00016924553474817;
-4,35640112640091E-5;
0,000122080551071994;
0,000254085706849988;
0,00029592443291246;
0,000243446323062541;
0,000142657526043475;
5,35218074399068E-5;
8,73423997543082E-6;
-1,74516941256201E-6;
-1,18438365145836E-5;
-4,51939689622906E-5;
-9,51146165580509E-5;
-0,000134105026259865;
-0,000142141774945749;
-0,000127248692950188;
-0,000119213853184476;
-0,000141253616172532;
-0,00018436574847516;
-0,000208028205439809;
-0,000169404645173175;
-5,90416065856759E-5;
8,56839314728035E-5;
0,00020148662492386;
0,000239814217071814;
0,000197126938914113;
0,000112919001668553;
3,86116731220402E-5;
2,2093697307213E-6;
-4,90467770045727E-6;
-1,17771930356861E-5;
-3,86165940002069E-5;
-7,97005104332311E-5;
-0,000111531249333325;
-0,000117022397690129;
-0,000103034179636159;
-9,49724642199444E-5;
-0,000112612413541641;
-0,000148272336322146;
-0,000167459924164099;
-0,000133757452172043;
-3,91604924810043E-5;
0,00941798938769904;
0,0228133943997271;
0,0165897374417053;
0,00961468779140067;
0,0122803095093444;
0,00707467965954749;
0,0056528727243537;
0,00459496394696705;
0,000847073001793559;
0,00101636111393096;
-0,00124115509404422;
-0,00206962027288834;
-0,00288963812519393;
-0,00462467950138187;
-0,00495184903661237;
-0,00593558381823072;
-0,00605122366797568;
-0,0063090326449912;
-0,00709235212399723;
-0,00794072450050893;
-0,00926579321520448;
-0,0100772606223939;
-0,0103253081530521;
-0,00994518852439604;
-0,00910364617906639;
-0,00837875133271322;
-0,00780479997466364;
-0,00743726684141789;
-0,00703319829251053;
-0,00642324027634838;
-0,00570946695627973;
-0,00501554205934193;
-0,00451485209090529;
-0,00414372485791454;
-0,00371211623205476;
-0,00308804799228941;
-0,00231540164864939;
-0,00167429565041817;
-0,00144030708592374;
-0,00168023629870447;
-0,00215640166034894;
-0,00245029331809251;
-0,00224763626918889;
-0,00152276816052214;
-0,000539159741266892;
0,000358990972058252;
0,00098443584890816;
0,00139181761449882;
0,00177633231403667;
0,0022734674706623;
0,00284437636894062;
0,00332976435358994;
0,00361229521862921;
0,0037385783821164;
0,00388236961247205;
0,00418011557867666;
0,00457974266784455;
0,00484297330099153;
0,00471694984497597;
0,00414520244625797;
0,0033493319921938;
0,00270641704438657;
0,00250737090249297;
0,00277504934358312;
0,00327394930528452;
0,00369569332646989;
0,00387190361752676;
0,00385524962384369;
0,00382284183763912;
0,00389886143286129;
0,00404973783897628;
0,00413280405466437;
0,00404398480982977;
0,00382614195269399;
0,00363690689797071;
0,00359987279075831;
0,00366872155721405;
0,00362985451727041;
0,00325648693371223;
0,00249860938773845;
0,00155583632087116;
0,000767044287915656;
0,000393374514008916;
0,000455077788998039;
0,000740704794961664;
0,000973616722117508;
0,00100283547357112;
0,000875442436270016;
0,000749776927563551;
0,000736609534134119;
0,000805441617800834;
0,00082824026576574;
0,000711565947481194;
0,000493291365211979;
0,00031369064570913;
0,000282466619338705;
0,000357597766897832;
0,000347925188015748;
5,07406467430861E-5;
-0,000578939430469678;
-0,0106971775577661;
-0,024632263196394;
-0,0186364235606963;
-0,0115631981823649;
-0,0139600872893425;
-0,00851827071829873;
-0,00700388104869507;
-0,00596301749493477;
-0,0022263626394912;
-0,0023204918964184;
7,56961325809062E-5;
0,00101204214166547;
0,00184021765095751;
0,00351098655918215;
0,003803779986296;
0,00486295235933094;
0,00513257321953519;
0,00548236310940274;
0,00614671569627365;
0,00663191320400327;
0,00747938877723768;
0,00791936137313117;
0,00807149409801437;
0,00788314277008527;
0,00738205036646815;
0,00696500759366202;
0,0065672196572522;
0,00627429045552867;
0,00594585406478668;
0,00548405869431771;
0,00497045633022797;
0,00444478326578329;
0,00401915347215813;
0,00365413294978161;
0,00325048215684225;
0,00274706318357443;
0,00215996457133914;
0,00164473804226564;
0,00134512156551462;
0,00129867666049477;
0,0013828241264573;
0,00137428441153008;
0,00110866858812648;
0,000570948777753093;
-9,82510735235125E-5;
-0,000714755246899338;
-0,00117860761728072;
-0,00151764641268361;
-0,0018364027072862;
-0,00220719680217285;
-0,00260914561237005;
-0,00295671449645674;
-0,00318629367614105;
-0,00332293186887661;
-0,00346032414731513;
-0,00367250118546656;
-0,00393168868504006;
-0,00410883951566922;
-0,00406656723546546;
-0,00377373077062073;
-0,00335068171770627;
-0,00300316421652622;
-0,00289069308534414;
-0,00302680300305289;
-0,00328348529140925;
-0,00349224204403192;
-0,00356083156299719;
-0,0035182869550608;
-0,00346235423636603;
-0,0034619572785882;
-0,00349911780992519;
-0,00349539314791035;
-0,00339339427711839;
-0,00321703873124311;
-0,00305411949312977;
-0,00297384571328466;
-0,00295100742268611;
-0,00286691206263316;
-0,0025949765186914;
-0,00210698926943165;
-0,00151448797565937;
-0,00100760822417753;
-0,000733581405322232;
-0,000704685373081836;
-0,000802676677848596;
-0,000872033764211415;
-0,000827600529107012;
-0,000695942653049569;
-0,000566768201962882;
-0,00050313512519892;
-0,000488049491824223;
-0,00044891392658228;
-0,000332528168629295;
-0,000160404231613607;
-1,26609938085996E-5;
4,77602878781137E-5;
4,46404954308814E-5;
8,74888700508856E-5;
0,000292938334699568;
0,00068734368696577;
0,0105024469451755;
0,0241941241611604;
0,0181121415727907;
0,011116689458215;
0,0136752964570829;
0,00837541100139591;
0,00692686114094453;
0,00589328886834553;
0,002163972177601;
0,00230614054649295;
-1,29171916486224E-5;
-0,000890361998729106;
-0,0017121652878281;
-0,00341516438543677;
-0,00372764063397762;
-0,00475426856319576;
-0,00495471448344958;
-0,00526808747363136;
-0,00600179999874844;
-0,00667785067046639;
-0,00777347096904193;
-0,00841084756017919;
-0,0086272153718207;
-0,00836447497066351;
-0,00771809577500941;
-0,00717253381398455;
-0,00671050324575742;
-0,00640279093616281;
-0,0060596647304955;
-0,00554909366301947;
-0,00496246139607757;
-0,00437932123153452;
-0,00394059207968828;
-0,00359512390723761;
-0,00320077571008498;
-0,00266320039995593;
-0,00201161234432289;
-0,0014596516808329;
-0,00121205632019174;
-0,00131940530885898;
-0,00160542035746205;
-0,00175668650778888;
-0,00154019342522831;
-0,000936503071662136;
-0,000142701721176602;
0,000584120069047514;
0,00110458023629161;
0,00145887053056967;
0,00179248035663462;
0,00220602577513241;
0,00267045285949671;
0,00306729614946805;
0,00330918576364204;
0,00343089390068466;
0,00356151806760937;
0,0038024259994336;
0,00411499947576796;
0,00432242506252396;
0,00423728133590174;
0,00381787783462039;
0,00322871607488459;
0,00274940783647448;
0,00259555465230949;
0,00278417654527563;
0,00314106100364591;
0,00343820938162229;
0,00355130160839057;
0,00351949331199708;
0,00347386657093947;
0,00350631360573537;
0,00359219937305729;
0,00362639578801448;
0,00353232428461501;
0,00334182007451036;
0,0031712905174891;
0,0031119709346696;
0,00312987356287346;
0,00306786981986453;
0,00275924279968842;
0,00216744862704925;
0,0014395399051827;
0,000824829059574059;
0,000515323635970284;
0,000525954546016877;
0,000701522336897845;
0,000839086960059809;
0,0008280217156469;
0,000702993788590945;
0,000580176701027719;
0,000540796274981895;
0,000562556456162858;
0,000551779608478072;
0,000440170927037965;
0,000255525287413829;
0,000100470522423671;
5,51998201775975E-5;
8,90011282683897E-5;
6,22864885393017E-5;
-0,000172849783522007;
-0,000649125473271632;
-0,0105705172187232;
-0,0243468868896851;
-0,0182933508970992;
-0,0112681927040492;
-0,0137676313477522;
-0,00841574238737362;
-0,00694193170607724;
-0,0059035552113278;
-0,0021695663651048;
-0,00229331519902045;
5,3811012618644E-5;
0,000952883834631007;
0,00177842126249405;
0,00347207935266863;
0,00377920690592715;
0,00481747887191705;
0,00504127136827985;
0,00536704208427648;
0,00607879885883109;
0,0066939172340246;
0,00771050418237962;
0,00828507366497742;
0,00848052782253981;
0,00824001653548596;
0,00763764886078247;
0,00713081499789158;
0,0066878671841323;
0,00638426830412503;
0,0060451762768506;
0,00554864845748279;
0,00498303652571295;
0,00441621541834827;
0,00398086571620104;
0,00362936248110433;
0,00323183131680645;
0,00270317898830246;
0,0020687804801165;
0,00152617164868713;
0,00126361467126505;
0,00132859380457247;
0,00155964087329972;
0,00166739039417984;
0,00143660807348752;
0,000848535249824254;
8,53423335687118E-5;
-0,000614548980752669;
-0,0011215410657405;
-0,0014725611589909;
-0,00180297003887875;
-0,00220661278937958;
-0,00265652894094554;
-0,00304206734357567;
-0,00328128246988533;
-0,00340655184780274;
-0,00353890004861678;
-0,00377370953348324;
-0,00407492993836884;
-0,004276135718639;
-0,00420033799777482;
-0,00380761147585744;
-0,00325293469570797;
-0,00280081970990003;
-0,00265595591286976;
-0,00283517311198135;
-0,00317356547527137;
-0,00345450314410487;
-0,00355947441263067;
-0,00352559614792271;
-0,00347795208166793;
-0,00350453748501746;
-0,0035819942876433;
-0,00360965984467074;
-0,00351394387252009;
-0,00332526587753049;
-0,00315558667998473;
-0,00309297925520495;
-0,00310492243504428;
-0,0030397389559517;
-0,00273593175614138;
-0,00215757964591873;
-0,00144677317900417;
-0,000845435503012124;
-0,000540568738012043;
-0,000547330098409109;
-0,000714999972202134;
-0,00084573263740775;
-0,00083129633476544;
-0,000705373658293779;
-0,000581683619603476;
-0,000540018109199924;
-0,000558657139290192;
-0,000545520866462987;
-0,000433219723959258;
-0,000248972269770653;
-9,40602263558472E-5;
-4,7924816957491E-5;
-8,0379035825498E-5;
-5,3075004105096E-5;
0,000181114224485034;
0,000655252127406983;
0,00124095542137712;
0,00171948515508578;
0,00192209228957363;
0,00183584365067945;
0,00159799454753206;
0,00138830753200109;
0,00130529179434566;
0,00131902324457669;
0,00132725381912848;
0,00125847867543472;
0,00113292914422115;
0,00103431614594754;
0,0010239635485375;
0,0010777701186875;
0,00110485701348571;
0,00103410381009832;
0,000893212450064099;
0,000807242073331708;
0,000909000067530137;
0,00122848668614847;
0,00165042005319354;
0,00197836555773841;
0,00206099267627385;
0,00188708779672094;
0,00158030319002802;
0,00130230445708865;
0,00114166674360107;
0,00107166109051032;
0,00100072188672373;
0,000864904065582016;
0,000682480272451152;
0,00052852168525533;
0,000457962845502215;
0,000449234064160509;
0,000421050177690843;
0,00030985483287053;
0,000140442720965561;
2,45224465486429E-5;
8,05870521368732E-5;
0,000335241823268731;
0,000685448552790521;
0,000955897173026052;
0,00101164406069161;
0,00084270409570771;
0,000559196669767982;
0,000304962121404107;
0,000158659426294963;
9,63173989478649E-5;
3,63469438264222E-5;
-7,82205198696389E-5;
-0,000231277138915357;
-0,000356312636742517;
-0,000404759852465419;
-0,000395964962317215;
-0,000402199459771923;
-0,000479946796101804;
-0,000607366041736776;
-0,000685682166232953;
-0,000610220650098302;
-0,000357707558836602;
-1,95329556306894E-5;
0,000249130726892621;
0,000328937608488553;
0,000211016514450326;
-7,47692614760134E-6;
-0,000199729266286969;
-0,000296528675566908;
-0,000319186778366205;
-0,000339746849696136;
-0,000408489809742131;
-0,000511319078180841;
-0,000589807682851721;
-0,000601365429886096;
-0,000563133190818959;
-0,000538721207535972;
-0,000577798934503994;
-0,000661230866195823;
-0,000702406048229082;
-0,000609631972681468;
-0,000362654653399922;
-4,16839695861564E-5;
0,000217316481802425;
0,00030989032232419;
0,000228334706301703;
5,76591314778919E-5;
-9,12947762224621E-5;
-0,000158105586320423;
-0,00016143074642766;
-0,000164162504554949;
-0,00021014008294881;
-0,000287039488228056;
-0,0003439309431972;
-0,000343730000611041;
-0,000301372165274825;
-0,000272189539601601;
-0,000299325339824304;
-0,000366084698560478;
-0,000397192844721823;
-0,000313053205999485;
-9,61381849602051E-5;
0,00951738478177088;
0,0230391084798949;
0,0168624769007145;
0,00985158680986133;
0,0124387030970379;
0,00716430241449794;
0,00571203036314554;
0,00465314801060857;
0,000904039661382159;
0,00105114476783211;
-0,00124365869746797;
-0,00210037201072696;
-0,00292201089709083;
-0,00463910718812589;
-0,00495497667703023;
-0,00595448751953629;
-0,00610502150546589;
-0,00638108195369287;
-0,00712820056613078;
-0,0078775986071501;
-0,00907400580643257;
-0,00978313722865745;
-0,00999812943587183;
-0,00965727268030902;
-0,00889215368225912;
-0,00823509206016669;
-0,00769546055928212;
-0,0073364110103023;
-0,00694087393537082;
-0,00635750394269928;
-0,00568324169889639;
-0,00502073417185829;
-0,00452807701421883;
-0,00414773417667621;
-0,00371241143015502;
-0,0031078365222816;
-0,00237096084058265;
-0,00175089244152047;
-0,00149046914840889;
-0,0016493256693706;
-0,00201845014478313;
-0,0022277881235815;
-0,00200016977171192;
-0,00131251006983566;
-0,000397882851626485;
0,000439007500270101;
0,00103239382373425;
0,00143027723634201;
0,00180554082052146;
0,00227816844521321;
0,00281373753452807;
0,00327102424826343;
0,00354581568168615;
0,00367942556879392;
0,00382606453676445;
0,00410698964166269;
0,0044760769086243;
0,00472161584868642;
0,00461875349081658;
0,00411709941205453;
0,0034136820114611;
0,00284413754361873;
0,00266769440044848;
0,00290504110304379;
0,00334663560326786;
0,00371777584635353;
0,00386836501479227;
0,00384538719837028;
0,00380694637397841;
0,0038640363507784;
0,00398684899707189;
0,00404805791653608;
0,0039547051696916;
0,00374513626311384;
0,00356040278238497;
0,00351123500095106;
0,00355635907214955;
0,00350464200742937;
0,00315293862554763;
0,00245632574830378;
0,00159363501055428;
0,000868775415392962;
0,000516203801058019;
0,000554383683349456;
0,00079374392389893;
0,000985970186744132;
0,0009954293044638;
0,000864407426217828;
0,000735287675118851;
0,000707790711595275;
0,000754579912211064;
0,000760463715252365;
0,000641288151092756;
0,000431135572250123;
0,000256430617236875;
0,000216155246135659;
0,000272509505927337;
0,000253050152431047;
-2,52793395586755E-5;
-0,000603273314136095;
-0,0106542963871739;
-0,0245356722125738;
-0,0185217330836004;
-0,0114674546164339;
-0,0139021859830123;
-0,0084936646914307;
-0,00699535159695316;
-0,00595732046710476;
-0,00222341992011468;
-0,00232932052956772;
4,86981720414325E-5;
0,000971045433320574;
0,0017970153571696;
0,00347424841955791;
0,00377081624823566;
0,00482230439581601;
0,00507625780838587;
0,00541770595370162;
0,0060970743837931;
0,00662402529335353;
0,00752585566043052;
0,00800913892706057;
0,00817558808180056;
0,00797143936153243;
0,00743920568416137;
0,00699469507337735;
0,00658336386783006;
0,00628758602258852;
0,00595635564166223;
0,00548449355516205;
0,00495567814230115;
0,00441815823210426;
0,00399016713437126;
0,0036297497851697;
0,00322855468778504;
0,00271843476023159;
0,00211827777923784;
0,00159586954567629;
0,00130771578965685;
0,00129402932081235;
0,00142094713898266;
0,00144639510798998;
0,00119177039488802;
0,000641205293542154;
-5,29518739943983E-5;
-0,000691489357269392;
-0,00116637686646787;
-0,0015080150615009;
-0,00182930888674397;
-0,00220832238562092;
-0,00262249136182271;
-0,00297961509902893;
-0,00321131375263026;
-0,00334461878129409;
-0,00348032614766964;
-0,00369790315023988;
-0,00396738460055954;
-0,00415024229379049;
-0,00409924157144635;
-0,00378124102841163;
-0,00332532746612268;
-0,00295170869004948;
-0,00283078117887081;
-0,00297667368772211;
-0,00325237292156605;
-0,00347789635752959;
-0,00355486882612406;
-0,00351429161310804;
-0,00346026781360199;
-0,00346605722589805;
-0,00351239831342775;
-0,00351582530729251;
-0,00341537863270581;
-0,00323648021627936;
-0,00307223839451142;
-0,0029959042121851;
-0,00298061795490958;
-0,00290064818445247;
-0,00262215095556753;
-0,00211548943932694;
-0,0014986775337672;
-0,000972479871841998;
-0,000692061853032329;
-0,000670079888027245;
-0,000781691891595792;
-0,000863030315996206;
-0,00082451897365296;
-0,000694165992651749;
-0,000566256184061769;
-0,000506941745210946;
-0,000498296503295832;
-0,00046414760692574;
-0,000348779826511685;
-0,000174787207593509;
-2,60319398219445E-5;
3,17296439496472E-5;
2,34521402942584E-5;
6,35378937769244E-5;
0,000273609546602328;
0,000680944756493707;
0,00117935978218395;
0,00158803836485583;
0,00176754661780459;
0,00170724430547926;
0,0015205655427754;
0,00135601431540174;
0,00129494646786387;
0,00131265372654209;
0,00132474024645587;
0,00127222100349572;
0,00117183691280606;
0,00109269662212632;
0,00108541368843353;
0,00113012712667199;
0,00115192203194137;
0,00109220999823179;
0,00097389254098495;
0,000900100545150574;
0,000980300305816115;
0,00123920258057331;
0,0015818289906829;
0,00184640884586119;
0,00190839239837259;
0,00175865314646088;
0,00149908894713915;
0,00126283521392581;
0,00112281812479506;
0,00105706395093174;
0,000990276400282685;
0,00086991214803403;
0,000711058661246835;
0,00057548874809853;
0,000508388752673802;
0,000492046634757022;
0,000459692891495898;
0,000359158679817672;
0,000210871239419055;
0,000106617997764492;
0,000143699640894166;
0,000343923891045136;
0,000622675883931894;
0,000836082431327669;
0,000873475543281648;
0,000726759040734844;
0,000486346401363456;
0,000270246914634676;
0,000142957867836599;
8,48104156050889E-5;
2,89263418163553E-5;
-7,13595892460344E-5;
-0,000202820590676244;
-0,000310958771279351;
-0,000356007084167793;
-0,00035382846816999;
-0,000363598980581614;
-0,000431534832497728;
-0,000539734518268066;
-0,00060737422883674;
-0,000548865815426935;
-0,00034525140175764;
-7,13372776806356E-5;
0,000145986858038611;
0,000209205590123353;
0,000111146823180052;
-6,87371513447531E-5;
-0,000226829193591431;
-0,000306628534818877;
-0,000325585244715742;
-0,000342548211978047;
-0,000398562312179694;
-0,000482114596910051;
-0,000545539447685408;
-0,000554125498692606;
-0,000521893891763096;
-0,000500737145324106;
-0,000531142891286075;
-0,000597499006740028;
-0,000629236925826658;
-0,000551712161073306;
-0,000348522296991914;
-8,50738621437291E-5;
0,000127903120194226;
0,000205421257247975;
0,000141294676665215;
4,76288738402293E-6;
-0,000113987669015693;
-0,000165849053196296;
-0,000166042770074913;
-0,000165727501873008;
-0,00020053366019229;
-0,000260434738690826;
-0,00030405990265333;
-0,000301319136180949;
-0,000264378441228598;
-0,000238175501812701;
-0,000257713383616335;
-0,000309421682284448;
-0,000332238844205011;
-0,000261664743316229;
-8,35803745993777E-5;
0,00947894443836935;
0,0229598181551938;
0,0167696956208915;
0,00977401670280405;
0,0123911229987545;
0,00714326149268514;
0,00570409693424389;
0,00464791937195947;
0,000901453376928007;
0,0010583681189725;
-0,00122148355831394;
-0,00206651765469466;
-0,00288590359657143;
-0,00460773768228281;
-0,00492619987635804;
-0,00591900816871286;
-0,00605628993503338;
-0,00632502548700264;
-0,00708399190631393;
-0,00786740002777022;
-0,0184419341498845;
-0,0324831869254363;
-0,026453072882797;
-0,0191593433700145;
-0,0211043460522333;
-0,0152808794706611;
-0,0133384320596989;
-0,0119248804929769;
-0,00778478519426578;
-0,00738470042535446;
-0,0044745083147021;
-0,00300023400299386;
-0,00169034449998106;
0,000432505738862287;
0,00119930019521464;
0,00277836201559412;
0,00361216004895053;
0,00447995664713002;
0,00554127216743309;
0,00628009709898106;
0,00730042095841799;
0,00795400930677538;
0,00844688972450668;
0,00873597501641625;
0,00877235991928869;
0,00885192818820173;
0,00885538633578804;
0,00888241368097976;
0,00885032965146787;
0,00870105646800217;
0,00850475561710464;
0,00825398204553107;
0,00802520610604387;
0,0077930990501069;
0,00751099473689873;
0,0071598091771089;
0,0067406038702614;
0,00633635756489809;
0,00601305558952825;
0,00579034915543499;
0,00561419709278585;
0,00537931431193412;
0,00501363160778745;
0,00451107662473505;
0,00393950150661493;
0,00338633977213874;
0,00289841381703883;
0,0024650349639061;
0,00203910891002247;
0,00158925812947233;
0,00112651948777528;
0,000690850385562365;
0,000312371182312735;
-1,95333060278245E-5;
-0,000346083416257869;
-0,000699545599268825;
-0,00106651578482079;
-0,00138845115767499;
-0,00160374519215685;
-0,00169836398535112;
-0,00172552966141718;
-0,00177583003822856;
-0,00191889851751776;
-0,00215993740937315;
-0,0024422239734503;
-0,00269185251353876;
-0,00286864719627528;
-0,00298533762553508;
-0,00308432716913327;
-0,00319533493947637;
-0,00331058678476736;
-0,0033965143003333;
-0,00342883972140223;
-0,00341814272033946;
-0,00340208466613841;
-0,00341021496570914;
-0,00343203485149829;
-0,00341781191694731;
-0,00331491567308354;
-0,00311231234982375;
-0,00285739263338653;
-0,0026299156038149;
-0,00249127117377661;
-0,00244660160290291;
-0,00244720811794247;
-0,00242943142897749;
-0,00235891145490028;
-0,00224717477981593;
-0,00213137297976209;
-0,00203756371691175;
-0,00195921926546352;
-0,00186743672195391;
-0,00174133863507523;
-0,00159015891934951;
-0,00144647430154661;
-0,00133575150239636;
-0,00124880212105198;
-0,00114255981281254;
-0,00097148479045758;
-0,00072592033494789;
-0,000446509939620998;
-0,000201665291040206;
-4,38581985312662E-5;
2,29116552701917E-5;
4,09415988176121E-5;
6,53344716943001E-5;
0,000125980475354238;
0,000213381404783456;
0,000296102529123816;
0,000352274681585409;
0,000387970689005133;
0,000428403825799429;
0,000491887153470385;
0,000570973873492488;
0,000638295588963914;
0,000672597817617858;
0,000682217757097638;
0,000704349656490278;
0,000778222118420584;
0,00091243863398482;
0,00107278477960831;
0,00120148747591012;
0,0012544073963571;
0,00122862731719868;
0,00116050533430513;
0,00109718005915029;
0,00106432952875577;
0,00105422043667076;
0,00104055714702722;
0,0010051632566708;
0,000953486491237614;
0,000907105991455499;
0,000881719827593019;
0,000871260636364552;
0,000852872504398481;
0,00080887400134052;
0,000746493685456477;
0,000697183676824321;
0,000694022149451711;
0,000744296827827775;
0,000819351976997479;
0,000870831026547453;
0,000861878442889482;
0,000790192234985329;
0,000686298107821147;
0,000589650983193845;
0,000521697462678533;
0,000475961600988395;
0,000430501440295385;
0,000370170523139765;
0,000299495866361821;
0,000236390249465426;
0,000193830984119786;
0,00016669673907709;
0,000135952140107546;
8,68847871257023E-5;
2,54232850495893E-5;
-2,24984213906263E-5;
-2,96743635616394E-5;
9,74278748378738E-6;
7,19435135877746E-5;
0,000116944347538216;
0,000114324044647335;
6,21458162991644E-5;
-1,45586412355277E-5;
-8,34944773810236E-5;
-0,000127212007059904;
-0,000151172685631087;
-0,000173475471563389;
-0,000206617423994171;
-0,000247001259200379;
-0,000280123755974496;
-0,000295542334717543;
-0,000297570134959246;
-0,000301815339670494;
-0,000320327312095297;
-0,000348375892523587;
-0,000365036016161436;
-0,000348415899898339;
-0,000293954451496268;
-0,000221046906357416;
-0,000162067253837797;
-0,000141580066967487;
-0,000161150180127265;
-0,000200661974334733;
-0,000234230372885123;
-0,000247947308706805;
-0,000246284073839659;
-0,000243793783013728;
-0,000250503130399506;
-0,000263569321121825;
-0,00027147391827122;
-0,000265965265774274;
-0,00025053308829621;
-0,000237604074172616;
-0,000236735294221496;
-0,000244178185063408;
-0,000243412769704351;
-0,000217222007589243;
-0,000162097291629307;
-9,33679164599796E-5;
-3,6479357616989E-5;
-1,06480280216487E-5;
-1,70153908835996E-5;
-3,97844587150389E-5;
-5,87250748970612E-5;
-6,30125318407156E-5;
-5,6144476104751E-5;
-4,94173638333197E-5;
-5,05692859482022E-5;
-5,73572623014756E-5;
-6,08583330800766E-5;
-5,47079220078478E-5;
-4,1592932012496E-5;
-3,1036982190012E-5;
-3,03155300931497E-5;
-3,65022962160176E-5;
-3,69541181124959E-5;
-1,85708065070886E-5;
2,12659809726528E-5;
7,0890635268092E-5;
0,000111061440022345;
0,00012735028300638;
0,000119017001351358;
9,80415783480237E-5;
7,96502313407328E-5;
7,19484130525346E-5;
7,2319159373269E-5;
7,23678622784773E-5;
6,6393877930529E-5;
5,61125695556132E-5;
4,81489796806401E-5;
4,71967445663881E-5;
5,12781084697036E-5;
5,34335498919683E-5;
4,83971039748431E-5;
3,83565367394635E-5;
3,25163490958218E-5;
4,03277806539128E-5;
6,36106295445304E-5;
9,39182936852254E-5;
0,000117463628135099;
0,000124018432273039;
0,000113171392188156;
9,35146595768522E-5;
7,58440997400622E-5;
6,58486464471336E-5;
6,16625229766951E-5;
5,74176170008102E-5;
4,91772610399207E-5;
3,81660478044004E-5;
2,89647305234571E-5;
2,47749052717424E-5;
2,4215591178301E-5;
2,25493922462956E-5;
1,6244355773134E-5;
6,81432138811922E-6;
4,27722496169609E-7;
3,3195954128829E-6;
1,65900214996848E-5;
3,45853397767651E-5;
4,82619042980174E-5;
5,10352576320751E-5;
4,27566261999155E-5;
2,90394792360504E-5;
1,67961100871196E-5;
9,59143829917312E-6;
6,19730132800147E-6;
2,92855439592164E-6;
-2,63329237367054E-6;
-9,70653661303404E-6;
-1,55017394011788E-5;
-1,81258716401138E-5;
-1,84527008132838E-5;
-1,93018341280065E-5;
-2,27119986506926E-5;
-2,77638741377786E-5;
-3,09280167208052E-5;
-2,87602122436262E-5;
-2,0786689852746E-5;
-1,02478283592115E-5;
-2,08987343983779E-6;
2,46204190096727E-7;
-3,16699143663207E-6;
-9,29095756972828E-6;
-1,45650697800458E-5;
-1,72550018170154E-5;
-1,80379301986808E-5;
-1,87177153143776E-5;
-2,04051894860578E-5;
-2,26981874532369E-5;
-2,43444696262901E-5;
-2,45710697266237E-5;
-2,38113304889843E-5;
-2,32345580899835E-5;
-2,35949180091333E-5;
-2,44786164059358E-5;
-2,46113604282375E-5;
-2,29307040517398E-5;
-1,94899922183249E-5;
-1,5457728924904E-5;
-1,22721837941014E-5;
-1,06850192891827E-5;
-1,04305327110325E-5;
-1,06613312565881E-5;
-1,06668153737807E-5;
-1,02639568033719E-5;
-9,65293161138978E-6;
-9,03023477550856E-6;
-8,38899926705743E-6;
-7,64356413316921E-6;
-6,84007027314631E-6;
-6,14839884894064E-6;
-5,62114715729089E-6;
-5,0230744493762E-6;
-4,01558431546552E-6;
-2,60770116122333E-6;
-1,42599823987067E-6;
-1,41309810208082E-6;
-3,05946005449549E-6;
-5,77858502921063E-6;
-8,04642229419736E-6;
-8,34630769713069E-6;
-6,24817875800456E-6;
-2,74537162478479E-6;
4,80857570763373E-7;
2,31517945740105E-6;
2,9620187696043E-6;
3,57588610083811E-6;
5,10214375359191E-6;
7,36307866261519E-6;
9,22846929989716E-6;
9,74304154057291E-6;
9,17482005893939E-6;
8,93280230352124E-6;
1,02671751038027E-5;
1,28165684394574E-5;
1,43727042773204E-5;
1,23273138362124E-5;
5,82957728938944E-6;
-3,07450575009127E-6;
-1,04030087860553E-5;
-1,27609262121449E-5;
-9,58495762857648E-6;
-3,39385002199826E-6;
2,15291646980574E-6;
4,86779994905529E-6;
5,28911844764469E-6;
5,68414768050633E-6;
7,7691947840067E-6;
1,1147652569313E-5;
1,37966541877435E-5;
1,41152199065802E-5;
1,26337522904891E-5;
1,17217240167354E-5;
1,3373125211543E-5;
1,69355889080169E-5;
1,89066249715726E-5;
1,53181938199775E-5;
5,02643316532977E-6;
-8,73360193667729E-6;
-1,99817235274542E-5;
-2,37998467291014E-5;
-1,95208851172339E-5;
-1,09042477551904E-5;
-3,21385292626588E-6;
4,94462916200014E-7;
1,02817988473211E-6;
1,55125030468885E-6;
4,39910320219639E-6;
8,99636258832654E-6;
1,26005671752635E-5;
1,30913508407061E-5;
1,12090982392364E-5;
1,0091615493184E-5;
1,23258746366945E-5;
1,70245677537561E-5;
1,96510066716096E-5;
1,51538409138479E-5;
2,1576088443292E-6;
-1,51562438384066E-5;
-2,92219630937593E-5;
-3,39168101838868E-5;
-2,84950400191379E-5;
-1,76993301122977E-5;
-8,06075233882259E-6;
-3,31892709787549E-6;
-2,45400283912032E-6;
-1,59790995798991E-6;
2,06915590936856E-6;
7,83055143979084E-6;
1,23808216488401E-5;
1,31948147375982E-5;
1,11773661759504E-5;
1,00639828653585E-5;
1,29010904891309E-5;
1,86180543377434E-5;
2,18778843982646E-5;
1,67943223341083E-5;
1,81638486773416E-6;
-1,81436728560611E-5;
-3,43017714155142E-5;
-3,96134474176917E-5;
-3,32754646326493E-5;
-2,07830966787008E-5;
-9,63292742060979E-6;
-4,08304013408817E-6;
-2,95089339092819E-6;
-1,834808163874E-6;
2,45039514484881E-6;
9,08096686496533E-6;
1,43283968558039E-5;
1,53652167788497E-5;
1,32208340614463E-5;
1,20775222799428E-5;
1,5323215594703E-5;
2,17502311896158E-5;
2,54290569383712E-5;
1,98589453829373E-5;
3,36324959988368E-6;
-1,86056943397723E-5;
-3,63703279958386E-5;
-4,22145420516488E-5;
-3,52961452094347E-5;
-2,16590313614567E-5;
-9,49880569371782E-6;
-3,44610348887126E-6;
-2,19963215209758E-6;
-9,74608175407795E-7;
3,67449815513423E-6;
1,0846827003228E-5;
1,65139188111339E-5;
1,76359634081963E-5;
1,53315651497713E-5;
1,40967292285269E-5;
1,7556933186085E-5;
2,44078642004062E-5;
2,8309717016746E-5;
2,23404086817146E-5;
4,7409528502301E-6;
-1,86639772997418E-5;
-3,75885470712746E-5;
-4,38644929078997E-5;
-3,66272249971839E-5;
-2,2291011668011E-5;
-9,51767325392793E-6;
-3,18320072400045E-6;
-1,90636984980971E-6;
-6,51172577865943E-7;
4,19622179491484E-6;
1,16837012730397E-5;
1,75898914910378E-5;
1,87407203482615E-5;
1,63127839904325E-5;
1,4999579261963E-5;
1,85733281846106E-5;
2,56679919020101E-5;
2,96916627686956E-5;
2,34684947670044E-5;
5,19444431182327E-6;
-1,90794693059172E-5;
-3,87069400563743E-5;
-4,52581550898765E-5;
-3,78606409369417E-5;
-2,31447771098178E-5;
-1,00371920778679E-5;
-3,54934466217076E-6;
-2,25385039753476E-6;
-9,77639961383075E-7;
3,98177859833289E-6;
1,16432861730551E-5;
1,76848807106805E-5;
1,88654608821713E-5;
1,63926034381872E-5;
1,50570765977309E-5;
1,86996236975235E-5;
2,59225161135614E-5;
3,00177997989753E-5;
2,36998666618482E-5;
5,15157457060538E-6;
-1,94751307023411E-5;
-3,93861269210457E-5;
-4,60534608707813E-5;
-3,86091466580359E-5;
-2,37674693541753E-5;
-1,05474101705145E-5;
-4,00187104971181E-6;
-2,68614062409053E-6;
-1,38754263039614E-6;
3,61717857749004E-6;
1,13369854254894E-5;
1,74280516442942E-5;
1,86396119839047E-5;
1,61872772807835E-5;
1,48738823201034E-5;
1,85422851889834E-5;
2,57887365349559E-5;
2,99049251803283E-5;
2,36177875258949E-5;
5,12422358774614E-6;
-1,94291699776134E-5;
-3,92805139112667E-5;
-4,5941925456766E-5;
-3,85602299789673E-5;
-2,38217328020103E-5;
-1,06920017512816E-5;
-4,18593845883324E-6;
-2,86575345492471E-6;
-1,56121850385378E-6;
3,41463613693363E-6;
1,10770454295723E-5;
1,71267116095608E-5;
1,83514825405081E-5;
1,59557876949886E-5;
1,46830945800499E-5;
1,83227998679961E-5;
2,5486748456666E-5;
2,95631903213121E-5;
2,33939450141566E-5;
5,21263989173746E-6;
-1,89282454661385E-5;
-3,84493068639347E-5;
-4,50179044596749E-5;
-3,7804197565251E-5;
-2,33733185605515E-5;
-1,05161637813734E-5;
-4,14362570286243E-6;
-2,84495798350586E-6;
-1,56040828951837E-6;
3,31346153325046E-6;
1,0811618530935E-5;
1,67342136593489E-5;
1,79475927074361E-5;
1,56291203981367E-5;
1,44039628396129E-5;
1,79622705547823E-5;
2,49493161395509E-5;
2,89296624704455E-5;
2,29440846797663E-5;
5,28148405716071E-6;
-1,8172654794514E-5;
-3,71445582593132E-5;
-4,35511127698872E-5;
-3,65927469562014E-5;
-2,2637283150357E-5;
-1,02020112282439E-5;
-4,04004435345028E-6;
-2,78411519821448E-6;
-1,54029958544316E-6;
3,1729321149405E-6;
1,04212116704366E-5;
1,61486587936778E-5;
1,73323712859353E-5;
1,51097408874405E-5;
1,39399917295871E-5;
1,73770820700985E-5;
2,41141028052739E-5;
2,79561300058179E-5;
2,22104468388476E-5;
5,23603417678977E-6;
-1,7307177911182E-5;
-3,55497467755681E-5;
-4,17335154030961E-5;
-3,50947108509384E-5;
-2,17430694083934E-5;
-9,84346489584546E-6;
-3,94849127896002E-6;
-2,74745345766776E-6;
-1,5562035505162E-6;
2,95449105520551E-6;
9,88960409324345E-6;
1,53723827173832E-5;
1,65160954072048E-5;
1,44079596405056E-5;
1,33037566867072E-5;
1,65922550346781E-5;
2,30256838124085E-5;
2,66998996197569E-5;
2,12414521500708E-5;
5,0908745717618E-6;
-1,63631461671013E-5;
-3,37322983810399E-5;
-3,96419239448658E-5;
-3,33682797042425E-5;
-2,07159755820183E-5;
-9,43660769231611E-6;
-3,84934223387661E-6;
-2,71016791481393E-6;
-1,57843592383356E-6;
2,69954036605615E-6;
9,27474273729623E-6;
1,44764034437413E-5;
1,55733034089541E-5;
1,35946934926128E-5;
1,25644738517432E-5;
1,56843197788875E-5;
2,17741970708106E-5;
2,52586374033198E-5;
2,01230799775293E-5;
4,89813717540243E-6;
-1,53330029115721E-5;
-3,17204924865177E-5;
-3,73167132064443E-5;
-3,14410220971951E-5;
-1,95580129328745E-5;
-8,96105770106778E-6;
-3,71167884581467E-6;
-2,63999290991054E-6;
-1,57354400638319E-6;
2,44888202605593E-6;
8,629190191792E-6;
1,3522106362365E-5;
1,45658962579852E-5;
1,27262003676101E-5;
1,17745933054825E-5;
1,47100072940513E-5;
2,04263474454648E-5;
2,37038129631539E-5;
1,89147812007047E-5;
4,685876343025E-6;
-1,42294028241716E-5;
-2,95598837147565E-5;
-3,48153311839837E-5;
-2,93602614394175E-5;
-1,82950360535752E-5;
-8,42381784819593E-6;
-3,53391536792264E-6;
-2,53468201392415E-6;
-1,53862210480319E-6;
2,21160601467711E-6;
0,00934140623949718;
0,0226422662669061;
0,016386258646012;
0,00944492141034265;
0,0121803456106201;
0,00703986046893165;
0,00565383225005763;
0,00460478315805678;
0,00085814444866002;
0,00103684755329363;
-0,00120352553920629;
-0,00201926477460528;
-0,00283934598864995;
-0,00458086901985039;
-0,00490429426235427;
-0,00586375055666047;
-0,00594454988439571;
-0,0061848975727951;
-0,0069950637962146;
-0,00791872291798991;
-0,0186750155328721;
-0,032861088659223;
-0,0268787849523293;
-0,0195307185860679;
-0,0213669469406163;
-0,0154438184966474;
-0,013447689919818;
-0,0120197891112585;
-0,00787222316612041;
-0,00744686709626921;
-0,00449694986684594;
-0,00299156786524287;
-0,00167550594418813;
0,000437935953327977;
0,00120788129816594;
0,00282207252737226;
0,00370986326863129;
0,0046073838587768;
0,00563107144167425;
0,00625721028914677;
0,00712980006802191;
0,00766634187829573;
0,00812310836611098;
0,00846130335080744;
0,00859218360545373;
0,00875854961224116;
0,00881018641515106;
0,0088520304334202;
0,00882817945868829;
0,00870106990286019;
0,00853836594286583;
0,00831393228681894;
0,00809110401621827;
0,00785242250072085;
0,00757430811486978;
0,00725334752987195;
0,00687943045696414;
0,00649982235115037;
0,00614510755717151;
0,00582883174232855;
0,00553009583006201;
0,00519777542424038;
0,00480110769384733;
0,00433755359020708;
0,00384230447423502;
0,00335925057889613;
0,00290972761141265;
0,00248707121666414;
0,00206583442459588;
0,0016313760694754;
0,00119298739786326;
0,000775876977204635;
0,000399887108910049;
6,09185253374863E-5;
-0,000263725762288711;
-0,000594006477235383;
-0,000925904256909238;
-0,00122986474378328;
-0,00147274177040302;
-0,00164518134608376;
-0,00177349555820096;
-0,00190458893352872;
-0,0020748745752966;
-0,00228671377548716;
-0,00250957126689151;
-0,00270447582685194;
-0,00285182704840072;
-0,0029614275573011;
-0,0030586495588207;
-0,00315988881753823;
-0,00325847101843668;
-0,00333207235143432;
-0,00336416075793446;
-0,00336003591791523;
-0,00334293211895595;
-0,00333309686883253;
-0,00332779358288772;
-0,00330023832800876;
-0,00322004713000046;
-0,00307961229132811;
-0,00290502799083077;
-0,00274178082380487;
-0,00262529902298459;
-0,00255851394097948;
-0,00251312553070566;
-0,00245270488217349;
-0,0023590651264169;
-0,00224177304439467;
-0,00212506603625738;
-0,00202473481094411;
-0,00193480134597356;
-0,0018345168237931;
-0,00170852227679623;
-0,00156188681185404;
-0,00141640211141089;
-0,00129088670047243;
-0,00118244827493414;
-0,001065584378049;
-0,000911480438234277;
-0,000712807869729325;
-0,000493922159648543;
-0,000297338430259515;
-0,000156022011485343;
-7,23248972852192E-5;
-1,9210576597969E-5;
3,80349780372284E-5;
0,000117047638181574;
0,000209451314571595;
0,000293092298046349;
0,000353660961652884;
0,000397148698636987;
0,000443320270985272;
0,000506915867874093;
0,000583661393497455;
0,000653770026232723;
0,000700318682490117;
0,000726667651236048;
0,000757210595424534;
0,000819317831916421;
0,000920221323181018;
0,00103756978266591;
0,00113210247597317;
0,00117350104621035;
0,00116000034603413;
0,00111721975019649;
0,00107793292692504;
0,0010590243876435;
0,00105316875255289;
0,00104017852382549;
0,00100706311160173;
0,000959583868503008;
0,000916217536350197;
0,000890772757149156;
0,000879481601226548;
0,000864280890604813;
0,000829820228267842;
0,000779529146310249;
0,000736234143946596;
0,000725404420513884;
0,000753781046717214;
0,000800699270033086;
0,00082986739615433;
0,000813291331433219;
0,000749388559217802;
0,000661886432818943;
0,000581126333872952;
0,000522787797785979;
0,000480201425906327;
0,000434790634104134;
0,000374533497436732;
0,000304597415530336;
0,000241802655385368;
0,000198675286211497;
0,000171630733112909;
0,000144023339243528;
0,0001017635147634;
4,80216865735558E-5;
3,72662614893269E-6;
-7,85539920125027E-6;
1,92773917012575E-5;
6,59513618973612E-5;
9,86760991527857E-5;
9,16098714897392E-5;
4,31598674068772E-5;
-2,50459908628332E-5;
-8,52992568835968E-5;
-0,000123299809581822;
-0,000145202335254555;
-0,000168084947234242;
-0,000203091581854937;
-0,000245721188215929;
-0,000280865106847032;
-0,000297321263947835;
-0,000298526403566404;
-0,000299745551771;
-0,00031384544624416;
-0,000337944144077179;
-0,000353018881907216;
-0,000337987824475105;
-0,000287548875143496;
-0,000219335938154518;
-0,000163988974339692;
-0,00014514662364273;
-0,000164352773610307;
-0,000202007650729417;
-0,000232957768156075;
-0,000244207743120402;
-0,000241329942262669;
-0,000239834192527643;
-0,000249897458610916;
-0,00026756686163424;
-0,000279306407535168;
-0,000275102228978312;
-0,000258132890525007;
-0,000242200522165641;
-0,000238874524286463;
-0,000245467237193897;
-0,000244736100394249;
-0,000217640949065128;
-0,000159449746304842;
-8,61608867952915E-5;
-2,54953581832352E-5;
1,18187698006791E-6;
-7,52385428736364E-6;
-3,39090503285817E-5;
-5,52385189167588E-5;
-5,97139295828678E-5;
-5,22585515150097E-5;
-4,6766864989802E-5;
-5,23840570013541E-5;
-6,56010277875759E-5;
-7,43243906255003E-5;
-6,96128274768014E-5;
-5,43190513650093E-5;
-4,07608764138051E-5;
-3,91980250275838E-5;
-4,70913881231573E-5;
-4,88879415783602E-5;
-2,74846894085065E-5;
2,13488798511763E-5;
8,32550033495259E-5;
0,000133392729965613;
0,000152640558803683;
0,000139776266105943;
0,000110684346423062;
8,57687484901126E-5;
7,56744792334169E-5;
7,61091790508118E-5;
7,47444757980139E-5;
6,34407314966508E-5;
4,52914193746549E-5;
3,10114906023611E-5;
2,85167997708255E-5;
3,52677953482891E-5;
4,03637532401616E-5;
3,47834843489182E-5;
2,08966966391703E-5;
1,26072574693552E-5;
2,51379882333573E-5;
6,2225664332941E-5;
0,000111078836763921;
0,000149609690849593;
0,000160832115970165;
0,000143665229208085;
0,000112219650858802;
8,46310144298445E-5;
7,04029088686416E-5;
6,58105940721668E-5;
5,99915776788075E-5;
4,57415205635991E-5;
2,57366400749314E-5;
9,35836752375609E-6;
3,52505197735551E-6;
5,97138169857411E-6;
7,11573455905628E-6;
-9,20707657112057E-7;
-1,59689120412788E-5;
-2,57305289786278E-5;
-1,67998589446724E-5;
1,40701304269033E-5;
5,55620254560553E-5;
8,81899590069338E-5;
9,69789122335478E-5;
8,09603252565351E-5;
5,25352139024385E-5;
2,76588122850868E-5;
1,47237431820604E-5;
1,05172385636071E-5;
5,54466630886196E-6;
-6,52681228356031E-6;
-2,34237312380584E-5;
-3,7030335873569E-5;
-4,1375959343323E-5;
-3,84752541821441E-5;
-3,66779199250493E-5;
-4,28026201026746E-5;
-5,48887697984117E-5;
-6,21677473308776E-5;
-5,29554757067657E-5;
-2,44674255531704E-5;
1,33716928684109E-5;
4,35314291106697E-5;
5,29327272960551E-5;
4,07116019436956E-5;
1,76561191399533E-5;
-2,33579627413418E-6;
-1,19231822923658E-5;
-1,38432761785557E-5;
-1,63072980407793E-5;
-2,4825430438485E-5;
-3,74921641093549E-5;
-4,73659270050225E-5;
-4,9352420194779E-5;
-4,52235659099976E-5;
-4,21729596941279E-5;
-4,60287799531755E-5;
-5,50284618893099E-5;
-5,98343049300738E-5;
-5,03664923929806E-5;
-2,42616811659763E-5;
9,8711165569497E-6;
3,73093866436513E-5;
4,67563947461937E-5;
3,74542543295175E-5;
1,86910886708822E-5;
2,44824943651234E-6;
-4,91294860036838E-6;
-5,68511986028044E-6;
-6,87949734124116E-6;
-1,32311794957766E-5;
-2,31635882704746E-5;
-3,08118846923624E-5;
-3,18825633802231E-5;
-2,79123776502045E-5;
-2,50169683542888E-5;
-2,81051523819258E-5;
-3,55998253586875E-5;
-3,94904324623763E-5;
-3,11801958109038E-5;
-8,68703007284497E-6;
2,06111043695973E-5;
4,41413322352844E-5;
5,22665867191661E-5;
4,43327401445237E-5;
2,82417730621257E-5;
1,42010763164671E-5;
7,66346975105679E-6;
6,74505594040584E-6;
5,54360637175551E-6;
4,41120560245833E-8;
-8,47252313905768E-6;
-1,5125402928986E-5;
-1,63515175196993E-5;
-1,3466862404922E-5;
-1,15948558011975E-5;
-1,48025519212769E-5;
-2,16899194793314E-5;
-2,54723776935459E-5;
-1,89182610016727E-5;
-3,92819205035634E-7;
2,38634331221193E-5;
4,32588684228478E-5;
4,96847849784581E-5;
4,25828361143866E-5;
2,85797076026295E-5;
1,62494151963046E-5;
1,02045684155654E-5;
8,92973105322878E-6;
7,53535621504224E-6;
2,66613442093222E-6;
-4,66434994659739E-6;
-1,04708852963495E-5;
-1,18550470009781E-5;
-9,93064724459916E-6;
-8,91812670551727E-6;
-1,21228015157384E-5;
-1,83148426237263E-5;
-2,18357975109051E-5;
-1,67030989713516E-5;
-1,59820552668163E-6;
1,82789450136277E-5;
3,41465684621362E-5;
3,92907975776358E-5;
3,32397113650532E-5;
2,14547768552453E-5;
1,10168889454351E-5;
5,7668210823828E-6;
4,51777572159287E-6;
3,29701256683922E-6;
-6,51570726215024E-7;
-6,55436180248454E-6;
-1,12351214959417E-5;
-1,23952396599417E-5;
-1,09647130341097E-5;
-1,03484978099648E-5;
-1,3167757071537E-5;
-1,83541274583065E-5;
-2,12748239916418E-5;
-1,70805595443981E-5;
-4,73767523183292E-6;
1,14991419327054E-5;
2,44892573371409E-5;
2,87827925005713E-5;
2,39863723806824E-5;
1,45064626006883E-5;
6,07103566410266E-6;
1,8186176838781E-6;
8,54179619679145E-7;
2,95373703257639E-8;
-2,87019643555851E-6;
-7,28368157014511E-6;
-1,0758038340518E-5;
-1,1530274481279E-5;
-1,03632990279056E-5;
-9,93029399407122E-6;
-1,22417834413024E-5;
-1,63798988695551E-5;
-1,86373320352877E-5;
-1,51835469309796E-5;
-5,23827198656732E-6;
7,79672213213851E-6;
1,8258170852824E-5;
2,18335710922212E-5;
1,82015305799036E-5;
1,08221426301434E-5;
4,20839986326237E-6;
8,65913148245115E-7;
1,57204503286577E-7;
-3,29665831085535E-7;
-2,323934576885E-6;
-5,44950907163665E-6;
-7,89404338427414E-6;
-8,36804402109314E-6;
-7,48317247579777E-6;
-7,26095512681334E-6;
-9,17112739546648E-6;
-1,24344968816675E-5;
-1,41715920979946E-5;
-1,14597169987228E-5;
-3,74173067066151E-6;
6,34409646204861E-6;
1,44536180899265E-5;
1,72894841491637E-5;
1,45959493423429E-5;
8,99149027976786E-6;
3,90721277629916E-6;
1,28298376249629E-6;
7,06442908115555E-7;
4,17236243995547E-7;
-8,81853337750475E-7;
-2,97480391439519E-6;
-4,61137402495458E-6;
-4,916927133197E-6;
-4,36754879273437E-6;
-4,40983736641256E-6;
-6,03928008532924E-6;
-8,60372107487049E-6;
-9,95812110236735E-6;
-7,98200045402202E-6;
-2,31316279186031E-6;
5,08736550361717E-6;
1,1042670511189E-5;
1,31532561087969E-5;
1,12224746498096E-5;
7,12673443492963E-6;
3,34196592079764E-6;
1,30632516017984E-6;
8,01775883842846E-7;
6,38890813263527E-7;
-9,90269186579767E-8;
-1,33299095136579E-6;
-2,30141944968487E-6;
-2,48979553067616E-6;
-2,25406366273528E-6;
-2,53875430257854E-6;
-3,92797265481932E-6;
-5,88531832631035E-6;
-6,91167335759658E-6;
-5,58907160593947E-6;
-1,72415683670019E-6;
3,31700378952305E-6;
7,38045971879268E-6;
8,85319424228791E-6;
7,59114513754818E-6;
4,82254278221251E-6;
2,18784337436464E-6;
6,84158959748944E-7;
2,59014194734511E-7;
2,17966242781954E-7;
-2,39152051599104E-8;
-5,03518508531113E-7;
-8,79498737497667E-7;
-9,4653233852385E-7;
-9,55151862605824E-7;
-1,41615845080555E-6;
-2,56089435858919E-6;
-3,95763176786359E-6;
-4,66978903195627E-6;
-3,88832688024413E-6;
-1,56447734718064E-6;
1,45314506116972E-6;
3,89800537115484E-6;
4,83899989582096E-6;
4,17850160899944E-6;
2,58458982557653E-6;
9,74581002464258E-7;
-3,82429586627898E-8;
-3,6723110276181E-7;
-2,82514503069782E-7;
-8,27893136788469E-8;
9,86294772332689E-8;
2,46295232370334E-7;
3,03526278894201E-7;
1,11413822203355E-7;
-4,70482725475268E-7;
-1,3748210230668E-6;
-2,26366258850105E-6;
-2,68492247907603E-6;
-2,3512655067845E-6;
-1,33603467714152E-6;
-4,26706274280988E-8;
1,02350287107343E-6;
1,5160174004567E-6;
1,37797461174022E-6;
7,99209884093456E-7;
7,8495984252207E-8;
-5,0119218266113E-7;
-7,38126383574042E-7;
-5,43338776915691E-7;
2,85253591891187E-8;
7,65498482030844E-7;
1,35368954819294E-6;
1,51777077026842E-6;
1,17767671318217E-6;
5,04991582605841E-7;
-1,83771482990196E-7;
-6,33931932613201E-7;
-8,05512721988533E-7;
-8,52267700561391E-7;
-9,49037505933313E-7;
-1,12098620678518E-6;
-1,22882714418413E-6;
-1,1242388780779E-6;
-8,28706989792138E-7;
-5,55114946824808E-7;
-5,26702758801455E-7;
-7,41188151421982E-7;
-9,03544332146897E-7;
-6,25479265595397E-7;
2,43593885130974E-7;
1,42907509366808E-6;
2,37179441183185E-6;
2,61725175745298E-6;
2,15239232182821E-6;
1,40748030169743E-6;
9,03145647681784E-7;
8,20836978659945E-7;
8,54962929755666E-7;
4,8452044600281E-7;
-5,48102973608146E-7;
-1,95128482052348E-6;
-3,04808669513134E-6;
-3,27776598211093E-6;
-2,63137398194711E-6;
-1,65549470844391E-6;
-1,00703144755739E-6;
-9,18827854985329E-7;
-1,02217190283219E-6;
-6,83833350921861E-7;
4,16508755336254E-7;
1,95590889871855E-6;
3,17794990874586E-6;
3,48456898610018E-6;
2,91882347918634E-6;
2,12124379048247E-6;
1,77588455321207E-6;
2,00037309520068E-6;
2,2042285740829E-6;
1,56630448662454E-6;
-2,36949716578303E-7;
-2,65319950071816E-6;
-4,56518325021036E-6;
-5,07469091005246E-6;
-4,14697268437756E-6;
-2,59973135121114E-6;
-1,44333444713937E-6;
-1,10422336053306E-6;
-1,1574978033456E-6;
-7,74086345079081E-7;
5,03871258474968E-7;
2,31772450526054E-6;
3,75685215630177E-6;
4,11150430073237E-6;
3,47091004966467E-6;
2,64228473289894E-6;
2,43666680081457E-6;
2,9166566327124E-6;
3,26178168608276E-6;
2,41125713487101E-6;
-9,3533584672317E-9;
-3,23772086126559E-6;
-5,80410819239252E-6;
-6,54047456069785E-6;
-5,39054382133807E-6;
-3,38683114971596E-6;
-1,82092387750633E-6;
-1,27530026990715E-6;
-1,28432842743835E-6;
-8,67028970255172E-7;
5,43057551872718E-7;
2,56266452374645E-6;
4,1652304079644E-6;
4,55763071314523E-6;
3,86628471886827E-6;
3,02620941117119E-6;
2,94309015415589E-6;
3,63265469602892E-6;
4,09372703146146E-6;
3,08001188324323E-6;
1,79539885125588E-7;
-3,68084139104166E-6;
-6,75755825597075E-6;
-7,67326112029335E-6;
-6,35403603485709E-6;
-3,99698844034268E-6;
-2,11037341311285E-6;
-1,39898656154057E-6;
-1,36998448181589E-6;
-9,29443884176558E-7;
5,71892025907181E-7;
2,73578372797119E-6;
4,45344911900741E-6;
4,87330281926426E-6;
4,15091968004743E-6;
3,3147351598954E-6;
3,33664225242725E-6;
4,19300029541715E-6;
4,74581434568907E-6;
3,61128780026748E-6;
3,51651633405556E-7;
-3,98215411076062E-6;
-7,44249759566724E-6;
-8,49643097114625E-6;
-7,05593112235084E-6;
-4,43826568138704E-6;
-2,31118679967803E-6;
-1,47180989912746E-6;
-1,41177613020599E-6;
-9,58469316090723E-7;
5,97368052732195E-7;
2,85081563172956E-6;
4,64028293448936E-6;
5,07743959033853E-6;
4,33988448114282E-6;
3,51933333884147E-6;
3,62912625997254E-6;
4,61310878911029E-6;
5,23517130799702E-6;
4,01621034371546E-6;
5,02880093245315E-7;
-4,16542338353388E-6;
-7,89837639237631E-6;
-9,0546506726244E-6;
-7,53529591896648E-6;
-4,73883606237591E-6;
-2,44235846278995E-6;
-1,50883709391827E-6;
-1,42440974736169E-6;
-9,67580270050139E-7;
6,10956703755022E-7;
2,906619857485E-6;
4,73040006679095E-6;
5,17594634079242E-6;
4,43658924094017E-6;
3,64119388944153E-6;
3,8232151515639E-6;
4,90017655315159E-6;
5,57168448826947E-6;
4,30002964730241E-6;
6,25083083961121E-7;
-4,25638947612691E-6;
-8,16481684473091E-6;
-9,39160643204684E-6;
-7,82972322556711E-6;
-4,92522642013183E-6;
-2,52096755967419E-6;
-1,52267589724033E-6;
-1,41944118700911E-6;
-9,66543980212537E-7;
6,08069224639534E-7;
2,90602790195307E-6;
4,73255690811848E-6;
5,17921373160823E-6;
4,44958358871816E-6;
3,68727070530078E-6;
3,92768872803027E-6;
5,06759995949722E-6;
5,77156714884994E-6;
4,47486382210275E-6;
7,18061487034436E-7;
-4,27155291785023E-6;
-8,27118810833053E-6;
-9,54040068926848E-6;
-7,9666002277506E-6;
-5,01447589269876E-6;
-2,55522488817974E-6;
-1,51736666313442E-6;
-1,39996819920042E-6;
-9,56904776104339E-7;
5,9181236328419E-7;
2,85884120845022E-6;
4,66184399566266E-6;
5,10366669991906E-6;
4,39343130077814E-6;
3,67050694517037E-6;
3,95703173351658E-6;
5,13395492941868E-6;
5,85578712853731E-6;
4,55763437255183E-6;
7,87035363756442E-7;
-4,22109964262969E-6;
-8,23991688085121E-6;
-9,52724877142648E-6;
-7,96716603582387E-6;
-5,01854544235932E-6;
-2,54920147172884E-6;
-1,49338964980545E-6;
-1,36588341930427E-6;
-9,37432761826434E-7;
5,6736639623475E-7;
2,77606378142863E-6;
4,53382494637918E-6;
4,96583153618038E-6;
4,28271344144242E-6;
3,60379202892506E-6;
3,92536957589831E-6;
5,11694798489945E-6;
5,84404912562325E-6;
4,56410170433212E-6;
8,36786686916367E-7;
-4,11463060769264E-6;
-8,09207156982412E-6;
-9,3769056853275E-6;
-7,85180247925483E-6;
-4,94946216372885E-6;
-2,50780864355758E-6;
-1,45246815162451E-6;
-1,31847656152106E-6;
-9,0851852808639E-7;
5,37805313141678E-7;
2,66595297500262E-6;
4,36080498034978E-6;
4,7788142088506E-6;
4,12873801196687E-6;
3,49690558347647E-6;
3,84363710896638E-6;
5,03079491147608E-6;
5,75239626795984E-6;
4,50671075536726E-6;
8,69732298428462E-7;
-3,96285536622115E-6;
-7,84883287590434E-6;
-9,11393097220256E-6;
-7,64107823820833E-6;
-4,82015761599496E-6;
-2,43744575272177E-6;
-1,39802810638304E-6;
-1,2607192352238E-6;
-8,7228138070173E-7;
5,04173756097434E-7;
2,53426961062476E-6;
4,15225026441487E-6;
4,55287874594058E-6;
3,94024369754599E-6;
3,35732571391828E-6;
3,7204853774207E-6;
4,88724379851111E-6;
5,59433391235749E-6;
4,39579026400094E-6;
8,87202679908168E-7;
-3,77626245992335E-6;
-7,53010817826994E-6;
-8,76123616315354E-6;
-7,35425031185708E-6;
-4,64291839109389E-6;
-2,3444088154981E-6;
-1,33358892918536E-6;
-1,19563908331912E-6;
-8,30922125067893E-7;
4,67143662552266E-7;
2,38594770559945E-6;
3,91646224640814E-6;
4,29709447536657E-6;
3,72501329029521E-6;
3,19181133520887E-6;
3,56383656815143E-6;
4,69708773129278E-6;
5,38230045550432E-6;
4,24097821260191E-6;
8,90786717814877E-7;
-3,56385107490488E-6;
-7,15333602682231E-6;
-8,33895267258113E-6;
-7,00816765177323E-6;
-4,42832865010483E-6;
-2,23388255351956E-6;
-1,26180812115417E-6;
-1,12542710884419E-6;
-7,85895328055624E-7;
4,27807666326507E-7;
2,22584740932756E-6;
3,6612733509333E-6;
4,01999216004075E-6;
3,49046579489792E-6;
3,00690794741695E-6;
3,38131719782899E-6;
4,47054525268466E-6;
5,12799539041697E-6;
4,05147774328732E-6;
8,82511254318688E-7;
-3,33304013393799E-6;
-6,73348690502104E-6;
-7,86449304654129E-6;
-6,61735824964528E-6;
-4,18537074489573E-6;
-2,11006108514735E-6;
-1,18463084613937E-6;
-1,05162165607231E-6;
-7,38126949496714E-7;
3,87434061145644E-7;
2,05851553208697E-6;
3,39382110240165E-6;
3,72929874031206E-6;
3,24334240525222E-6;
2,80861790764918E-6;
3,17991434756146E-6;
4,21690320467722E-6;
4,84201577108069E-6;
3,83566862721747E-6;
8,64396790661015E-7;
-3,09017525487687E-6;
-6,28359960668835E-6;
-7,3530875612056E-6;
-6,19455955246777E-6;
-3,92192590661049E-6;
-1,97661376040169E-6;
-1,10375226350098E-6;
-9,75568422987609E-7;
-6,88443053349414E-7;
3,47076136241764E-7;
1,88782300146442E-6;
3,12020466037368E-6;
3,43161919493763E-6;
2,98940759789417E-6;
2,60208517412366E-6;
2,96566676633523E-6;
3,94424310613559E-6;
4,53359662084077E-6;
3,60084928736859E-6;
8,38176713792732E-7;
-2,84084979754438E-6;
-5,81514204149662E-6;
-6,81815243071635E-6;
-5,75103203631125E-6;
-3,64502560520767E-6;
-1,83689445011492E-6;
-1,02079083708023E-6;
-8,98575083773448E-7;
-6,37716019933727E-7;
3,07465177897199E-7;
1,71691598554145E-6;
2,84547718112746E-6;
3,13244458488523E-6;
2,73345266867386E-6;
2,39161053647705E-6;
2,74369354694335E-6;
3,65948934768322E-6;
4,21068936668309E-6;
3,35330386260284E-6;
8,05323248798076E-7;
-2,58993263946618E-6;
-5,33807843994954E-6;
-6,27135198629721E-6;
-5,29659216019752E-6;
-3,36084763955795E-6;
-1,69389950623088E-6;
-9,37217313611009E-7;
-8,21829208605115E-7;
-5,86765576177345E-7;
2,69132322448376E-7;
1,54836156751872E-6;
2,57382746889727E-6;
2,83634923803742E-6;
2,47947603385731E-6;
2,18081573161893E-6;
2,51836943227718E-6;
3,36859651445268E-6;
3,88014577203485E-6;
3,09847328615444E-6;
7,67166976519411E-7;
-2,34151865362313E-6;
-4,86086413846625E-6;
-5,72261645846805E-6;
-4,83961875180674E-6;
-3,07466100467305E-6;
-1,55017030203685E-6;
-8,54265993952562E-7;
-7,46315239755013E-7;
-5,36273132217337E-7;
2,32514740487018E-7;
1,38429512627301E-6;
2,30874006533683E-6;
2,54713852037361E-6;
2,23082548363219E-6;
1,97277434617886E-6;
2,29344154406666E-6;
3,07667993713318E-6;
3,5478618429684E-6;
2,84106843132204E-6;
7,24950600154304E-7;
-2,09894762903618E-6;
-4,3905362226934E-6;
-5,18024710556861E-6;
-4,38712312171878E-6;
-2,79087769526287E-6;
-1,40782363638141E-6;
-7,72936027326673E-7;
-6,72814418610174E-7;
-4,8677886470496E-7;
1,97977335342215E-7;
1,2264628172128E-6;
2,05306230828918E-6;
2,26793134213668E-6;
1,99026044527862E-6;
1,77004797183864E-6;
2,07207351436071E-6;
2,78807247595602E-6;
3,21883519625857E-6;
2,58510853110726E-6;
6,79807919007389E-7;
-1,86489801393095E-6;
-3,93285663137811E-6;
-4,65107826814672E-6;
-3,94489329796594E-6;
-2,51314594463181E-6;
-1,26860374615294E-6;
-6,94035520942798E-7;
-6,01949043726289E-7;
-4,38717971770762E-7;
1,65794463229082E-7;
1,07623077041683E-6;
1,80903814810915E-6;
2,0011900640647E-6;
1,75997100203859E-6;
1,57470921154298E-6;
1,85686709520351E-6;
2,50635824576556E-6;
2,89720805676084E-6;
2,33394621585579E-6;
6,32746673832366E-7;
-1,64148049016101E-6;
-3,49246277474027E-6;
-4,14064102151316E-6;
-3,51763714929696E-6;
-2,24444422126171E-6;
-1,13393966583395E-6;
-6,18223109551648E-7;
-5,34223356813125E-7;
-3,92457634655383E-7;
1,36143755910696E-7;
9,3462004895198E-7;
1,57836493782108E-6;
1,74878396500665E-6;
1,54163498785754E-6;
1,38837908536276E-6;
1,64990625406591E-6;
2,23443566788068E-6;
2,58634368744397E-6;
2,09032315519931E-6;
5,84636072691674E-7;
-1,43030368304909E-6;
-3,07298666679859E-6;
-3,65330525914067E-6;
-3,10908740823037E-6;
-1,98714864992281E-6;
-1,00498077916654E-6;
-5,46025929241369E-7;
-4,70030313516868E-7;
-3,48294963391943E-7;
1,09115049987216E-7;
8,02338227036386E-7;
1,36225325781143E-6;
1,51206054546527E-6;
1,33647501189875E-6;
1,21227851806272E-6;
1,45281587516952E-6;
1,97459194444595E-6;
2,28890564543814E-6;
1,85643206486072E-6;
5,36232020955186E-7;
-1,23253138816167E-6;
-2,67716122136976E-6;
-3,19238872379038E-6;
-2,72210567115384E-6;
-1,74309304603558E-6;
-8,82612376617923E-7;
-4,77839084379717E-7;
-4,09658645590749E-7;
-3,06459535785587E-7;
8,47402537484544E-8;
6,79840212243587E-7;
1,16150484076084E-6;
1,291918341735E-6;
1,14532350869729E-6;
1,04728196522738E-6;
1,26681385601034E-6;
1,7285736045901E-6;
2,0069431240768E-6;
1,63398495647568E-6;
4,88185792978063E-7;
-1,04892790817962E-6;
-2,30692228542153E-6;
-2,76028552817281E-6;
-2,35877074049137E-6;
-1,51362160925021E-6;
-7,67488729419604E-7;
-4,13942897468677E-7;
-3,53298450114138E-7;
-2,67114743217009E-7;
6,29994060725518E-8;
5,67356625288408E-7;
9,76561173655524E-7;
1,0888672578294E-6;
9,68674617377374E-7;
8,93966258313232E-7;
1,09277039989711E-6;
1,49765247356696E-6;
1,74195665229595E-6;
1,42425893134458E-6;
4,41051565582013E-7;
-8,79914125921791E-7;
-1,9635092548924E-6;
-2,35857483741915E-6;
-2,02048092647872E-6;
-1,29964886283658E-6;
-6,60051072451945E-7;
-3,54515441983647E-7;
-3,01061780408338E-7;
-2,30371475184337E-7;
4,38306761381665E-8;
0,0093338989791955;
0,0226305373860538;
0,0163736403611331;
0,00943390291532796;
0,0121701444350834;
0,00702709857129924;
0,00563609980929565;
0,00458420501805687;
