-2,18537888143169E-8;
-1,7967514390057E-8;
-1,13670684024827E-8;
-3,43138771202601E-9;
3,9917494129726E-9;
9,36372063746843E-9;
1,22114880268291E-8;
1,32896388383764E-8;
1,38966917370572E-8;
1,47783401407251E-8;
1,55189398477104E-8;
1,49878007821552E-8;
1,25327254703346E-8;
8,84304879489019E-9;
5,56427004702918E-9;
3,81638667733319E-9;
2,84002438359605E-9;
1,57346001193844E-10;
-6,51010464212638E-9;
-1,69088158643273E-8;
-2,74833612527691E-8;
-3,31346904949661E-8;
-3,05033232235594E-8;
-2,03968246719428E-8;
-7,41186367156236E-9;
3,10063290476206E-9;
8,48574139012363E-9;
1,00357554562771E-8;
1,11751185441482E-8;
1,41918588934551E-8;
1,82868458166904E-8;
2,0569129434675E-8;
1,90457644278058E-8;
1,48441435226145E-8;
1,1488465526672E-8;
1,16224575916644E-8;
1,39783762608281E-8;
1,34955679714172E-8;
5,0396822026208E-9;
-1,19578307240812E-8;
-3,17668512588419E-8;
-4,53297684426428E-8;
-4,60731940737386E-8;
-3,43089017571854E-8;
-1,68662708225432E-8;
-2,20863478818788E-9;
5,22072493896048E-9;
7,14189727324491E-9;
8,71008200926789E-9;
1,34720254390441E-8;
2,03190776392423E-8;
2,49273025794959E-8;
2,42117419297469E-8;
1,96494393556572E-8;
1,62832421586017E-8;
1,79979123109924E-8;
2,31164828872879E-8;
2,44891581546038E-8;
1,46683343669074E-8;
-7,60279214608434E-9;
-3,48602634405278E-8;
-5,48596361398626E-8;
-5,84301783101003E-8;
-4,54623854136054E-8;
-2,45511715317491E-8;
-6,63938846418009E-9;
2,39067515190384E-9;
4,59104154834674E-9;
6,49619842421816E-9;
1,26508557834815E-8;
2,17037044908238E-8;
2,8199435788656E-8;
2,81768056206247E-8;
2,3382663656715E-8;
2,0062161751098E-8;
2,30797664286578E-8;
3,0446581101795E-8;
3,33642323448698E-8;
2,25472425003564E-8;
-3,81296568688169E-9;
-3,69124798827843E-8;
-6,20201483998677E-8;
-6,79192472376884E-8;
-5,41443795036156E-8;
-3,06412390852424E-8;
-1,02730225400335E-8;
-3,72493073328608E-11;
2,36537561585433E-9;
4,523884259068E-9;
1,17568505364168E-8;
2,25296319501603E-8;
3,05152371664524E-8;
3,10786089330969E-8;
2,61659035284564E-8;
2,29362796592357E-8;
2,70092709460551E-8;
3,61588371076301E-8;
4,03340477840913E-8;
2,88494227880597E-8;
-5,49128788142321E-10;
-3,80651712503837E-8;
-6,70967898467747E-8;
-7,48723554700078E-8;
-6,06317345542283E-8;
-3,5307694400084E-8;
-1,31823055594274E-8;
-2,08837950135131E-9;
4,47258725876332E-10;
2,78597980263596E-9;
1,08176981521076E-8;
2,28769562692082E-8;
3,19964902086065E-8;
3,30470851315999E-8;
2,81113407135054E-8;
2,5009932876141E-8;
2,99129470500881E-8;
4,04297201978123E-8;
4,5606741527518E-8;
3,37351759684105E-8;
2,22254247919192E-9;
-3,84488358611303E-8;
-7,03534404557358E-8;
-7,95992458040285E-8;
-6,51882317261596E-8;
-3,87152833296314E-8;
-1,54438052583595E-8;
-3,79494252437066E-9;
-1,18530427856595E-9;
1,27029434737499E-9;
9,8533794178686E-9;
2,28176880861679E-8;
3,27604180978081E-8;
3,42070024651728E-8;
2,93284823533767E-8;
2,63852577032624E-8;
3,19165160191241E-8;
4,34321164802965E-8;
4,93817807972079E-8;
3,73660251839619E-8;
4,54039626982838E-9;
-3,81873609976492E-8;
-7,20433383810752E-8;
-8,23971484424168E-8;
-6,80596003568673E-8;
-4,10174738561102E-8;
-1,71293405300022E-8;
-5,18573145918737E-9;
-2,55521583209655E-9;
-3,76108126659336E-11;
8,88420770109753E-9;
2,2419703286577E-8;
3,29113073789725E-8;
3,46747313112876E-8;
2,99189908761069E-8;
2,71530712509541E-8;
3,31371746565301E-8;
4,53301454005894E-8;
5,18463661497642E-8;
3,9889921300994E-8;
6,44374912938048E-9;
-3,73897816489226E-8;
-7,23958699464062E-8;
-8,35378592707813E-8;
-6,94817497406504E-8;
-4,23602263010597E-8;
-1,83055779072492E-8;
-6,29162311828491E-9;
-3,68229719825785E-9;
-1,15032112416428E-9;
7,92672941475733E-9;
2,17466752401018E-8;
3,25494969493113E-8;
3,45555523213104E-8;
2,99755734034008E-8;
2,74046057108728E-8;
3,36840851006889E-8;
4,62725757971498E-8;
5,317622069657E-8;
4,14487618412684E-8;
7,97115652454884E-9;
-3,61571077305769E-8;
-7,16263844875878E-8;
-8,32749924466965E-8;
-6,96679406169676E-8;
-4,28797498887489E-8;
-1,90382015160168E-8;
-7,14171293764228E-9;
-4,58779803076227E-9;
-2,08255259567191E-9;
6,9928342598134E-9;
2,08540874203549E-8;
3,17622150391746E-8;
3,39473947055341E-8;
2,95850109498584E-8;
2,7216120829791E-8;
3,36582649685525E-8;
4,64021416236675E-8;
5,35372271902917E-8;
4,21760834777011E-8;
9,15756626668935E-9;
-3,45791278978925E-8;
-6,99298092735514E-8;
-8,18439639886706E-8;
-6,88169944504928E-8;
-4,27023065365712E-8;
-1,93874323301108E-8;
-7,76320764558593E-9;
-5,29578335082361E-9;
-2,84837116219033E-9;
6,09436713662885E-9;
1,9790400517363E-8;
3,06337283204722E-8;
3,29393437900228E-8;
2,88262740472306E-8;
2,66653360936235E-8;
3,31525657225434E-8;
4,5847682303265E-8;
5,30794926477489E-8;
4,21951857166221E-8;
1,00417208792676E-8;
-3,27371818373545E-8;
-6,7483096661453E-8;
-7,94550890008755E-8;
-6,71088257806264E-8;
-4,19413483895677E-8;
-1,94097036782792E-8;
-8,18248890776678E-9;
-5,82401711391781E-9;
-3,46157678638615E-9;
5,24154145295805E-9;
1,8600937567815E-8;
2,92353080169625E-8;
3,16116410871101E-8;
2,77686281530844E-8;
2,58169648772529E-8;
3,22528299062525E-8;
4,47278462792042E-8;
5,19401270707507E-8;
4,16170180581082E-8;
1,0656295223562E-8;
-3,07034777571721E-8;
-6,44451566067257E-8;
-7,62986924986289E-8;
-6,4708874285549E-8;
-4,0703122712435E-8;
-1,91559887171381E-8;
-8,42736188056081E-9;
-6,19517236341338E-9;
-3,93961692363077E-9;
4,43821316524095E-9;
1,73263603347587E-8;
2,76319004066305E-8;
3,00368180108048E-8;
2,64789743763408E-8;
2,47310362007905E-8;
3,10343140465462E-8;
4,31495120247997E-8;
5,02476546015229E-8;
4,05476597658201E-8;
1,10340305183038E-8;
-2,8539263235569E-8;
-6,09566569459884E-8;
-7,25460768632951E-8;
-6,17632039810576E-8;
-3,90834499836633E-8;
-1,86745812195568E-8;
-8,51949910344719E-9;
-6,42632780872238E-9;
-4,29171840693914E-9;
3,69049287280058E-9;
1,59966699657689E-8;
2,58818042798507E-8;
2,82772227993095E-8;
2,50113583056754E-8;
2,3464411201219E-8;
2,95695415799169E-8;
4,12106857390506E-8;
4,81140669992463E-8;
3,90807992440892E-8;
1,12069092478878E-8;
-2,63011837408114E-8;
-5,71437098805933E-8;
-6,83496111009209E-8;
-5,84049595265608E-8;
-3,71662678333668E-8;
-1,80077240049591E-8;
-8,48082229193213E-9;
-6,53566465678953E-9;
-4,53523779471604E-9;
3,00137552112635E-9;
1,46440983210788E-8;
2,40359939741009E-8;
2,63905317282373E-8;
2,34185357163235E-8;
2,2063419575006E-8;
2,79153222842564E-8;
3,8995436506619E-8;
4,56396945768537E-8;
3,72986196461562E-8;
1,12038049944968E-8;
-2,4033309978531E-8;
-5,3116231673885E-8;
-6,38435447883556E-8;
-5,47467194522991E-8;
-3,50265542285787E-8;
-1,7195627467318E-8;
-8,33361993077853E-9;
-6,54116904783372E-9;
-4,68204079163914E-9;
2,371769449474E-9;
1,32909942879938E-8;
2,21353535064877E-8;
2,44239819823961E-8;
2,17434784433649E-8;
2,05707379185461E-8;
2,61289101019048E-8;
3,65816000235934E-8;
4,29166427146079E-8;
3,52782185898059E-8;
1,10507594235627E-8;
-2,17747242728789E-8;
-4,89659922977091E-8;
-5,91427091725447E-8;
-5,08927823611032E-8;
-3,27314665662938E-8;
-1,62713450427744E-8;
-8,0965572066949E-9;
-6,45856197091234E-9;
-4,744669639154E-9;
1,8036195012621E-9;
1,19591911240324E-8;
2,02178185470056E-8;
2,24210554315443E-8;
2,0024369774012E-8;
1,90218296491362E-8;
2,42555978342335E-8;
3,40349471655422E-8;
4,002300130497E-8;
3,30860677318303E-8;
1,07734646665073E-8;
-1,95604727434381E-8;
-4,47767513065166E-8;
-5,43485387582644E-8;
-4,69315159731068E-8;
-3,03397418760055E-8;
-1,52662748762773E-8;
-7,78561045152672E-9;
-6,30160189278673E-9;
-4,73529255013758E-9;
1,29462244754687E-9;
1,06653417693571E-8;
1,83158891928817E-8;
2,0415088384109E-8;
1,82917100482581E-8;
1,74483578769183E-8;
2,23366263969022E-8;
3,14134978008043E-8;
3,70264276152983E-8;
3,07800808295158E-8;
1,03958149318057E-8;
-1,74145397983363E-8;
-4,06157105539237E-8;
-4,954467873195E-8;
-4,29333333804473E-8;
-2,78983188003318E-8;
-1,42068823770404E-8;
-7,41708545576713E-9;
-6,08342182481364E-9;
-4,66358159403233E-9;
8,43987002006093E-10;
9,42186788138822E-9;
1,64531557814547E-8;
1,84365375886978E-8;
1,657432728659E-8;
1,58785203927933E-8;
2,04093779999156E-8;
2,87678156379485E-8;
3,39875858227757E-8;
2,84101479352294E-8;
9,93500558127857E-9;
-1,53586151227268E-8;
-3,65393519525134E-8;
-4,48036739218341E-8;
-3,89651438810496E-8;
-2,54544908286783E-8;
-1,31179532218798E-8;
-7,0041931762002E-9;
-5,81748255986007E-9;
-4,54200341333709E-9;
4,49526946449122E-10;
8,24162743732545E-9;
1,46540593596508E-8;
1,65115198420346E-8;
1,48960070871313E-8;
1,43340706906491E-8;
1,84989673197226E-8;
2,61374672364249E-8;
3,09555289301692E-8;
2,60218916992708E-8;
9,41346579484537E-9;
-1,34095433932984E-8;
-3,25928603721535E-8;
-4,01838646117752E-8;
-3,50800385617851E-8;
-2,30412920803621E-8;
-1,20185862581128E-8;
-6,56078809772397E-9;
-5,51447061203623E-9;
-4,37651784304354E-9;
1,11378563180854E-10;
7,13039649015736E-9;
1,29312970569504E-8;
1,46585442913545E-8;
1,32732104429417E-8;
1,28325338669526E-8;
1,66328533159596E-8;
2,355863250949E-8;
2,79722857116158E-8;
2,36500038339618E-8;
8,84565777257482E-9;
-1,15785413917627E-8;
-2,88150381888209E-8;
-3,57329722620912E-8;
-3,13174822070921E-8;
-2,06877069833145E-8;
-1,09267775872532E-8;
-6,09682098305462E-9;
-5,18277395783905E-9;
-4,17944519791682E-9;
-1,79055928820891E-10;
6,09454167463097E-9;
1,13000331927326E-8;
1,28936881427972E-8;
1,17221616300311E-8;
1,13874188688589E-8;
1,48299588028463E-8;
2,1061763502469E-8;
2,50720258774303E-8;
2,13256137884426E-8;
8,24523490827947E-9;
-9,87561494657785E-9;
-2,52303253101736E-8;
-3,14876566946229E-8;
-2,7716629003428E-8;
-1,84194479463965E-8;
-9,85441860696902E-9;
-5,62095030809005E-9;
-4,83242222049818E-9;
-3,9553126630761E-9;
-4,20612125111044E-10;
5,13600726892997E-9;
9,76794626858032E-9;
1,1227823911836E-8;
1,02527719085248E-8;
1,00140430814101E-8;
1,31060607832743E-8;
1,86658302794118E-8;
2,22839651898081E-8;
1,90743670134751E-8;
7,62770613487302E-9;
-8,30225385587494E-9;
-2,18633216456587E-8;
-2,74779442574403E-8;
-2,42993110155633E-8;
-1,62524692033957E-8;
-8,81474492298707E-9;
-5,14289743182308E-9;
-4,47032942331034E-9;
-3,71144580281888E-9;
-6,19480684004388E-10;
4,25643926874238E-9;
8,34401592456998E-9;
9,66890581612954E-9;
8,87078509567518E-9;
8,7178077865432E-9;
1,14725810666268E-8;
1,63903858105093E-8;
1,96280979521509E-8;
1,69154949926578E-8;
7,00259481931317E-9;
-6,8640532315238E-9;
-1,87265187083927E-8;
-2,37219132656604E-8;
-2,10869648504767E-8;
-1,42039981697031E-8;
-7,81746617780582E-9;
-4,6694113706472E-9;
-4,10400080865813E-9;
-3,4553847533434E-9;
-7,77644788139166E-10;
3,45873611530959E-9;
7,02876668110286E-9;
8,22331857741218E-9;
7,58728611353316E-9;
7,50591148441751E-9;
9,93917194120941E-9;
1,4249481499118E-8;
1,7121250204184E-8;
1,48636146981891E-8;
6,37913348818067E-9;
-5,55743313407439E-9;
-1,58277719152374E-8;
-2,02334978281781E-8;
-1,80909828682187E-8;
-1,22841626605491E-8;
-6,87005249548733E-9;
-4,20367355742091E-9;
-3,7381135219263E-9;
-3,19228769844028E-9;
-8,99230055560995E-10;
2,73913983956209E-9;
5,8258289399228E-9;
6,89369744250505E-9;
6,40084323136345E-9;
6,38336948728575E-9;
8,51213709000184E-9;
1,22506196388712E-8;
1,47756185961305E-8;
1,2931883189144E-8;
5,76520066810999E-9;
-4,38496230928638E-9;
-1,31718251513897E-8;
-1,70182981072664E-8;
-1,53213964059099E-8;
-1,04984444219586E-8;
-5,97705420759359E-9;
-3,75571397548251E-9;
-3,37810433250763E-9;
-2,92575234727945E-9;
-9,89784689646323E-10;
2,09717084328943E-9;
4,73323100589135E-9;
5,67946617867856E-9;
5,31504855813097E-9;
5,34915521441587E-9;
7,19226253255286E-9;
1,03986166400108E-8;
1,25978138095418E-8;
1,11285734027105E-8;
5,16932911832261E-9;
-3,33708055745468E-9;
-1,07571090568257E-8;
-1,40818063916621E-8;
-1,27804645666467E-8;
-8,85046317329546E-9;
-5,1422351766956E-9;
-3,32447347648339E-9;
-3,0270221198359E-9;
-2,66017158087073E-9;
-1,0499629212156E-9;
1,52921936117207E-9;
3,74965149067444E-9;
4,58137300693736E-9;
4,32879521130308E-9;
4,40575478412373E-9;
5,98440066152958E-9;
8,69963039476828E-9;
1,05933007833547E-8;
9,45848471567902E-9;
4,59488215080728E-9;
-2,414023783198E-9;
-8,57913566160325E-9;
-1,14182192371314E-8;
-1,04688511376467E-8;
-7,34212450094398E-9;
-4,36768545876051E-9;
-2,91524892059526E-9;
-2,68999784885072E-9;
-2,39972439692419E-9;
-1,08587986212673E-9;
1,0321318841273E-9;
2,87274520325335E-9;
3,59436131710322E-9;
3,44077042773708E-9;
3,55248666541719E-9;
4,88448742791884E-9;
7,14968067537875E-9;
8,76013112971399E-9;
7,92148103847502E-9;
4,04709093331538E-9;
-1,60517751183321E-9;
-6,6324564725744E-9;
-9,02418552396785E-9;
-8,38124886030682E-9;
-5,97404221983645E-9;
-3,65641629481294E-9;
-2,52822705256174E-9;
-2,36668238462956E-9;
-2,1451628505228E-9;
-1,0992042830821E-9;
6,0075275348916E-10;
2,09666238021235E-9;
2,71585048944844E-9;
2,64545375663929E-9;
2,78516468794245E-9;
3,89299747083672E-9;
5,74826659412558E-9;
7,0990016282809E-9;
6,5197973398127E-9;
3,52971697698921E-9;
-9,04592665533602E-10;
-4,90755825717293E-9;
-6,88923210207644E-9;
-6,511752004771E-9;
-4,74075764215656E-9;
-3,00704031567988E-9;
-2,16915492960796E-9;
-2,06208821910286E-9;
-1,90051843960703E-9;
-1,0938944203979E-9;
2,32305090115191E-10;
1,41785932098377E-9;
1,94289439720501E-9;
1,94272680021016E-9;
2,10272559263832E-9;
3,00630852349445E-9;
4,4907055488838E-9;
5,60404539448073E-9;
5,25043313154955E-9;
3,04373251512121E-9;
-3,06967235806731E-10;
-3,39345173840056E-9;
-5,00220637605544E-9;
-4,85172639890466E-9;
-3,63871033459033E-9;
-2,41925930624583E-9;
-1,83530913031929E-9;
-1,7761145661762E-9;
-1,66848736906075E-9;
-1,07366669327161E-9;
-8,05643709413843E-11;
8,28005133009685E-10;
1,26662084462601E-9;
1,32599177250728E-9;
1,50212428863448E-9;
2,22055909017215E-9;
3,37305364245214E-9;
4,27160050504983E-9;
4,11071398377261E-9;
2,59184617591092E-9;
1,97266487971407E-10;
-2,07690101108551E-9;
-3,34940141127598E-9;
-3,39132590897871E-9;
-2,66365514997734E-9;
-1,89090620086108E-9;
-1,52784052579654E-9;
-1,51039218583654E-9;
-1,44843010335206E-9;
-1,03978945851329E-9;
-3,39782194010273E-10;
3,24262281871435E-10;
6,83141803556945E-10;
7,89618078606828E-10;
9,75984500581984E-10;
1,53038737206992E-9;
2,3867554931774E-9;
3,09220769695079E-9;
3,09767218382544E-9;
2,17493581591205E-9;
6,14864226465686E-10;
-9,45013164198151E-10;
-1,91876868970844E-9;
-2,12035290742368E-9;
-1,80781789390478E-9;
-1,42073724708839E-9;
-1,24763135536592E-9;
-1,26457994964483E-9;
-1,24240039202091E-9;
-9,9633949800027E-10;
-5,51983401580183E-10;
-1,02571955031767E-10;
1,8461114116915E-10;
3,30381696524058E-10;
5,21369778276681E-10;
9,29137036899238E-10;
1,527114117286E-9;
2,05904769458268E-9;
2,20207504042065E-9;
1,79303721459975E-9;
9,53839386992929E-10;
1,49841259116895E-11;
-6,94068625082495E-10;
-1,02536349656227E-9;
-1,06349174954968E-9;
-1,0053383659229E-9;
-9,93933387834387E-10;
-1,03940284172214E-9;
-1,04997183865837E-9;
-9,42300914975665E-10;
-7,19399228770001E-10;
-4,57675106463256E-10;
-2,34972642359018E-10;
-5,93691341214063E-11;
1,32958356290849E-10;
4,1199604403752E-10;
7,83928940068663E-10;
1,16436216262913E-9;
1,41936350589072E-9;
1,44504582635298E-9;
1,22207595550452E-9;
8,17318777369955E-10;
3,42984799798206E-10;
-9,29959192154022E-11;
-4,25356057401697E-10;
-6,41817927055689E-10;
-7,65982416542674E-10;
-8,34385469295436E-10;
-8,7295118885986E-10;
-8,83710197569815E-10;
-8,48320013860883E-10;
-7,47179240276822E-10;
-5,82308778468709E-10;
-3,84406037465773E-10;
-1,94372662099223E-10;
-2,69986609666547E-11;
1,4993312157565E-10;
3,9612983061849E-10;
7,41313434356602E-10;
1,13145975323452E-9;
1,42871970185101E-9;
1,4759555586612E-9;
1,20352545250418E-9;
6,89192061523863E-10;
1,15615683987068E-10;
-3,28540854932815E-10;
-5,62815530445405E-10;
-6,50075927607347E-10;
-7,11760539360068E-10;
-8,20583619054424E-10;
-9,43252657841574E-10;
-9,79071320185667E-10;
-8,65019040821565E-10;
-6,50342781145104E-10;
-4,65119001173228E-10;
-3,95077840208922E-10;
-3,84130591961763E-10;
-2,5343612558993E-10;
1,62134935314674E-10;
8,51797127735603E-10;
1,57901658642193E-9;
2,00491324272181E-9;
1,90729113972442E-9;
1,33340123347696E-9;
5,68920715198449E-10;
-5,80480432266583E-11;
-3,84352477713227E-10;
-4,85326420574611E-10;
-5,64855821122394E-10;
-7,55797432102872E-10;
-1,00892794073864E-9;
-1,15631635923923E-9;
-1,08688952662785E-9;
-8,64662849537322E-10;
-6,85478206839037E-10;
-6,96639643326353E-10;
-8,25775979786765E-10;
-7,95026535039989E-10;
-3,26952834335235E-10;
6,02944945181878E-10;
1,67920687699739E-9;
2,41723165452853E-9;
2,46858946741008E-9;
1,85378942579653E-9;
9,39210391553384E-10;
1,6848795725009E-10;
-2,28683399412506E-10;
-3,39815516646642E-10;
-4,31906082905726E-10;
-6,88628467759992E-10;
-1,04797749552019E-9;
-1,28803660148584E-9;
-1,257220523808E-9;
-1,02960751288672E-9;
-8,587009245064E-10;
-9,39613831471992E-10;
-1,18420515728538E-9;
-1,23750630294854E-9;
-7,33544984706828E-10;
3,84752603800548E-10;
1,74025420666728E-9;
2,72801127415898E-9;
2,90181356379924E-9;
2,26311641400741E-9;
1,23688338831881E-9;
3,56589852394901E-10;
-9,22583420893754E-11;
-2,10391168582223E-10;
-3,1401553415957E-10;
-6,20804113653474E-10;
-1,06343507889736E-9;
-1,37996367208798E-9;
-1,38223848890389E-9;
-1,15346886759817E-9;
-9,9296421737781E-10;
-1,13082791679873E-9;
-1,46886397839719E-9;
-1,59097027058313E-9;
-1,06313124515684E-9;
1,94296429140967E-10;
1,76291879002557E-9;
2,94699104967404E-9;
3,22191826387034E-9;
2,57256440931436E-9;
1,46799993766243E-9;
5,09638999661888E-10;
2,2701512714831E-11;
-9,99768246550555E-11;
-2,10237556636653E-10;
-5,55230534630507E-10;
-1,06166107724076E-9;
-1,43562259250655E-9;
-1,46496097015938E-9;
-1,2410020321771E-9;
-1,0914054968797E-9;
-1,27338517488951E-9;
-1,6859139035509E-9;
-1,86481574133287E-9;
-1,32542094554276E-9;
3,04016765465915E-11;
1,7552145262208E-9;
3,08587317701911E-9;
3,44292487634032E-9;
2,7949538361046E-9;
1,6403130283019E-9;
6,31732110273811E-10;
1,2111948423342E-10;
-3,73948380702307E-12;
-1,19367895651814E-10;
-4,91618010197778E-10;
-1,04265295822826E-9;
-1,46056469011783E-9;
-1,51391265844027E-9;
-1,29434357753015E-9;
-1,15651077640931E-9;
-1,37602720922503E-9;
-1,84309771061718E-9;
-2,0686988813968E-9;
-1,52831197074955E-9;
-1,07021710183399E-10;
1,72211277033425E-9;
3,15685953416053E-9;
3,57763889619187E-9;
2,940538377688E-9;
1,76268621594705E-9;
7,24219194069791E-10;
2,00638785645947E-10;
7,69927492291196E-11;
-3,98536445862927E-11;
-4,28886296195627E-10;
-1,0127205207605E-9;
-1,46034534458925E-9;
-1,531713664011E-9;
-1,32224869738083E-9;
-1,19433862102245E-9;
-1,44049710290861E-9;
-1,94930499689082E-9;
-2,20896698659143E-9;
-1,67501111708234E-9;
-2,22447437486246E-10;
1,66784702313924E-9;
3,17014992224534E-9;
3,63951079895911E-9;
3,01995290270997E-9;
1,83850585981405E-9;
7,92030301052448E-10;
2,65684769726199E-10;
1,44799551566915E-10;
2,78329109774254E-11;
-3,69881205271713E-10;
-9,70402421593626E-10;
-1,43765959242629E-9;
-1,52376010591072E-9;
-1,32438661245045E-9;
-1,20900736004497E-9;
-1,47478766504632E-9;
-2,00956418093553E-9;
-2,29512769715806E-9;
-1,77607335646538E-9;
-3,17695420968316E-10;
1,59825444614289E-9;
3,13433386022597E-9;
3,63612212766068E-9;
3,04311630900891E-9;
1,8772513842899E-9;
8,38687730270376E-10;
3,17479086369621E-10;
1,99503063514177E-10;
8,45218078378537E-11;
-3,14799446591609E-10;
-9,21241724232501E-10;
-1,39809000976182E-9;
-1,49517151125396E-9;
-1,30691949470788E-9;
-1,20420726065792E-9;
-1,4822847327098E-9;
-2,03254255852677E-9;
-2,3363278083389E-9;
-1,8353303029449E-9;
-3,93377846227752E-10;
1,51627215972559E-9;
3,05955345682977E-9;
3,58120970954981E-9;
3,01746532452117E-9;
1,88224953422256E-9;
8,65714842570759E-10;
3,55677921351632E-10;
2,43634974427845E-10;
1,31684812650669E-10;
-2,63414582825647E-10;
-8,65521418231723E-10;
-1,34355743266834E-9;
-1,44946811535137E-9;
-1,27450073610964E-9;
-1,1827821833086E-9;
-1,46737283911966E-9;
-2,02169754496443E-9;
-2,33707098467843E-9;
-1,86022921887573E-9;
-4,51550241732629E-10;
1,42329157062479E-9;
2,94970512827663E-9;
3,48349278629839E-9;
2,9537926844314E-9;
1,85940239518631E-9;
8,76140584549976E-10;
3,84639924940144E-10;
2,7768306914428E-10;
1,68798077149411E-10;
-2,16295244017927E-10;
-8,05472260687807E-10;
-1,27819905818435E-9;
-1,38948919063112E-9;
-1,22666428951231E-9;
-1,14676114954008E-9;
-1,43301832378596E-9;
-1,98356490421047E-9;
-2,30384414533423E-9;
-1,85333659168675E-9;
-4,95442916512509E-10;
1,32429505770773E-9;
2,81653511781812E-9;
3,35119987355446E-9;
2,85617622483897E-9;
1,81265063110101E-9;
8,72580647785735E-10;
4,02659891708154E-10;
3,01801756781751E-10;
1,98760033820923E-10;
-1,72597166482209E-10;
-7,43862666173372E-10;
-1,20478409618859E-9;
-1,31879903485939E-9;
-1,16985756497184E-9;
-1,10062349113964E-9;
-1,38392859712143E-9;
-1,92313069749404E-9;
-2,24392004056176E-9;
-1,8228925222296E-9;
-5,25170880515613E-10;
1,2217800648106E-9;
2,66302656716159E-9;
3,19182309905333E-9;
2,73426932929831E-9;
1,74901737211539E-9;
8,57821045121418E-10;
4,12457878465476E-10;
3,19326675837706E-10;
2,23136019502766E-10;
-1,32497714111027E-10;
-6,80578623905115E-10;
-1,12478795773088E-9;
-1,24055570604341E-9;
-1,10523155216173E-9;
-1,04549725594855E-9;
-1,32360119709443E-9;
-1,8464200584255E-9;
-2,16137059291119E-9;
-1,77053129358243E-9;
-5,435498612369E-10;
1,11748810563103E-9;
2,4957858717502E-9;
3,01155494270484E-9;
2,59257821966933E-9;
1,67080523017973E-9;
8,33117525491865E-10;
4,14291362590897E-10;
3,28088819094349E-10;
2,39100527466807E-10;
-9,71009249955323E-11;
-6,17942804883348E-10;
-1,04183674842988E-9;
-1,15681860280206E-9;
-1,0354084477895E-9;
-9,84486235486902E-10;
-1,25331798556348E-9;
-1,75484454377735E-9;
-2,06147950594716E-9;
-1,70261315825094E-9;
-5,51599192892159E-10;
1,01389079484566E-9;
2,3185313531116E-9;
2,81619624516671E-9;
2,43581826619984E-9;
1,57973912478194E-9;
7,99574256133088E-10;
4,1218800774828E-10;
3,33294270107952E-10;
2,49094389913153E-10;
-6,59878181581649E-11;
-5,55753457132549E-10;
-9,56542033412438E-10;
-1,06908899098627E-9;
-9,60933138813423E-10;
-9,18996759419828E-10;
-1,17630444064529E-9;
-1,65273213769268E-9;
-1,94861502701369E-9;
-1,6215166053012E-9;
-5,51098167004026E-10;
9,11639442418968E-10;
2,13592742200306E-9;
2,61227080282106E-9;
2,26937467275017E-9;
1,48030871712282E-9;
7,61193207271821E-10;
4,03125840448817E-10;
3,30830870961552E-10;
2,54617020195721E-10;
-3,80414103543173E-11;
-4,95394288248217E-10;
-8,7219195986186E-10;
-9,81030508165396E-10;
-8,85269571351618E-10;
-8,51571875498354E-10;
-1,09593724574133E-9;
-1,54311607558442E-9;
-1,82475613233169E-9;
-1,53097966585371E-9;
-5,43290096286193E-10;
8,12137757047932E-10;
1,95148526999848E-9;
2,40346438965164E-9;
2,0978986402302E-9;
1,37826009326871E-9;
7,18799346119417E-10;
3,90616734273839E-10;
3,26095239464043E-10;
2,56916460029416E-10;
-1,36878542143724E-11;
-4,37855646342715E-10;
-7,86929178271973E-10;
-8,91528766372382E-10;
-8,09224962835016E-10;
-7,8112258614799E-10;
-1,01075761204529E-9;
-1,43039457465594E-9;
-1,69615095212998E-9;
-1,43172738847432E-9;
-5,28652798273663E-10;
7,18107594146695E-10;
1,77039596511065E-9;
2,19363551283675E-9;
1,92314440565777E-9;
1,27108664947507E-9;
6,72271508260885E-10;
3,74128003428216E-10;
3,16998852811195E-10;
2,54501117330711E-10;
5,85968273498865E-12;
-3,82244512985655E-10;
-7,05011436939976E-10;
-8,04560291782693E-10;
-7,32343661433612E-10;
-7,11847088374592E-10;
-9,25179498942167E-10;
-1,31378964535861E-9;
-1,56406921424741E-9;
-1,32951030479649E-9;
-5,10614462995016E-10;
6,27213874815543E-10;
1,59205298160089E-9;
1,98589234946522E-9;
1,74925298582775E-9;
1,16332795113705E-9;
6,23188145792889E-10;
3,55285653022213E-10;
3,0499956335903E-10;
2,49308008982626E-10;
2,41408016371348E-11;
-3,30659065762564E-10;
-6,26367243421261E-10;
-7,19365635516374E-10;
-6,58272067729616E-10;
-6,43343267058685E-10;
-8,41152947296888E-10;
-1,19828952169352E-9;
-1,43078105992993E-9;
-1,22523139780876E-9;
-4,87035892755622E-10;
5,42119755498547E-10;
1,41810688403581E-9;
1,78361550402405E-9;
1,57891280044712E-9;
1,05642675358192E-9;
5,73781310950076E-10;
3,3423324513498E-10;
2,90645021893414E-10;
2,41320481668086E-10;
3,79469763268797E-11;
-2,82164763897731E-10;
-5,50762845218378E-10;
-6,37855080420317E-10;
-5,86381950502991E-10;
-5,7723668307077E-10;
-7,58554533942995E-10;
-1,08391563328367E-9;
-1,29907036428312E-9;
-1,11941167524251E-9;
-4,60587326685325E-10;
4,62245935479757E-10;
1,25317273654709E-9;
1,58791030106184E-9;
1,41259973939615E-9;
9,52188029348294E-10;
5,24057662714454E-10;
3,12185559350136E-10;
2,74485026442436E-10;
2,30898279398099E-10;
4,96882626905083E-11;
-2,36265454491111E-10;
-4,78757401602174E-10;
-5,60865912257997E-10;
-5,17164062248513E-10;
-5,12042291913883E-10;
-6,7830108432383E-10;
-9,73172327726674E-10;
-1,17026643532586E-9;
-1,01478716002402E-9;
-4,32653008432516E-10;
3,88189406488463E-10;
1,09749617051361E-9;
1,40172395220012E-9;
1,25254397592356E-9;
8,50850894160779E-10;
4,75245383318384E-10;
2,8958496617443E-10;
2,57240157816955E-10;
2,18035116120416E-10;
5,8324970589042E-11;
-1,95064154215343E-10;
-4,12230620662041E-10;
-4,87755689097162E-10;
-4,52715655745283E-10;
-4,51477349692373E-10;
-6,02130704961507E-10;
-8,6622068175692E-10;
-1,0442989774052E-9;
-9,1290284472609E-10;
-4,02699669818759E-10;
3,21271102522826E-10;
9,49537122861277E-10;
1,22499438372292E-9;
1,10199962085381E-9;
7,53339746617325E-10;
4,25985181646614E-10;
2,65944829597301E-10;
2,40017935892064E-10;
2,07018567037813E-10;
6,59912971233214E-11;
-1,57900447638512E-10;
-3,49615389775313E-10;
-4,19113033350866E-10;
-3,92374221758656E-10;
-3,93208274716855E-10;
-5,2765976435953E-10;
-7,63888463557979E-10;
-9,24730137834618E-10;
-8,15018566412503E-10;
-3,72060882612529E-10;
2,61447327265382E-10;
8,12835754103661E-10;
1,05886957885423E-9;
9,58654214953184E-10;
6,61389439322351E-10;
3,81068826629643E-10;
2,42253215590623E-10;
2,20096069799467E-10;
1,93878065696036E-10;
7,13536920703953E-11;
-1,25547632667563E-10;
-2,93980123945642E-10;
-3,55406355774852E-10;
-3,3431049114496E-10;
-3,39152166780802E-10;
-4,58881012844899E-10;
-6,66946055929228E-10;
-8,11667789738115E-10;
-7,200574635826E-10;
-3,39921578700351E-10;
2,06281704277539E-10;
6,87278278905227E-10;
9,05196899811134E-10;
8,24595945147907E-10;
5,74938392697028E-10;
3,36743667951845E-10;
2,197466101416E-10;
2,02046191512781E-10;
1,7815328608628E-10;
7,36427316849399E-11;
-9,45238349045531E-11;
-2,41663359895553E-10;
-2,97336475894705E-10;
-2,81881816572171E-10;
-2,89097646422344E-10;
-3,94478192124372E-10;
-5,7622434291492E-10;
-7,05103344636331E-10;
-6,31699906590602E-10;
-3,09471841825774E-10;
1,57873223453739E-10;
5,70987189813188E-10;
7,62358925526088E-10;
7,01407583200464E-10;
4,93343893929292E-10;
2,94787743218329E-10;
1,98376923251011E-10;
1,82639822876773E-10;
1,6344896597384E-10;
7,50538254026162E-11;
-6,90357461649602E-11;
-1,93868557870331E-10;
-2,44547171117617E-10;
-2,34539961853702E-10;
-2,41543562919202E-10;
-3,35612569343679E-10;
-4,9271174069345E-10;
-6,04768776480196E-10;
-5,49147368047282E-10;
-2,79508507912995E-10;
1,14501902331331E-10;
4,65157108068095E-10;
6,33547344930534E-10;
5,8824171064136E-10;
4,17895787961469E-10;
2,5476510872225E-10;
1,75751595734995E-10;
1,6417063229781E-10;
1,49194689493859E-10;
7,56804291617733E-11;
-4,54514683888691E-11;
-1,51886252354256E-10;
-1,96139191146669E-10;
-1,90688308115526E-10;
-1,99905507227224E-10;
-2,79896629537246E-10;
-4,14280709387558E-10;
-5,1191483489E-10;
-4,69565411621868E-10;
-2,5047811724642E-10;
7,60845961781587E-11;
3,70555280308553E-10;
5,14858470042605E-10;
4,8383573671737E-10;
3,49208760287091E-10;
2,18218711119494E-10;
1,54567529629942E-10;
1,46992340106969E-10;
1,35961091378453E-10;
7,47725180021232E-11;
-2,53766618381018E-11;
-1,1409537244402E-10;
-1,5344978406906E-10;
-1,50998865313928E-10;
-1,60284156463561E-10;
-2,29536251118424E-10;
-3,43596719913109E-10;
-4,27841166045873E-10;
-3,97789486926446E-10;
-2,22458089575167E-10;
4,30591890227612E-11;
2,85701387868876E-10;
4,07791815357427E-10;
3,89385296020688E-10;
2,86609290051215E-10;
1,84047495511414E-10;
1,34884839262996E-10;
1,2996778723207E-10;
1,21636345881845E-10;
7,31152446395919E-11;
-7,80178976323612E-12;
-8,06246228580494E-11;
-1,14456929654663E-10;
-1,15932801618426E-10;
-1,26563405241058E-10;
-1,84756088508456E-10;
-2,79567137773885E-10;
-3,50967259713193E-10;
-3,31668271962587E-10;
-1,94834773180711E-10;
1,59086015551271E-11;
2,10401685499973E-10;
3,13770003682567E-10;
3,06281248178208E-10;
2,29693874755727E-10;
1,52906317480441E-10;
1,16580586014397E-10;
1,13678193362253E-10;
1,07588327529654E-10;
6,97918189489285E-11;
6,53222437409907E-12;
-5,22294279609966E-11;
-8,09019016251163E-11;
-8,42321614325228E-11;
-9,59044286977482E-11;
-1,43818334733085E-10;
-2,21227520638506E-10;
-2,81997099517808E-10;
-2,71198716608972E-10;
-1,69985690862821E-10;
-9,28467978096604E-12;
1,44165045536506E-10;
2,29310613014956E-10;
2,30616214342532E-10;
1,78922145122543E-10;
1,24691194200074E-10;
9,97948613552167E-11;
9,91140696880744E-11;
9,5311417293804E-11;
6,75926434705216E-11;
1,85882845869112E-11;
-2,81119323708828E-11;
-5,14592751230629E-11;
-5,74009434878223E-11;
-6,93295865823121E-11;
-1,07637848761655E-10;
-1,69699105704954E-10;
-2,19494945491742E-10;
-2,15812807275191E-10;
-1,45287911471648E-10;
-2,85725376985498E-11;
8,73923236560627E-11;
1,56202495367646E-10;
1,65016742394964E-10;
1,34657708974835E-10;
9,96425795531016E-11;
8,41487569967773E-11;
8,51073019562065E-11;
8,29049274079667E-11;
6,25263679075365E-11;
2,77055119646947E-11;
-6,04907328035061E-12;
-2,65660820796447E-11;
-3,39847619876719E-11;
-4,56542442979276E-11;
-7,66103776050941E-11;
-1,23268605041932E-10;
-1,63910078220019E-10;
-1,68246000414236E-10;
-1,23430851833962E-10;
-4,406064863106E-11;
3,83545225996102E-11;
9,23974153400599E-11;
1,06597657396228E-10;
9,410363252835E-11;
7,71010433807459E-11;
6,98931340726463E-11;
7,17008193121289E-11;
7,08054206716395E-11;
5,88438901567934E-11;
3,64090682157934E-11;
1,13229768497227E-11;
-5,37716775062401E-12;
-1,31329099666016E-11;
-2,47119738111471E-11;
-4,89178825921341E-11;
-8,3013221878764E-11;
-1,1448207714572E-10;
-1,24311543282581E-10;
-1,03259248413885E-10;
-5,69196717513845E-11;
-2,96903503310329E-12;
3,72284490141362E-11;
5,70348891842445E-11;
6,03094017467094E-11;
5,62777690310682E-11;
5,64659042388182E-11;
5,98547893929726E-11;
6,00162077320284E-11;
5,45537731450391E-11;
4,14549894062143E-11;
2,56481234674018E-11;
1,36848143208026E-11;
4,02398782641838E-12;
-7,03146102300173E-12;
-2,39215911667365E-11;
-4,77623085985618E-11;
-7,19496132134243E-11;
-8,67765447374516E-11;
-8,52932904791198E-11;
-6,68290491503583E-11;
-3,80664535427319E-11;
-8,9914040838314E-12;
1,4247893337383E-11;
2,95756035620705E-11;
3,87954149834169E-11;
4,46669411122415E-11;
4,83299471762297E-11;
5,03226140530887E-11;
5,01451164649747E-11;
4,66166482096689E-11;
3,8058482370186E-11;
2,79262618000296E-11;
1,82771330956182E-11;
7,07806401444186E-12;
-3,83593868944257E-12;
-1,76074492057273E-11;
-3,52250880772851E-11;
-5,27794223461778E-11;
-6,85689649431683E-11;
-7,42988936264788E-11;
-6,62695798119133E-11;
-4,77834858202221E-11;
-2,16351037808155E-11;
3,7889185125513E-12;
2,28142397396077E-11;
3,46742929297696E-11;
3,9195532874254E-11;
4,19802643092165E-11;
4,66840000859118E-11;
4,92269241603859E-11;
4,72374351363863E-11;
4,05121892115773E-11;
3,05935343110939E-11;
2,08476801367751E-11;
1,28088471667052E-11;
6,92300760088886E-12;
-3,52085093126528E-12;
-2,48843045922845E-11;
-5,24962174692287E-11;
-7,79516945768569E-11;
-9,00636855701199E-11;
-7,98234767270454E-11;
-5,09413415457747E-11;
-1,7125265792087E-11;
9,73439724707752E-12;
2,46493293870875E-11;
2,95079951530263E-11;
3,36679843275976E-11;
4,17821193211407E-11;
5,00565167507309E-11;
5,43066317300711E-11;
4,97025866031467E-11;
3,84833876358964E-11;
3,07451633107341E-11;
2,82650168807627E-11;
2,76046518107926E-11;
2,27237789246478E-11;
2,07434497992349E-13;
-3,90556981252314E-11;
-8,02510376211476E-11;
-1,07239407152027E-10;
-1,04736856729466E-10;
-7,52438466096934E-11;
-3,49461001912455E-11;
-1,40739287597042E-12;
1,58899189180139E-11;
2,14397183665319E-11;
2,60847029899408E-11;
3,77299484774212E-11;
5,19484394466821E-11;
6,00801542785849E-11;
5,76397560866455E-11;
4,66288248202171E-11;
3,77544080257757E-11;
3,87301136395545E-11;
4,53525700117153E-11;
4,39714052087836E-11;
2,08141251650499E-11;
-2,70917067574866E-11;
-8,30479341961039E-11;
-1,20580258658673E-10;
-1,23945520762109E-10;
-9,39478975591272E-11;
-4,87905636962252E-11;
-1,08599510466014E-11;
9,17099716807644E-12;
1,48130110800506E-11;
1,98099521731628E-11;
3,32551005474686E-11;
5,15854937341495E-11;
6,40369840779872E-11;
6,30058406641218E-11;
5,18163278506401E-11;
4,32711378574151E-11;
4,80238732076452E-11;
6,03203403693863E-11;
6,26288796630255E-11;
3,76891353838599E-11;
-1,70760036637148E-11;
-8,20229140557012E-11;
-1,30027015896384E-10;
-1,39137673927021E-10;
-1,08651037565822E-10;
-6,07428811700787E-11;
-1,92959849988554E-11;
2,01907324726624E-12;
8,20973931799056E-12;
1,43259870006431E-11;
2,88775508130181E-11;
4,9819377001017E-11;
6,53200812315466E-11;
6,61359459040457E-11;
5,54768682833555E-11;
4,7582698387604E-11;
5,47090242796481E-11;
7,07256382822092E-11;
7,57883512862104E-11;
5,08702734755706E-11;
-7,85980229839637E-12;
-8,054307094328E-11;
-1,35409563130171E-10;
-1,48879958468188E-10;
-1,20249352455292E-10;
-7,00212640481407E-11;
-2,51315142393842E-11;
-2,91410267972931E-12;
2,35906412976376E-12;
8,91248469502822E-12;
2,49817377256065E-11;
4,78710567879115E-11;
6,61526610779725E-11;
6,77654690724408E-11;
5,8018648469999E-11;
5,20309950355979E-11;
5,9910824041343E-11;
7,79252508244495E-11;
8,60558914207924E-11;
6,24690490623519E-11;
5,43678222076135E-13;
-7,81143641771406E-11;
-1,38035283169632E-10;
-1,55190842557127E-10;
-1,26461950955993E-10;
-7,4634406812179E-11;
-3,0170999682739E-11;
-6,58094197621544E-12;
-5,3833663716438E-13;
4,00064005169594E-12;
2,13216154143138E-11;
4,59613628780674E-11;
6,49055158925245E-11;
6,87455745915073E-11;
5,94307559738469E-11;
5,40016033868286E-11;
6,35689871104312E-11;
8,35519683958175E-11;
9,43230492885107E-11;
7,06085446665133E-11;
6,95465942734288E-12;
-7,45085543002805E-11;
-1,38546362783981E-10;
-1,57928299208195E-10;
-1,30885905261345E-10;
-7,94631433619728E-11;
-3,3596387656514E-11;
-1,05254852968964E-11;
-4,32168749819937E-12;
7,9479552074433E-13;
1,74311681450637E-11;
4,38587876662375E-11;
6,3915318659202E-11;
6,80631552209793E-11;
6,02406586543501E-11;
5,48480806736679E-11;
6,5639310393697E-11;
8,76460232057519E-11;
9,87850664668798E-11;
7,56466914306215E-11;
1,2120026660416E-11;
-7,08032031752023E-11;
-1,3689641131853E-10;
-1,5844724736485E-10;
-1,33052551589081E-10;
-8,27225922733151E-11;
-3,72009475253969E-11;
-1,44626411013195E-11;
-8,81781700374346E-12;
-2,39488543950868E-12;
1,50820238093223E-11;
4,11483340997289E-11;
6,19504785229672E-11;
6,60532027918091E-11;
5,83418041786309E-11;
5,45506946878219E-11;
6,65029278701503E-11;
8,97794593114062E-11;
1,0194901301976E-10;
7,98576386001188E-11;
1,71481704806647E-11;
-6,68885575529026E-11;
-1,33391391670833E-10;
-1,55526650852486E-10;
-1,32431096829173E-10;
-8,33327593836563E-11;
-3,86657607495073E-11;
-1,62601471209396E-11;
-1,03288803763378E-11;
-5,09421601256596E-12;
1,18583062557187E-11;
3,82607526411916E-11;
5,92437394413491E-11;
6,49662279920783E-11;
5,77081018755879E-11;
5,33980433322809E-11;
6,57098676956259E-11;
8,91966965638687E-11;
1,03402273805631E-10;
8,26507975167685E-11;
2,0037589384551E-11;
-6,22393267979112E-11;
-1,2853629256477E-10;
-1,52092354620414E-10;
-1,29994769633339E-10;
-8,23723670554397E-11;
-3,94522723623449E-11;
-1,75652162370935E-11;
-1,23741001568375E-11;
-8,16171033207836E-12;
8,81850016530892E-12;
3,56560256476137E-11;
5,70895429928253E-11;
6,19036830388087E-11;
5,49896806423344E-11;
5,17272324295734E-11;
6,40328286053248E-11;
8,88202776201197E-11;
1,0299993227383E-10;
8,25186545906202E-11;
2,27152220790866E-11;
-5,74205720844282E-11;
-1,23141640648936E-10;
-1,46813477219125E-10;
-1,25225576430652E-10;
-7,97167605464642E-11;
-3,89716739357706E-11;
-1,86121466286316E-11;
-1,44842469080144E-11;
-9,21283291375308E-12;
7,95056115669894E-12;
3,23980273414092E-11;
5,29326290084763E-11;
5,87719610519958E-11;
5,19859534016152E-11;
4,93045248958647E-11;
6,22379736865447E-11;
8,55800367730155E-11;
9,98337806796814E-11;
8,16771840345972E-11;
2,41301844572328E-11;
-5,2317513971436E-11;
-1,15914377122059E-10;
-1,41247033868625E-10;
-1,21511749688828E-10;
-7,76257324746385E-11;
-3,84928331784624E-11;
-1,87855144901802E-11;
-1,50598191954875E-11;
-1,08616115946647E-11;
5,70766020349982E-12;
2,98493560277781E-11;
4,91677370076117E-11;
5,48921496490516E-11;
4,94972148492865E-11;
4,73722428314627E-11;
5,9464324884006E-11;
8,31612114266102E-11;
9,80997941499003E-11;
8,02269679059434E-11;
2,67598310597636E-11;
-4,65195753907506E-11;
-1,09046054118445E-10;
-1,31618970979473E-10;
-1,14047066000394E-10;
-7,5188730849297E-11;
-3,81583845554599E-11;
-1,99078378466096E-11;
-1,62090400887378E-11;
-1,18235199074164E-11;
2,92142496443705E-12;
2,63417558899191E-11;
4,59949009085442E-11;
5,14197431903823E-11;
4,59225986082234E-11;
4,41959472365631E-11;
5,67597540903715E-11;
7,87059581385794E-11;
9,25618383250664E-11;
7,79291642791469E-11;
2,72738758979174E-11;
-4,30207647796778E-11;
-1,00441492906196E-10;
-1,22924442345397E-10;
-1,08896514629218E-10;
-7,09241433988259E-11;
-3,53036956683593E-11;
-1,9488078075125E-11;
-1,62217316902827E-11;
-1,14663491537174E-11;
1,92075192540358E-12;
2,381504891233E-11;
4,29169922378026E-11;
4,70860191169813E-11;
4,21220167643858E-11;
4,14287466567694E-11;
5,38546069428237E-11;
7,57008379385798E-11;
8,87052876523404E-11;
7,46016661914234E-11;
2,69648035052639E-11;
-3,84571254765294E-11;
-9,33398059326137E-11;
-1,15214215250628E-10;
-1,00662365165616E-10;
-6,70415567631733E-11;
-3,49639715223411E-11;
-1,91198805384175E-11;
-1,69387101565843E-11;
-1,28299381532065E-11;
3,07430963428401E-13;
2,09650546181213E-11;
3,85284235403271E-11;
4,31297514188466E-11;
3,93234993417737E-11;
3,83561244278158E-11;
5,00765837854723E-11;
7,06467105315345E-11;
8,27370741661813E-11;
7,00902606203965E-11;
2,7231935154063E-11;
-3,26766641422602E-11;
-8,43065765546922E-11;
-1,05823831025132E-10;
-9,3240485240491E-11;
-6,2351993046402E-11;
-3,35873686441761E-11;
-1,87669224560305E-11;
-1,58832177684205E-11;
-1,28525304547198E-11;
-4,84952271964502E-13;
1,82689586722726E-11;
3,40364608847159E-11;
3,97134761104254E-11;
3,63652007905584E-11;
3,53485574231464E-11;
4,63868481098631E-11;
6,58729436503699E-11;
7,79560289864802E-11;
6,65595150223734E-11;
2,69131668995294E-11;
-2,92192767566314E-11;
-7,69290203799452E-11;
-9,70583930110089E-11;
-8,6826058109217E-11;
-5,83249327880443E-11;
-3,1534692757959E-11;
-1,79302377585184E-11;
-1,54353186175831E-11;
-1,29909529927206E-11;
-1,34499182849248E-12;
1,62309197945472E-11;
3,09762386404735E-11;
3,59328541631416E-11;
3,25264122332431E-11;
3,17577465903305E-11;
4,19147763693615E-11;
6,04709534287786E-11;
7,25326462165566E-11;
6,23566253000056E-11;
2,5802219163222E-11;
-2,53348125759112E-11;
-6,88725974164505E-11;
-8,75474754028229E-11;
-7,79700804929361E-11;
-5,26929545385418E-11;
-2,90195373068678E-11;
-1,71670754367075E-11;
-1,52565556380133E-11;
-1,27193637791751E-11;
-3,02988803145053E-12;
1,32332189413304E-11;
2,76361203093484E-11;
3,16291149495276E-11;
2,87574205556621E-11;
2,92334498210801E-11;
3,93852183351002E-11;
5,52513593099775E-11;
6,5996663247025E-11;
5,84874382505726E-11;
2,49151335183664E-11;
-2,26103991667668E-11;
-6,1642366123166E-11;
-7,84054907171765E-11;
-7,11912693375683E-11;
-4,85337252216925E-11;
-2,67042375640092E-11;
-1,66295579510854E-11;
-1,42214554175608E-11;
-1,19218580279499E-11;
-2,97117936470807E-12;
1,25119712275359E-11;
2,43074181760426E-11;
2,80410106515049E-11;
2,59477723067443E-11;
2,59489089075145E-11;
3,52807700175071E-11;
4,98628593492271E-11;
6,04070984896383E-11;
5,35833511676947E-11;
2,34424850055638E-11;
-1,80214044633021E-11;
-5,340101837839E-11;
-6,94947024915694E-11;
-6,32117108317753E-11;
-4,38055682543569E-11;
-2,44625754914923E-11;
-1,47623100456524E-11;
-1,40553703226075E-11;
-1,19886004635952E-11;
-3,18324587759559E-12;
9,73661993170269E-12;
2,09151107914834E-11;
2,4388820823162E-11;
2,29891063808095E-11;
2,33534906187016E-11;
3,05421334815082E-11;
4,49889090303662E-11;
5,54923605583632E-11;
4,89452571664489E-11;
2,23072293816183E-11;
-1,51594354333935E-11;
-4,78305947372432E-11;
-6,21635451826796E-11;
-5,60598295832776E-11;
-3,90030609219462E-11;
-2,20615103298762E-11;
-1,43689679516459E-11;
-1,39616321876863E-11;
-1,19219324843793E-11;
-4,40178081797888E-12;
7,26570911246888E-12;
1,7497266636019E-11;
2,25124722027609E-11;
2,10331422892571E-11;
1,99739870959425E-11;
2,8035198052786E-11;
4,0915879763921E-11;
4,92723238504945E-11;
4,33737711428589E-11;
2,04938366276332E-11;
-1,16733169292871E-11;
-4,08970145793587E-11;
-5,43790155172422E-11;
-4,94704524837366E-11;
-3,39673733554343E-11;
-2,00587049434767E-11;
-1,38410522926765E-11;
-1,21007089694256E-11;
-1,0953246402428E-11;
-4,64656304636189E-12;
6,23499544991651E-12;
1,47365037829531E-11;
1,84921456228345E-11;
1,75998903294446E-11;
1,79180932016338E-11;
2,49938833133701E-11;
3,54473487383E-11;
4,29733572593203E-11;
3,8907171679627E-11;
1,8845466089527E-11;
-9,50319217847197E-12;
-3,46316656951667E-11;
-4,72666130231352E-11;
-4,34836249236457E-11;
-3,02530766879986E-11;
-1,79004660801822E-11;
-1,17753255275422E-11;
-1,10792280701536E-11;
-9,8455031311565E-12;
-4,5540792780316E-12;
4,3002272618085E-12;
1,20305895265325E-11;
1,51221518652622E-11;
1,48706255118285E-11;
1,49237230713979E-11;
2,14153844910144E-11;
3,16952397879859E-11;
3,83443621641569E-11;
3,51924732966027E-11;
1,76790114718102E-11;
-7,09973964544511E-12;
-2,86971987534365E-11;
-3,9726614229415E-11;
-3,66285101587626E-11;
-2,58782343249225E-11;
-1,58156536697519E-11;
-1,0684219028494E-11;
-1,00447025736772E-11;
-8,55799017412592E-12;
-4,09997862573853E-12;
3,38399314756561E-12;
1,05293507668672E-11;
1,27853130082469E-11;
1,2923417848874E-11;
1,37437799905633E-11;
1,81961526739372E-11;
2,68963077028625E-11;
3,3113909274491E-11;
3,060006581633E-11;
1,71241854779688E-11;
-4,23018405882038E-12;
-2,48038398739703E-11;
-3,46622705149282E-11;
-3,17080473042496E-11;
-2,22933796045095E-11;
-1,32465114785583E-11;
-9,39892360087009E-12;
-9,21007106058392E-12;
-8,01070029823985E-12;
-4,43893045013663E-12;
1,90145551446061E-12;
8,2563196075883E-12;
1,04640337057535E-11;
1,01461525359825E-11;
1,12014539813054E-11;
1,581130547106E-11;
2,31702831821065E-11;
2,86637309257561E-11;
2,74706247527133E-11;
1,56000635403768E-11;
-3,48583397484175E-12;
-1,95711187308657E-11;
-2,74370114886171E-11;
-2,67432807219617E-11;
-1,95982618620937E-11;
-1,20846051286854E-11;
-8,60715086022233E-12;
-7,81374050829322E-12;
-7,93574171173194E-12;
-5,46546911082562E-12;
1,60897985745443E-12;
6,85131144761525E-12;
7,8761494063985E-12;
8,78295497155337E-12;
9,77719031393193E-12;
1,28567880822713E-11;
2,03081974119465E-11;
2,5666235740798E-11;
2,31989699999084E-11;
1,33312089581104E-11;
-1,67623314051174E-12;
-1,590546844913E-11;
-2,3334463729258E-11;
-2,17879538470958E-11;
-1,52573011904396E-11;
-1,05692523461423E-11;
-8,02519991484195E-12;
-7,06427568184987E-12;
-6,76559826741956E-12;
-4,03259224492291E-12;
1,34186113715482E-13;
4,29192359796128E-12;
6,91783533222406E-12;
6,98149190812394E-12;
7,52072395404729E-12;
1,08256459176398E-11;
1,63509936538612E-11;
2,10677165933769E-11;
2,00791591292216E-11;
1,26541730115716E-11;
1,91216948051681E-13;
-1,28330134733525E-11;
-1,79181274408378E-11;
-1,68403410946301E-11;
-1,37860347521451E-11;
-8,44354293747625E-12;
-5,92244218104698E-12;
-6,55926429720838E-12;
-5,93075690564844E-12;
-3,9044782830402E-12;
-2,81101025520093E-13;
3,76247778225171E-12;
5,55858940502693E-12;
5,63479393910449E-12;
6,07670075574595E-12;
8,61079192016277E-12;
1,33352121838513E-11;
1,76024588579341E-11;
1,75730373687302E-11;
1,11836197899246E-11;
1,36126470142831E-12;
-8,18054474133964E-12;
-1,39995954834434E-11;
-1,37060755744446E-11;
-1,05232041537813E-11;
-7,38879655926152E-12;
-5,81577194768239E-12;
-6,122514691028E-12;
-5,72515170700672E-12;
-3,72963666615566E-12;
-8,03616393812993E-13;
2,50144257651992E-12;
3,85580368207431E-12;
3,59746665999945E-12;
5,022571665793E-12;
7,86675605487066E-12;
1,09888437324327E-11;
1,36850237529328E-11;
1,4083957648369E-11;
9,49041280535903E-12;
1,47671104979185E-12;
-5,49861547946315E-12;
-1,02861041065158E-11;
-1,04811260254589E-11;
-7,18080163140619E-12;
-5,69561826118088E-12;
-5,03767212092461E-12;
-4,21968580021838E-12;
-4,74312261158877E-12;
-3,61506513260741E-12;
-5,03964674786704E-13;
1,19786865248172E-12;
1,66666519345089E-12;
2,77704887859749E-12;
4,26624690916018E-12;
5,60758673978931E-12;
7,9712990270484E-12;
1,04303957359974E-11;
1,07784245320155E-11;
8,04125307703334E-12;
2,50574496630468E-12;
-3,1460757301292E-12;
-6,37043138324307E-12;
-7,29798892628728E-12;
-6,38945280808296E-12;
-4,47743266923745E-12;
-4,00126014849694E-12;
-4,59814906446389E-12;
-4,28808459609249E-12;
-3,17167813313958E-12;
-1,57913103197464E-12;
1,85391303338821E-13;
1,2748696492958E-12;
1,81133351454552E-12;
2,76516476850055E-12;
3,88138326361333E-12;
6,29855086063934E-12;
9,39315243309262E-12;
9,45379529823753E-12;
7,22445676454009E-12;
3,03973247116909E-12;
-1,46765982200804E-12;
-3,19620543113336E-12;
-5,35617902596321E-12;
-5,16861273562167E-12;
-2,1017328001607E-12;
-3,15142656894367E-12;
-3,87074189211503E-12;
-2,77185339486261E-12;
-3,27223761702239E-12;
-1,98764630098362E-12;
-2,39404557378788E-13;
1,06154028560023E-13;
5,42156258801914E-13;
9,93397426146072E-13;
2,66788574369807E-12;
5,21539349388501E-12;
6,26108915293243E-12;
6,95354396531117E-12;
6,51162248951737E-12;
3,6385879406529E-12;
8,94351835162932E-13;
-2,29182279612303E-12;
-3,33519326615497E-12;
-2,24170278624188E-12;
-2,99087581664235E-12;
-2,66083140835252E-12;
-2,90865369771945E-12;
-3,13352864555854E-12;
-1,81975164159048E-12;
-2,30650144102723E-12;
-9,71775661140359E-13;
-4,4840373218252E-14;
-1,08500037518979E-12;
1,05786759308709E-12;
1,98968028766995E-12;
2,03767852007857E-12;
4,56530697858651E-12;
5,27969188666504E-12;
5,2577726422355E-12;
4,67611232052332E-12;
2,27080683126773E-12;
1,85363833223042E-13;
-1,26991548368911E-12;
-1,25959761541741E-12;
-1,1475321767183E-12;
-2,31405554244873E-12;
-2,64165197589142E-12;
-2,08185646713284E-12;
-2,44013160513329E-12;
-2,62506443358632E-12;
-1,30922034011156E-12;
-6,83725982522634E-13;
-7,93447155991779E-13;
5,38717445214612E-13;
1,28876924542131E-12;
1,66720852866289E-12;
3,43628667830652E-12;
3,95993479018225E-12;
4,0756260427911E-12;
4,63008251707524E-12;
3,65755752109619E-12;
2,22920039305235E-12;
9,75629054520049E-13;
-2,32451700371965E-13;
-8,49122652951228E-13;
-1,02918740011249E-12;
-1,26286333645262E-12;
-1,95216107656166E-12;
-2,02997590859907E-12;
-2,08499329734411E-12;
-2,64370297359545E-12;
-1,53888257778122E-12;
-1,21042618429818E-12;
-9,28747440515944E-13;
1,51013174116092E-12;
1,03331119328196E-12;
7,38575082240778E-13;
3,15491759704839E-12;
3,61129934886297E-12;
3,76012143659953E-12;
3,53380238855055E-12;
2,93664750278853E-12;
2,52164576954434E-12;
4,52881498235086E-13;
-6,78463934825236E-13;
-1,24594089230769E-12;
-1,67619344546402E-12;
-1,42819787341573E-12;
-1,94876751919851E-12;
-2,0593051492854E-12;
-2,35920282638606E-12;
-2,13728420200829E-12;
-1,63013746085826E-12;
-1,22641056829678E-12;
-1,8180593455308E-13;
-8,96979948595408E-13;
-5,88572489399042E-13;
1,28311734461133E-12;
2,99532648568049E-12;
4,80324165087758E-12;
5,01948618930821E-12;
4,86752019189501E-12;
3,73561330882787E-12;
1,85303347489087E-12;
6,04018854428478E-13;
-7,91398389197171E-13;
-1,17491706757822E-12;
-1,24937375824688E-12;
-1,68803835930602E-12;
-1,93544302285154E-12;
-2,57907031942175E-12;
-2,75014896710101E-12;
-1,79151610497733E-12;
-1,18900565237388E-12;
-1,43638624923234E-12;
-1,30613134970757E-12;
-1,26354046671746E-12;
-5,32733537256582E-13;
2,04491745552216E-12;
3,96346160763692E-12;
5,45489032255862E-12;
6,33648776656228E-12;
4,34688876526491E-12;
2,37523000305842E-12;
1,0223984458548E-12;
-4,22654896647154E-13;
4,6925123788483E-14;
-5,14863562030219E-13;
-1,67465693891501E-12;
-1,73618028275703E-12;
-2,85436922691992E-12;
-2,74415280603778E-12;
-1,70294921640839E-12;
-1,04840736751973E-12;
-6,12770172192233E-13;
-1,92694334652365E-12;
-2,4107992242943E-12;
-6,30956075393322E-13;
1,42337251929754E-12;
4,34490987490145E-12;
6,87679005677026E-12;
6,21140461585511E-12;
4,17454084116691E-12;
2,84468137020912E-12;
1,19525971334468E-12;
-1,35669180783181E-13;
-8,05966664529285E-13;
-8,45206749536709E-13;
-1,88902282489345E-13;
-1,5837572965613E-12;
-2,2498142330112E-12;
-1,63600337595611E-12;
-2,35798321545375E-12;
-2,14848193548429E-12;
-2,4021864174425E-12;
-2,54038919412669E-12;
-2,24567637016917E-12;
-1,77317423705529E-12;
5,67331818256144E-13;
3,48834522776899E-12;
6,89568517875751E-12;
7,69867330278085E-12;
4,97953866034692E-12;
2,53176053635932E-12;
1,01890603334121E-12;
2,46946842480354E-13;
-2,38062231009403E-13;
-2,45663129740714E-13;
-2,08274484233656E-13;
-1,91728458084238E-12;
-2,59014797426111E-12;
-2,05823016948213E-12;
-2,4564786262175E-12;
-2,04700745631106E-12;
-2,62774711973318E-12;
-3,31701569212767E-12;
-3,09505574380372E-12;
-2,46829565704679E-12;
5,18086758862341E-13;
3,88944448405888E-12;
6,80196380028121E-12;
7,48707230422057E-12;
5,32826593800626E-12;
3,31575422083669E-12;
1,70280384474357E-12;
1,06947980437258E-12;
1,03518592959359E-12;
2,07071315358293E-13;
-1,03175109202539E-12;
-1,56877813118392E-12;
-1,53268485096377E-12;
-2,55999553125028E-12;
-3,03061238814276E-12;
-2,08847559801497E-12;
-2,3173780461935E-12;
-3,30018412521999E-12;
-3,78714378493566E-12;
-2,71731410199273E-12;
3,16170504609088E-13;
3,67829759299915E-12;
6,79799270340894E-12;
8,34286424273384E-12;
6,78142784186157E-12;
3,95795170809434E-12;
2,03675018238233E-12;
9,17031302453246E-13;
2,85470355520662E-13;
-2,96930026376382E-13;
-6,59801918399322E-13;
-9,75191286787471E-13;
-2,27338291036164E-12;
-2,77539491815796E-12;
-2,09352322146859E-12;
-1,67479894765514E-12;
-1,90140866092514E-12;
-3,27656551379978E-12;
-4,18398657400301E-12;
-2,95668895233272E-12;
3,49275459221181E-13;
3,55121377647524E-12;
5,9898477417765E-12;
7,92907126222116E-12;
6,69875026379793E-12;
3,85400021124781E-12;
1,93570703673412E-12;
6,24235875503214E-13;
1,34489706494311E-13;
1,99606704177934E-13;
-6,52640463332945E-13;
-1,85394456977712E-12;
-2,02778859933225E-12;
-2,8789814792478E-12;
-2,38653713469052E-12;
-1,1638959005149E-12;
-3,14295774334878E-12;
-4,00537804010686E-12;
-2,74477116069899E-12;
-2,51343833370275E-12;
-8,87788748991587E-13;
0,00933343404921543;
0,0226297298316536;
0,0163727372836314;
0,00943309618347569;
0,0121693917895623;
0,00702616733328682;
0,00563481713143113;
0,00458271005430964;
0,000840500090093092;
0,00103239237112433;
-0,00119043949678184;
-0,00199195266024676;
-0,00280713693883424;
-0,00455368132262716;
-0,00488732500181045;
-0,005855900711664;
-0,0059412172769155;
-0,00618248832735849;
-0,00699357667143391;
-0,00792070354719466;
-0,00934888799178519;
-0,0102428887055019;
-0,0105184993860375;
-0,0101085231366829;
-0,00920766466243718;
-0,00843029679998245;
-0,00783043416818431;
-0,00745747149658429;
-0,00704805327860347;
-0,00641867706915849;
-0,0056754536340681;
-0,00495848727455535;
-0,00445308141627994;
-0,00409076741389224;
-0,00366382587068096;
-0,00302656744012483;
-0,00222823254796657;
-0,00157282907743029;
-0,00136107646284932;
-0,00166524557520808;
-0,00222572541895828;
-0,00258706176715662;
-0,00240676231439889;
-0,00165718470973379;
-0,000624734011560534;
0,000316669699380237;
0,000963663524286673;
0,00137586886965716;
0,00176513174868987;
0,00227846193139747;
0,0028737118354972;
0,00337820905022362;
0,00366494227250883;
0,00378442558941508;
0,00392474763453129;
0,00423344805993717;
0,00465410314409591;
0,00492912948098131;
0,00478539611205471;
0,00416205590710093;
0,00329839411826383;
0,00260120494187508;
0,0023840467652757;
0,00267133447671766;
0,00320917063382848;
0,00366539556014629;
0,00385876826846906;
0,00384594464872339;
0,00381730502416417;
0,00390618887395971;
0,00407638930595173;
0,00417461995510231;
0,00408914816082143;
0,00386593850919718;
0,00367395077255233;
0,00364551935388858;
0,00373088375780484;
0,00370125625449873;
0,00331394893552262;
0,00251555483845952;
0,00151956437562351;
0,000688088787468139;
0,00029992151295821;
0,000376496340364495;
0,000692035013181275;
0,000951432384081306;
0,000993755271877779;
0,000869183491054604;
0,000746304650372634;
0,000742935836218141;
0,000826535916632734;
0,000860914879387755;
0,000746775452211058;
0,000524376745045529;
0,000342641812952482;
0,000317918802183604;
0,000405552498165746;
0,000402860400280432;
9,51196628069938E-5;
-0,000565180950133132;
-0,0107236164859307;
-0,0246910037782207;
-0,0187063544820449;
-0,0116223592894737;
-0,0139972387328026;
-0,008535922895869;
-0,00701192127134902;
-0,00596902285985149;
-0,00223033989552735;
-0,00231727179425877;
8,9766133434684E-5;
0,00103463609521178;
0,00186474291327926;
0,00353260259653568;
0,00382392664265945;
0,00488786326704357;
0,00516656253940866;
0,00552145619548734;
0,00617835279342754;
0,0066417726504775;
0,00746064874806561;
0,00787759598075751;
0,00802158626081463;
0,00784053012953419;
0,00735462448938317;
0,00695105593450418;
0,00655991790574332;
0,0062684317460335;
0,00594145075965476;
0,00548465812335112;
0,00497855075577209;
0,00445879659033427;
0,00403463682589515;
0,00366783363972886;
0,00326335428783845;
0,00276323492938398;
0,00218226984878014;
0,00167054995805824;
0,00136622431030459;
0,00130576063735703;
0,00137147127148894;
0,001348043471661;
0,00107699073642457;
0,000543583804906464;
-0,000116334499932438;
-0,000724583159473406;
-0,00118434703946405;
-0,00152244935985114;
-0,0018402451347508;
-0,00220794459616152;
-0,00260531817204508;
-0,00294924153749649;
-0,0031777686246511;
-0,00331523397981059;
-0,0034529223068046;
-0,00366309227096187;
-0,00391872199798991;
-0,00409377840491241;
-0,00405387359314898;
-0,00376838330157313;
-0,00335502044541412;
-0,00301538525100273;
-0,0029060283551388;
-0,00304040644421057;
-0,00329290963071005;
-0,00349792676979766;
-0,00356466124847209;
-0,00352164921026153;
-0,00346521642108635;
-0,00346340006644846;
-0,00349852997895134;
-0,00349315078349023;
-0,00339050036552152;
-0,00321419526774165;
-0,0030511566157409;
-0,00297002122253798;
-0,00294586744186432;
-0,0028609245961008;
-0,00258939496587491;
-0,00210309155426287;
-0,00151283612702316;
-0,00100788060316723;
-0,000734996234764983;
-0,000706570809516258;
-0,000804732260565918;
-0,000874202718229257;
-0,00082982998602236;
-0,00069812280284905;
-0,000568858967062608;
-0,000505246882883242;
-0,000490307441578331;
-0,000451225008946812;
-0,000334548730339102;
-0,000161839332713676;
-1,36443041965724E-5;
4,66544110426603E-5;
4,29415614137808E-5;
8,55694726485377E-5;
0,000292250949844591;
0,000689730463080549;
0,00117541312315118;
0,00157388876156103;
0,00174942933966006;
0,00169131748283243;
0,00150982607241242;
0,00134983223890374;
0,00129097283939036;
0,00130920953881045;
0,00132185063233657;
0,00127090372470367;
0,00117271456985971;
0,00109530365346239;
0,00108867138894775;
0,00113332918217044;
0,00115522383391097;
0,00109623070135414;
0,000978922466864708;
0,000905712280584714;
0,000985677445391478;
0,00124377308535632;
0,00158554303313141;
0,00184943190623132;
0,00191061459020583;
0,00175959519309642;
0,0014983414555385;
0,00126056787108735;
0,00111977160158549;
0,00105394594310993;
0,000987128155666798;
0,000866119301135513;
0,000706078702281524;
0,000569606170274657;
0,000502666784217291;
0,000487363045239613;
0,000455721295349358;
0,000354429509469056;
0,000204210371909731;
9,89339103719453E-5;
0,000138466947504221;
0,000345511934150468;
0,000633403626624736;
0,000854135513471192;
0,000893432900592634;
0,000742587389835503;
0,000494783544356864;
0,000272121621040845;
0,000141579697577258;
8,28694894240158E-5;
2,64722439634496E-5;
-7,63033800153158E-5;
-0,000211769231120065;
-0,000323008906694983;
-0,000368321707810423;
-0,000364219265796409;
-0,000372793466377412;
-0,000442732978063157;
-0,000555323121580628;
-0,00062534276704561;
-0,000562198641103727;
-0,000345503531698143;
-5,42358153981301E-5;
0,000177000841885217;
0,000244345292826209;
0,000139815374615183;
-5,21469001850334E-5;
-0,000220953272172038;
-0,000306058213030689;
-0,000326011715758904;
-0,000343916846399493;
-0,000403962758189817;
-0,000493856150479783;
-0,000562215373685202;
-0,000571455609032919;
-0,000536624096683922;
-0,000513919677603633;
-0,000547380099280101;
-0,000620159084311894;
-0,000655416112409264;
-0,000571530064133193;
-0,000350239367969397;
-6,28363659292654E-5;
0,000169348864645606;
0,000252779560694471;
0,000180302401295129;
2,79291283517808E-5;
-0,000104873117495294;
-0,000163699951438533;
-0,000165257794845411;
-0,000166248195069006;
-0,000206336749594687;
-0,000274461380663026;
-0,000324502688343574;
-0,00032275123066089;
-0,000282699345258742;
-0,000254692679672043;
-0,000278135970337323;
-0,000337890841279933;
-0,000365144787354801;
-0,000286869561847101;
-8,67513123365134E-5;
0,000171472698397787;
0,000379420176304705;
0,000453623039938197;
0,000387792737129763;
0,000249849503649951;
0,000128576257503139;
7,25119564125101E-5;
6,67932649605173E-5;
6,09497589306554E-5;
1,9722479134998E-5;
-4,69756490076795E-5;
-9,80592005831587E-5;
-0,000103515484656793;
-7,53095248592474E-5;
-5,81340140846132E-5;
-8,69258272148538E-5;
-0,00014817952889998;
-0,000180784474621517;
-0,000119949454711444;
4,8782686552914E-5;
0,000268925661623302;
0,000444501444686874;
0,000501669410190458;
0,000434943446471494;
0,00030447420369426;
0,000188803012623577;
0,000130842822743612;
0,000117472225098568;
0,000104147791544887;
5,97871302725925E-5;
-6,82634227700313E-6;
-5,94403410885353E-5;
-7,15963142925884E-5;
-5,38344756708286E-5;
-4,54978421158823E-5;
-7,73087025785508E-5;
-0,000137355361639964;
-0,000171888971692545;
-0,00012398000690474;
1,90364528273868E-5;
0,000207530674630426;
0,000357263613410001;
0,00040348663140032;
0,000341428865991763;
0,000223832624374053;
0,000119498072740749;
6,59781533168347E-5;
5,17705306728741E-5;
3,79085641590087E-5;
-2,77342393823335E-6;
-6,25929166989618E-5;
-0,000109894617346952;
-0,000121603014861473;
-0,000106937319756979;
-0,000100217081005726;
-0,000128215597439266;
-0,00018054976712171;
-0,000210430679571388;
-0,000168350685998658;
-4,33440270302713E-5;
0,000121401740348208;
0,000252676820069566;
0,00029426364094353;
0,000242043415306869;
0,000141780418209082;
5,31144179571638E-5;
8,55972948927196E-6;
-1,87151227318283E-6;
-1,19206170322862E-5;
-4,50877489741652E-5;
-9,47281473565816E-5;
-0,000133496090465935;
-0,000141483880642618;
-0,000126672695667535;
-0,000118681202834728;
-0,000140589990680537;
-0,00018344504577913;
-0,000206958181301063;
-0,000168546841973451;
-5,8821345318965E-5;
8,50531663960754E-5;
0,000200162828030268;
0,000238248481976902;
0,000195800877985888;
0,000112086186244088;
3,82199099994978E-5;
2,0358899285736E-6;
-5,03339340879758E-6;
-1,18590247620427E-5;
-3,85248957791882E-5;
-7,93429333230577E-5;
-0,000110961930867076;
-0,000116404944947884;
-0,000102492316344444;
-9,44703966419406E-5;
-0,000111986229900607;
-0,000147403040910517;
-0,000166448210685085;
-0,000132942786827421;
-3,89428680696258E-5;
8,39742144297266E-5;
0,000182431370736893;
0,000215536756747878;
0,000180349058747106;
0,00011013394213084;
4,81391701974237E-5;
1,78853142646318E-5;
1,21248599342541E-5;
6,48783097150407E-6;
-1,59532410468391E-5;
-5,03875609344786E-5;
-7,71398443487021E-5;
-8,19266230275521E-5;
-7,04927851548779E-5;
-6,40548446948933E-5;
-7,909728529662E-5;
-0,000109192601108204;
-0,000125595874564983;
-9,80084380992478E-5;
-1,98084060728602E-5;
8,25638680614061E-5;
0,000164488748517209;
0,000191834749940154;
0,000162179937807124;
0,000103287016351619;
5,11931601910045E-5;
2,54689051264954E-5;
2,00770581610918E-5;
1,47682426929285E-5;
-4,4979461654337E-6;
-3,37149163426645E-5;
-5,65695569049342E-5;
-6,12404110947677E-5;
-5,24899379166317E-5;
-4,78554899186795E-5;
-6,0936957933908E-5;
-8,64134528854958E-5;
-0,000100584652532449;
-7,85143777833137E-5;
-1,47852618767989E-5;
6,88427909394864E-5;
0,000135724334038084;
0,000157878768221239;
0,000133352138656558;
8,489710936563E-5;
4,19914139157665E-5;
2,06134817085367E-5;
1,58240548909056E-5;
1,11135354577385E-5;
-4,94097317518275E-6;
-2,90663203747519E-5;
-4,80022099704035E-5;
-5,21616250912352E-5;
-4,54182273454935E-5;
-4,19781827898625E-5;
-5,28320733653596E-5;
-7,36643565726338E-5;
-8,53425758648896E-5;
-6,77827029734085E-5;
-1,66566977347523E-5;
5,05058592692488E-5;
0,000104262942808642;
0,000122186393957845;
0,000102741417248827;
6,41567170601683E-5;
2,99913873272368E-5;
1,29840944491318E-5;
9,18440420656264E-6;
5,45067483164746E-6;
-7,28471134322473E-6;
-2,64108247648592E-5;
-4,1415690776964E-5;
-4,4722545687351E-5;
-3,94060741569478E-5;
-3,66791580498655E-5;
-4,51895244807802E-5;
-6,15259206385295E-5;
-7,06569801144506E-5;
-5,6851982773702E-5;
-1,67586444779097E-5;
3,58873199324451E-5;
7,80996810266856E-5;
9,24234706856867E-5;
7,76982311371781E-5;
4,81029995520679E-5;
2,19019767071286E-5;
8,93740044912185E-6;
6,14346757320768E-6;
3,38802449003374E-6;
-6,29330225210759E-6;
-2,08810962729322E-5;
-3,231566380827E-5;
-3,48124895929183E-5;
-3,07328086770855E-5;
-2,86211412776653E-5;
-3,50380481345247E-5;
-4,73776987885018E-5;
-5,42587718705333E-5;
-4,38225223599488E-5;
-1,3582568001603E-5;
2,60996724702781E-5;
5,7975377825962E-5;
6,90069235139746E-5;
5,83662077000332E-5;
3,66390160116162E-5;
1,73939532977372E-5;
7,90649558906069E-6;
5,89574315291208E-6;
3,89571439086416E-6;
-3,19581321032951E-6;
-1,38829353215468E-5;
-2,22748044166224E-5;
-2,41706967526046E-5;
-2,13003342793799E-5;
-1,98504581426291E-5;
-2,45386680728408E-5;
-3,34701919541174E-5;
-3,84835486671065E-5;
-3,11333591899059E-5;
-9,69508221304932E-6;
1,84437695331117E-5;
4,10871970554538E-5;
4,90855959752398E-5;
4,19031805976867E-5;
2,69663413555478E-5;
1,37173348911984E-5;
7,17750068181039E-6;
5,75551104590666E-6;
4,32514260266494E-6;
-5,82855108739394E-7;
-7,93201272479175E-6;
-1,3732165867204E-5;
-1,51694957980777E-5;
-1,34204444309293E-5;
-1,2608545926679E-5;
-1,58399561868109E-5;
-2,18421047014419E-5;
-2,52671463301408E-5;
-2,06503773595462E-5;
-6,93156704480113E-6;
1,10969609026797E-5;
2,56454589443259E-5;
3,09527240783597E-5;
2,67373083010609E-5;
1,76748015068547E-5;
9,61695561218228E-6;
5,62486283938275E-6;
4,70657293990672E-6;
3,76817196873574E-6;
7,57613184946103E-7;
-3,6880674413853E-6;
-7,22771488944635E-6;
-8,24984474402863E-6;
-7,45140339786034E-6;
-7,16938531810984E-6;
-9,11578665525072E-6;
-1,25570350710049E-5;
-1,45783991291137E-5;
-1,22907624740115E-5;
-5,20720016771432E-6;
4,12039421340943E-6;
1,17034608482479E-5;
1,47019564467963E-5;
1,30533363307045E-5;
9,06423796008608E-6;
5,4963644602214E-6;
3,7248673217896E-6;
3,2729514907944E-6;
2,79223250628039E-6;
1,44676868395558E-6;
-4,69800634942362E-7;
-2,03076868043398E-6;
-2,65507065811486E-6;
-2,62882258461958E-6;
-2,75985046469047E-6;
-3,5679656727544E-6;
-4,78104505794181E-6;
-5,56365828820947E-6;
-5,22588342000963E-6;
-3,769587500856E-6;
-1,83553186068367E-6;
-1,72447549255452E-7;
8,67566261280911E-7;
1,40822929959979E-6;
1,74130713993936E-6;
2,00221940308485E-6;
2,13429251689076E-6;
2,09803412633101E-6;
2,02540136549787E-6;
2,11076389459271E-6;
2,35637428878593E-6;
2,49142267547504E-6;
2,22548320493514E-6;
1,61995939063033E-6;
1,15875072870386E-6;
1,32804561908879E-6;
2,01022681318877E-6;
2,28778011418306E-6;
9,98414238343015E-7;
-2,27063280353295E-6;
-6,55221011217783E-6;
-9,87189032558272E-6;
-1,0492337046436E-5;
-8,13347484773307E-6;
-4,19276758604924E-6;
-7,34791082703384E-7;
9,85456660261531E-7;
1,29435424337234E-6;
1,56085928647609E-6;
2,8392848375579E-6;
4,88830438198439E-6;
6,43855324931375E-6;
6,47380411156695E-6;
5,34499469260668E-6;
4,61033270451399E-6;
5,59163223556324E-6;
7,84723176556393E-6;
9,00523584877367E-6;
6,36840139979543E-6;
-8,15755701477332E-7;
-1,02492369833623E-5;
-1,77063510478427E-5;
-1,97241441171656E-5;
-1,58934909249512E-5;
-9,00407574200227E-6;
-2,93181600372255E-6;
8,27547360879479E-8;
6,66794239986818E-7;
1,20465549335989E-6;
3,45551214780514E-6;
6,97797901239399E-6;
9,68511204497939E-6;
9,9673096779514E-6;
8,41229546382521E-6;
7,45502440521044E-6;
9,09818745507259E-6;
1,2635716292481E-5;
1,4512277052592E-5;
1,07834436609709E-5;
4,2148989493766E-7;
-1,31959299975635E-5;
-2,40194786984215E-5;
-2,71901661350353E-5;
-2,21946211471204E-5;
-1,2946042464505E-5;
-4,78018880333708E-6;
-7,30776795162483E-7;
7,12760800459432E-8;
8,25501866268954E-7;
3,85588403107824E-6;
8,56026206544599E-6;
1,21974026415409E-5;
1,26837553361235E-5;
1,07962295520609E-5;
9,66843673807323E-6;
1,18445234635698E-5;
1,64077246032382E-5;
1,88631672897825E-5;
1,42781909459251E-5;
1,40781447313312E-6;
-1,55165345902304E-5;
-2,90062330487769E-5;
-3,31024021180742E-5;
-2,72097741947067E-5;
-1,61239482420772E-5;
-6,32519528077002E-6;
-1,46790530705829E-6;
-4,93827217619297E-7;
4,32353684638453E-7;
4,07401586641043E-6;
9,70341766001483E-6;
1,40711793016345E-5;
1,47266389663503E-5;
1,2593329962046E-5;
1,13443359872831E-5;
1,39406980173183E-5;
1,930293991779E-5;
2,22144239420131E-5;
1,69853617754582E-5;
2,20526611644425E-6;
-1,72420413868621E-5;
-3,27712281843794E-5;
-3,75874003055319E-5;
-3,10333662001865E-5;
-1,85725782653485E-5;
-7,54930743595847E-6;
-2,08520915718468E-6;
-9,79719311402344E-7;
7,89195187624441E-8;
4,18213381186559E-6;
1,05078667765534E-5;
1,54283011239355E-5;
1,62204387531456E-5;
1,39167150191119E-5;
1,25886425598439E-5;
1,55038356626152E-5;
2,14626315460036E-5;
2,47193867294975E-5;
1,90316569019436E-5;
2,86925820381198E-6;
-1,84095531860954E-5;
-3,54253633239243E-5;
-4,07803081175563E-5;
-3,37729835675641E-5;
-2,03454967181752E-5;
-8,45882009792037E-6;
-2,56665899975445E-6;
-1,36736430366033E-6;
-2,12994578058973E-7;
4,21796852730385E-6;
1,1036690080837E-5;
1,63509679541171E-5;
1,72487781858662E-5;
1,48383410317159E-5;
1,34657670260881E-5;
1,66084558239499E-5;
2,29838641573138E-5;
2,6486371397097E-5;
2,050011306346E-5;
3,41536677605504E-6;
-1,90909350870572E-5;
-3,71101292860842E-5;
-4,28452681879409E-5;
-3,55662978093123E-5;
-2,15287675978143E-5;
-9,09442826167577E-6;
-2,93100784598547E-6;
-1,67171481411027E-6;
-4,54672906329951E-7;
4,18639226228559E-6;
1,13198625531936E-5;
1,68884594123667E-5;
1,78636294550869E-5;
1,54005853593027E-5;
1,40124149342656E-5;
1,73022086355659E-5;
2,39369505350648E-5;
2,75977631956372E-5;
2,14508607548262E-5;
3,84184936426855E-6;
-1,93686003652794E-5;
-3,79719359209558E-5;
-4,39486587455878E-5;
-3,65536336100372E-5;
-2,22131039462472E-5;
-9,50307848999913E-6;
-3,20338277046364E-6;
-1,91306184616545E-6;
-6,61720577468119E-7;
4,08812589674877E-6;
1,13827618379457E-5;
1,70853516507876E-5;
1,81132153955121E-5;
1,56437992141541E-5;
1,42646593453043E-5;
1,7632343500935E-5;
2,43911925434257E-5;
2,81349829912062E-5;
2,19454049957311E-5;
4,15332410710591E-6;
-1,93124052203093E-5;
-3,81396880230921E-5;
-4,42375659776056E-5;
-3,68575253922671E-5;
-2,24746307205296E-5;
-9,71993474454873E-6;
-3,39838210805057E-6;
-2,10124024172704E-6;
-8,39391465201451E-7;
3,93324839844396E-6;
1,12584866793041E-5;
1,69926728148909E-5;
1,8052042455197E-5;
1,56152681065651E-5;
1,4265856921192E-5;
1,76525376255635E-5;
2,44206108307044E-5;
2,81831874678117E-5;
2,20503970799515E-5;
4,36373293142858E-6;
-1,89774146502241E-5;
-3,77232821476788E-5;
-4,38390617878341E-5;
-3,65828299938803E-5;
-2,23758353200669E-5;
-9,77012162877101E-6;
-3,52254826772637E-6;
-2,23876043482188E-6;
-9,86330475014676E-7;
3,73687948343536E-6;
1,098298664055E-5;
1,66625234244173E-5;
1,77350964204496E-5;
1,53630234375496E-5;
1,40601018637822E-5;
1,74160367242821E-5;
2,40967981735193E-5;
2,78238791751275E-5;
2,18300723428067E-5;
4,48868083266935E-6;
-1,84116102847527E-5;
-3,68213396661869E-5;
-4,28679497327023E-5;
-3,58244780501914E-5;
-2,19733156041305E-5;
-9,67644661129506E-6;
-3,58201722439216E-6;
-2,32833795250717E-6;
-1,10197345355708E-6;
3,5119078710153E-6;
1,05879550821188E-5;
1,61411595321073E-5;
1,72111130401763E-5;
1,49293349489906E-5;
1,36859566486146E-5;
1,6969621383889E-5;
2,34831496494685E-5;
2,71294026827165E-5;
2,13410140872609E-5;
4,54047146211987E-6;
-1,76605899282168E-5;
-3,55256142899157E-5;
-4,14308615108524E-5;
-3,46712489369096E-5;
-2,13212088916236E-5;
-9,46247430977223E-6;
-3,58527571599637E-6;
-2,37537881171891E-6;
-1,1887381729943E-6;
3,26711526118679E-6;
1,00992415940296E-5;
1,54676856147768E-5;
1,65215433409206E-5;
1,43499117106722E-5;
1,31758893380733E-5;
1,63533019911217E-5;
2,26347997638568E-5;
2,61631092088031E-5;
2,06324913434674E-5;
4,52855015416541E-6;
-1,67670373083867E-5;
-3,39203775721811E-5;
-3,96254965121412E-5;
-3,32047839286059E-5;
-2,04699748220458E-5;
-9,15112532041218E-6;
-3,54160372324222E-6;
-2,38628069061974E-6;
-1,25023571097519E-6;
3,00906164092827E-6;
9,53887254681895E-6;
1,46761636282699E-5;
1,57026992217491E-5;
1,365607569101E-5;
1,25584599437328E-5;
1,56025291020108E-5;
2,16008932988855E-5;
2,49816517507413E-5;
1,97486992729748E-5;
4,46160117027888E-6;
-1,57688253011703E-5;
-3,20806659082266E-5;
-3,75389280461315E-5;
-3,14978763101643E-5;
-1,9464603971305E-5;
-8,76280644164124E-6;
-3,45920645804526E-6;
-2,36663940065443E-6;
-1,28951985175069E-6;
2,74381363153764E-6;
8,92673844706799E-6;
1,37972773604485E-5;
1,47873565030139E-5;
1,28762387091528E-5;
1,18597009639836E-5;
1,47495334120011E-5;
2,04258876376517E-5;
2,36362239930348E-5;
1,87298492058242E-5;
4,34838375502934E-6;
-1,46984743939217E-5;
-3,00720021857573E-5;
-3,52474522951498E-5;
-2,96142963158356E-5;
-1,83443606731746E-5;
-8,31510148697378E-6;
-3,34491622707433E-6;
-2,32098982908304E-6;
-1,3088839276958E-6;
2,47712300851326E-6;
8,28080174698513E-6;
1,28585286416482E-5;
1,38048874710964E-5;
1,20359631380549E-5;
1,1103100640518E-5;
1,38232758085699E-5;
1,91495350729446E-5;
2,21725379498902E-5;
1,7612021863966E-5;
4,19734411399382E-6;
-1,35838399812187E-5;
-2,79513119620347E-5;
-3,28175761736924E-5;
-2,7609699174403E-5;
-1,71435339654409E-5;
-7,82338512583886E-6;
-3,20473431618385E-6;
-2,25335221407971E-6;
-1,31041599995853E-6;
2,21392881211383E-6;
7,61667548614521E-6;
1,18838788261607E-5;
1,27809166289759E-5;
1,11575696606004E-5;
1,03091946455393E-5;
1,28490897210407E-5;
1,78065958412076E-5;
2,06305855794402E-5;
1,6426867891273E-5;
4,01610140115308E-6;
-1,24488982765975E-5;
-2,57679131741368E-5;
-3,03070614078478E-5;
-2,55325527863423E-5;
-1,58921471288722E-5;
-7,30133179488357E-6;
-3,0442382788739E-6;
-2,1675986450177E-6;
-1,29631432860448E-6;
1,95811595555442E-6;
6,94749362530051E-6;
1,08937103743217E-5;
1,17373008901959E-5;
1,02601147572822E-5;
9,49554494026655E-6;
1,18487143769588E-5;
1,64269852178156E-5;
1,90448443079449E-5;
1,52017378658003E-5;
3,81135821218224E-6;
-1,13141347504276E-5;
-2,35641362557313E-5;
-2,77655839887747E-5;
-2,34246484514238E-5;
-1,46162466582675E-5;
-6,76102162711606E-6;
-2,86858829431928E-6;
-2,06742334104507E-6;
-1,26882706821108E-6;
1,71265575524048E-6;
6,28416077871287E-6;
9,90516538139638E-6;
1,06924968852345E-5;
9,35971574735694E-6;
8,67704074590148E-6;
1,08406478100272E-5;
1,50362229930568E-5;
1,74447783558197E-5;
1,39600880456105E-5;
3,58906294067997E-6;
-1,01966967799972E-5;
-2,13757279960618E-5;
-2,52352113154772E-5;
-2,13214719403075E-5;
-1,33380582078838E-5;
-6,21289519956691E-6;
-2,68238395744438E-6;
-1,95618843593605E-6;
-1,23008734681598E-6;
1,47984081538704E-6;
5,63568723755154E-6;
8,93254715336241E-6;
9,66196705283075E-6;
8,46991878874111E-6;
7,86624275837008E-6;
9,84052998369091E-6;
1,36558873422665E-5;
1,58553310596475E-5;
1,27218874618378E-5;
3,35454821033687E-6;
-9,11059428869546E-6;
-1,92323086973194E-5;
-2,27509388700175E-5;
-1,92526238179954E-5;
-1,20762019883235E-5;
-5,66579941878482E-6;
-2,48962613781681E-6;
-1,83686258099154E-6;
-1,18203566917385E-6;
1,26141317926001E-6;
5,00941507873809E-6;
7,98762591392434E-6;
8,65847977721682E-6;
7,6019517075518E-6;
7,07360645169865E-6;
8,86139743815806E-6;
1,23039692065551E-5;
1,42973263720294E-5;
1,15039088388866E-5;
3,11256332132493E-6;
-8,067001997324E-6;
-1,71579456937411E-5;
-2,03413459483604E-5;
-1,72423599862027E-5;
-1,0846021631623E-5;
-5,1271295251543E-6;
-2,29376791077557E-6;
-1,71206506661011E-6;
-1,12645100032254E-6;
1,05860769672864E-6;
4,41115439854513E-6;
7,07984554704095E-6;
7,69233934449142E-6;
6,76491062497432E-6;
6,3076434857623E-6;
7,91389558361687E-6;
1,09951607747072E-5;
1,27877925491201E-5;
1,0319962379184E-5;
2,86726193294155E-6;
-7,07459763363378E-6;
-1,51717440917046E-5;
-1,80292587048059E-5;
-1,53101478780322E-5;
-9,65992785282602E-6;
-4,60299259087531E-6;
-2,09779019578847E-6;
-1,58410976360073E-6;
-1,06497648731978E-6;
8,72186327340144E-7;
3,8453248993041E-6;
6,2165429786018E-6;
6,77160665369974E-6;
5,96594790823728E-6;
5,57508639362779E-6;
7,00647895249875E-6;
9,74115417159092E-6;
1,13403191909669E-5;
9,1811647618595E-6;
2,62221729360777E-6;
-6,13986506571107E-6;
-1,32883998976662E-5;
-1,58323735963517E-5;
-1,34711764532485E-5;
-8,52771536942359E-6;
-4,09833826878359E-6;
-1,90424220039983E-6;
-1,4550380702514E-6;
-9,99129482192248E-7;
7,02495716717769E-7;
3,31510968937415E-6;
5,40317501912293E-6;
5,90234090211134E-6;
5,21048402508685E-6;
4,88108023372608E-6;
6,14564679943632E-6;
8,55095987599958E-6;
9,9654143813061E-6;
8,09621233801477E-6;
2,38046851909007E-6;
-5,26735013567985E-6;
-1,15186992645776E-5;
-1,37638355982498E-5;
-1,17368258200522E-5;
-7,45682976886086E-6;
-3,61706644716715E-6;
-1,71526502580081E-6;
-1,32661777262278E-6;
-9,30285672171942E-7;
5,49544065494113E-7;
2,8226218699912E-6;
4,64356542261496E-6;
5,08885865820912E-6;
4,50241814984462E-6;
4,22937567591551E-6;
5,33618262812328E-6;
7,4312256731199E-6;
8,6708634068213E-6;
7,07165788926913E-6;
2,14456595948077E-6;
-4,45991158735196E-6;
-9,86998892958203E-6;
-1,18327735649607E-5;
-1,01151163281732E-5;
-6,45264131132545E-6;
-3,16213527595559E-6;
-1,53261784035041E-6;
-1,20035350529643E-6;
-8,5967504307072E-7;
4,13064279646907E-7;
2,36905725798115E-6;
3,94011415202168E-6;
4,33395213712245E-6;
3,84432744613614E-6;
3,62250970630293E-6;
4,5813609937693E-6;
6,3865222122674E-6;
7,46206441946661E-6;
6,11216427438908E-6;
1,91661795514235E-6;
-3,7189476987819E-6;
-8,34663748868318E-6;
-1,00448271858322E-5;
-8,61113380670805E-6;
-5,51869422135865E-6;
-2,73566323993937E-6;
-1,35771257578991E-6;
-1,07750481069327E-6;
-7,88383502006497E-7;
2,92565202960727E-7;
1,95482967445013E-6;
3,29399966168637E-6;
3,63910032433703E-6;
3,23764172245851E-6;
3,06195895024666E-6;
3,8831469531779E-6;
5,41961652657041E-6;
6,34233096681933E-6;
5,22074195260309E-6;
1,69832577259835E-6;
-3,04462409893149E-6;
-6,95045590089837E-6;
-8,40263267570641E-6;
-7,22744042559474E-6;
-4,65696153718953E-6;
-2,33903692970663E-6;
-1,19164640582129E-6;
-9,59108214892934E-7;
-7,17363864294666E-7;
1,8736901024161E-7;
1,57968629452056E-6;
2,70535965486948E-6;
3,00466293324877E-6;
2,68281153787877E-6;
2,54829303422262E-6;
3,24237651788352E-6;
4,53171814892765E-6;
5,31318110321058E-6;
4,39896727368992E-6;
1,49101572569627E-6;
-2,436072981461E-6;
-5,68109044423916E-6;
-6,90628086984607E-6;
-5,96444306991321E-6;
-3,86806257359196E-6;
-1,97301500112684E-6;
-1,03524169834596E-6;
-8,45997504451185E-7;
-6,4744119541672E-7;
9,6662839684139E-8;
1,242828730354E-6;
2,17345624516156E-6;
2,43004974276768E-6;
2,17945531250152E-6;
2,08131058627751E-6;
2,65892610149692E-6;
3,72271601232484E-6;
4,37460064223041E-6;
3,64718597190442E-6;
1,2956847877919E-6;
-1,89158145385462E-6;
-4,53639135856378E-6;
-5,55372505908097E-6;
-4,82074495258059E-6;
-3,15148669909507E-6;
-1,63780854979016E-6;
-8,8907134353952E-7;
-7,38821638884827E-7;
-5,79313208719885E-7;
1,95262358927871E-8;
9,43008273486589E-7;
1,69683593797566E-6;
1,91389248746314E-6;
1,72650663758401E-6;
1,66016986932933E-6;
2,13187285242145E-6;
2,99139247859994E-6;
3,52529890986224E-6;
2,96471729230804E-6;
1,1130291191219E-6;
-1,40875236726717E-6;
-3,51272395895603E-6;
-4,34116519087415E-6;
-3,79345293079857E-6;
-2,50576624756269E-6;
-1,3331699637956E-6;
-7,53488974089558E-7;
-6,38063515948545E-7;
-5,13569426985349E-7;
-4,5027241042685E-8;
6,78625077192979E-7;
1,27346241471838E-6;
1,45418803310024E-6;
1,32233484291331E-6;
1,28350194273855E-6;
1,6596334839023E-6;
2,33561796717898E-6;
2,7629246693418E-6;
2,35001366699764E-6;
9,43482151150013E-7;
-9,8466045214688E-7;
-2,60528005765098E-6;
-3,26338396579302E-6;
-2,87846694298468E-6;
-1,92866428452243E-6;
-1,05846676606133E-6;
-6,28661473150166E-7;
-5,44053726176302E-7;
-4,50685053349458E-7;
-9,80314461382033E-8;
4,4780581078798E-7;
9,00849866903706E-7;
1,04843869968977E-6;
9,64871021604594E-7;
9,49520001377591E-7;
1,24009798917061E-6;
1,75253274665937E-6;
2,08427335464899E-6;
1,80083033544777E-6;
7,87250862635297E-7;
-6,15975150706032E-7;
-1,80832990675547E-6;
-2,31405792320732E-6;
-2,07073099071039E-6;
-1,41732726391613E-6;
-8,12754451958672E-7;
-5,14584985441835E-7;
-4,56991260694342E-7;
-3,91040902633061E-7;
-1,40536471684708E-7;
2,48483393594044E-7;
5,76169582901879E-7;
6,93757289268614E-7;
6,51698977956598E-7;
6,5611235199275E-7;
8,70742052896773E-7;
1,23870251950972E-6;
1,48547320087314E-6;
1,31436511970205E-6;
6,44342786645398E-7;
-2,99082818730498E-7;
-1,1154627032353E-6;
-1,48602404999567E-6;
-1,36446165051123E-6;
-9,68421420560085E-7;
-5,94833746008276E-7;
-4,11122332851052E-7;
-3,76962032998081E-7;
-3,34922594247466E-7;
-1,7358629838256E-7;
7,8453958215787E-8;
2,9634770591289E-7;
3,8698766511147E-7;
3,80152131726294E-7;
4,00922255528645E-7;
5,48732341272636E-7;
7,9025889960643E-7;
9,62142912856424E-7;
8,87386646832192E-7;
5,14593739415091E-7;
-3,01861106385383E-8;
-5,19790469446301E-7;
-7,71532125222321E-7;
-7,53357094338324E-7;
-5,78263417823834E-7;
-4,03313513934063E-7;
-3,18017578038949E-7;
-3,03948469131683E-7;
-2,82538661297996E-7;
-1,98212011105356E-7;
-6,45599689454029E-8;
5,81513692750458E-8;
1,24782614422882E-7;
1,4739638671976E-7;
1,81425524328283E-7;
2,71017102248952E-7;
4,03031917774272E-7;
5,09537543152409E-7;
5,1635051215789E-7;
3,97700211491617E-7;
1,9460227389583E-7;
-1,41287259862059E-8;
-1,62438054281935E-7;
-2,30761932829814E-7;
-2,42926518290253E-7;
-2,36655529099365E-7;
-2,34918650118233E-7;
-2,37848384288612E-7;
-2,34015862708742E-7;
-2,15407454262021E-7;
-1,82873323403218E-7;
-1,41735321258085E-7;
-9,63071499774316E-8;
-4,95098483842424E-8;
-5,00807424707042E-9;
3,44013730482511E-8;
7,26462237154782E-8;
1,22674204854356E-7;
1,97494027840075E-7;
2,93237160705007E-7;
3,79196885573261E-7;
4,08851306582396E-7;
3,49599038478443E-7;
2,10174391562296E-7;
4,1664669594809E-8;
-9,32220653578408E-8;
-1,6139401082501E-7;
-1,7848756165634E-7;
-1,89423378773215E-7;
-2,26129142201256E-7;
-2,78787297603526E-7;
-3,06649809068328E-7;
-2,7977265522202E-7;
-2,13546346595009E-7;
-1,61056779717864E-7;
-1,6437843775636E-7;
-2,05370855821564E-7;
-2,03558157473007E-7;
-7,30715202752059E-8;
2,00687538595404E-7;
5,27467301927109E-7;
7,56493300201907E-7;
7,72977473540733E-7;
5,76363362911302E-7;
2,79648933174821E-7;
2,86875588610939E-8;
-9,69554258718468E-8;
-1,25629665037807E-7;
-1,48766402794525E-7;
-2,31272569363733E-7;
-3,54560446931952E-7;
-4,39901139950679E-7;
-4,29079347592353E-7;
-3,47687561073936E-7;
-2,89406762314807E-7;
-3,28601333553403E-7;
-4,35519972885493E-7;
-4,74306100097449E-7;
-2,99287669221907E-7;
1,19456840714467E-7;
6,43191018837157E-7;
1,03603934334268E-6;
1,11600529643652E-6;
8,74673489097566E-7;
4,7516213322652E-7;
1,30800566514412E-7;
-4,10691380401044E-8;
-7,89957263794178E-8;
-1,12003983770878E-7;
-2,31682874665262E-7;
-4,12383129456221E-7;
-5,44718728163522E-7;
-5,47632546040815E-7;
-4,54857091085148E-7;
-3,92703460027663E-7;
-4,61512283210724E-7;
-6,222557164739E-7;
-6,94675234889087E-7;
-4,85089032769866E-7;
4,88967314860476E-8;
7,30011016533502E-7;
1,25454524053072E-6;
1,38680917560332E-6;
1,11183746901018E-6;
6,32279635141242E-7;
2,14844860143867E-7;
6,82892286048359E-9;
-3,82632958509455E-8;
-7,90504577795862E-8;
-2,28138916286337E-7;
-4,54354847292272E-7;
-6,24227860137886E-7;
-6,38728456678107E-7;
-5,3789684352755E-7;
-4,73528239494887E-7;
-5,66273815190379E-7;
-7,69928169880019E-7;
-8,69658944365575E-7;
-6,34339749302205E-7;
-1,16812744964215E-8;
7,91403295211205E-7;
1,41880842328752E-6;
1,59323765458073E-6;
1,2943751203359E-6;
7,54963640345734E-7;
2,82524867444691E-7;
4,73239090119073E-8;
-3,08553330803111E-9;
-4,97849164280429E-8;
-2,21356139658877E-7;
-4,82466793816425E-7;
-6,81410609830415E-7;
-7,05525669716496E-7;
-5,99532466924783E-7;
-5,3436168784148E-7;
-6,45943949831852E-7;
-8,82747723370421E-7;
-1,0040928279775E-6;
-7,50805558559707E-7;
-6,29939824029521E-8;
8,30653166337799E-7;
1,53530674177434E-6;
1,74279594999493E-6;
1,42853270500243E-6;
8,47026662285911E-7;
3,35504104560589E-7;
8,10097718611463E-8;
2,69081325016366E-8;
-2,40549018810626E-8;
-2,11986342507779E-7;
-4,98590300542595E-7;
-7,19089871294282E-7;
-7,51023128810856E-7;
-6,42360463207819E-7;
-5,77577087315934E-7;
-7,03442799613375E-7;
-9,64736222489589E-7;
-1,10260750736082E-6;
-8,38099296008711E-7;
-1,05765421862216E-7;
8,5083347965223E-7;
1,61015856289503E-6;
1,84258798184095E-6;
1,52024084079449E-6;
9,12106719624257E-7;
3,75381873556685E-7;
1,08477422552685E-7;
5,20973140279869E-8;
-1,68758553725509E-9;
-2,00612191534525E-7;
-5,044667128458E-7;
-7,39913616576511E-7;
-7,78040225045401E-7;
-6,68824559753116E-7;
-6,05411528429778E-7;
-7,41539344197399E-7;
-1,01970709860127E-6;
-1,16959344182735E-6;
-8,99672019287942E-7;
-1,40724838949289E-7;
8,5479757414879E-7;
1,64908873083959E-6;
1,89928647141615E-6;
1,57507844436499E-6;
9,53633925334258E-7;
4,03686900933104E-7;
1,3031072143469E-7;
7,28663471322309E-8;
1,75078753397839E-8;
-1,87754921461456E-7;
-5,01706571072367E-7;
-7,46345749678945E-7;
-7,89206307412809E-7;
-6,81210773783957E-7;
-6,19963187364673E-7;
-7,62827986551439E-7;
-1,0512442637393E-6;
-1,2091845994267E-6;
-9,38776849868913E-7;
-1,68591267803924E-7;
8,45172536722074E-7;
1,6574154066029E-6;
1,91909941727331E-6;
1,59825120195817E-6;
9,7482381437184E-7;
4,2186444463257E-7;
1,47080275802362E-7;
8,96045196303907E-8;
3,37396180717096E-8;
-1,7387342019465E-7;
-4,91781328695814E-7;
-7,40655449008613E-7;
-7,86955051404545E-7;
-6,81636126425032E-7;
-6,23180685974968E-7;
-7,69726274915186E-7;
-1,06268449559551E-6;
-1,22523498986246E-6;
-9,58462317748117E-7;
-1,90069010846396E-7;
8,24350674247299E-7;
1,6400287388952E-6;
1,90775695419546E-6;
1,5945698563351E-6;
9,78660175483559E-7;
4,31274608578075E-7;
1,59333768120923E-7;
1,02688970348056E-7;
4,72211239386475E-8;
-1,59366244528858E-7;
-4,76029872145781E-7;
-7,24919891204652E-7;
-7,73514459175442E-7;
-6,7204627679253E-7;
-6,16859779365426E-7;
-7,64465810962297E-7;
-1,05711139862551E-6;
-1,22131116546147E-6;
-9,61563311371003E-7;
-2,05837995101983E-7;
7,9450581636405E-7;
1,60140153649908E-6;
1,87051037622134E-6;
1,56845848045265E-6;
9,67893488873858E-7;
4,3317886790152E-7;
1,6759942428975E-7;
1,12493534654741E-7;
5,81706840441501E-8;
-1,44578093571797E-7;
-4,55656573576518E-7;
-7,01023506450192E-7;
-7,50913828210691E-7;
-6,54216777521632E-7;
-6,02642303832584E-7;
-7,49090096374206E-7;
-1,03735498749111E-6;
-1,20068906247487E-6;
-9,50690852782871E-7;
-2,16551162682041E-7;
7,57579806208241E-7;
1,54558010467878E-6;
1,81212926939259E-6;
1,52393950829059E-6;
9,4503817693284E-7;
4,28744980254043E-7;
1,72374058403287E-7;
1,19377698046206E-7;
6,68106291637388E-8;
-1,29799951984247E-7;
-4,31736653650338E-7;
-6,70664065557234E-7;
-7,20986148354625E-7;
-6,29749996522874E-7;
-5,82017778856291E-7;
-7,25458300118854E-7;
-1,00598840748079E-6;
-1,16635320181475E-6;
-9,2823312761077E-7;
-2,22828925630256E-7;
7,15303820920195E-7;
1,47620277683995E-6;
1,73691170002822E-6;
1,46464917969825E-6;
9,12373854236101E-7;
4,19042314815389E-7;
1,74127530085994E-7;
1,23685172071287E-7;
7,33592062205743E-8;
-1,15274860430698E-7;
-4,05220739563466E-7;
-6,35350745254525E-7;
-6,85370508209854E-7;
-6,00089789220606E-7;
-5,56324362701081E-7;
-6,95246355105562E-7;
-9,65336402204765E-7;
-1,12099959437054E-6;
-8,96359675123189E-7;
-2,25256944024085E-7;
6,69203211721645E-7;
1,3965107072343E-6;
1,64869917756874E-6;
1,39384618563388E-6;
8,71954468043602E-7;
4,05043612930191E-7;
1,73296171797701E-7;
1,25742785537106E-7;
7,80300942058034E-8;
-1,01202525136343E-7;
-3,76941277007803E-7;
-5,9642337331405E-7;
-6,45519139104617E-7;
-5,6651228226461E-7;
-5,26758586330683E-7;
-6,59954209325901E-7;
-9,17479546476151E-7;
-1,06704887604078E-6;
-8,57025129515969E-7;
-2,24382307289747E-7;
6,20608194217854E-7;
1,30936434524069E-6;
1,5508952952197E-6;
1,31442374014216E-6;
8,25608366977978E-7;
3,87628471437957E-7;
1,70288854416897E-7;
1,25856785738879E-7;
8,10320831336539E-8;
-8,77385576674024E-8;
-3,47618205703211E-7;
-5,55051496758108E-7;
-6,02712321056106E-7;
-5,30149700936336E-7;
-4,94377269526766E-7;
-6,20909046350471E-7;
-8,64264318416304E-7;
-1,00665290420856E-6;
-8,11975182846226E-7;
-2,20711748999364E-7;
5,70666051912997E-7;
1,21726455129831E-6;
1,4464905614981E-6;
1,22893286250465E-6;
7,74957422128149E-7;
3,67581124311708E-7;
1,65473022622684E-7;
1,24315705045286E-7;
8,25668769632228E-8;
-7,50102447800328E-8;
-3,1787202209642E-7;
-5,12250452242216E-7;
-5,58064075451659E-7;
-4,91986669740891E-7;
-4,60105789143238E-7;
-5,79278545057753E-7;
-8,07315239888271E-7;
-9,41706506809236E-7;
-7,6275484263885E-7;
-2,14714585942564E-7;
5,203562383114E-7;
1,12237735408195E-6;
1,33807786803062E-6;
1,13959349018906E-6;
7,21421251308213E-7;
3,45599618379466E-7;
1,59191242017897E-7;
1,21385180976705E-7;
8,28224431105082E-8;
-6,31037694959425E-8;
-2,88221879609964E-7;
-4,68890458173336E-7;
-5,12527748110291E-7;
-4,52871336247917E-7;
-4,24748300714971E-7;
-5,36080066718647E-7;
-7,48050439570533E-7;
-8,73865958092712E-7;
-7,10722125222965E-7;
-2,06819477982396E-7;
4,70498913523026E-7;
1,02655229668739E-6;
1,22788970985497E-6;
1,04832163106674E-6;
6,66229705741636E-7;
3,22297804471859E-7;
1,5175046021724E-7;
1,17309884445566E-7;
8,19813287083832E-8;
-5,20818168392446E-8;
-2,59102927046775E-7;
-4,25704467285997E-7;
-4,66920510471495E-7;
-4,13532236274461E-7;
-3,88990677853418E-7;
-4,92186667594214E-7;
-6,87688803190422E-7;
-8,04559220237854E-7;
-6,57057266196049E-7;
-1,97414306944107E-7;
4,21773487705512E-7;
9,31349956248367E-7;
1,1178199523403E-6;
9,56750016376334E-7;
6,10439018255106E-7;
2,98210117969291E-7;
1,43425648778291E-7;
1,12313477088968E-7;
8,0211188449863E-8;
-4,1981938695355E-8;
-2,30869424323366E-7;
-3,83304820313321E-7;
-4,21920518120698E-7;
-3,74577552273013E-7;
-3,53417121570333E-7;
-4,4833984269264E-7;
-6,27267993513351E-7;
-7,350062091459E-7;
-6,02772194391589E-7;
-1,86849061363762E-7;
3,74729609223332E-7;
8,38067709094546E-7;
1,00945036995415E-6;
8,66249427814305E-7;
5,54944000498961E-7;
2,73798656024243E-7;
1,3446391525421E-7;
1,06599106366197E-7;
7,76679260651826E-8;
-3,28218449901282E-8;
-2,03803689786289E-7;
-3,42190186234488E-7;
-3,78092334311409E-7;
-3,36515662466543E-7;
-3,18511964235724E-7;
-4,05161788766579E-7;
-5,67660773228192E-7;
-6,66234194617109E-7;
-5,48727372679484E-7;
-1,75437310080233E-7;
3,2980043081049E-7;
7,47761774743518E-7;
9,04078609065542E-7;
7,77953422728033E-7;
5,00489668478143E-7;
2,49453012775411E-7;
1,25082825631408E-7;
1,00347531597131E-7;
7,44955942472554E-8;
-2,45954827396176E-8;
-1,7812280240131E-7;
-3,02760313369795E-7;
-3,3588634686736E-7;
-2,99753850534204E-7;
-2,84671577448547E-7;
-3,63164188892281E-7;
-5,09584479355667E-7;
-5,99092518765115E-7;
-4,95643701420138E-7;
-1,63456331872321E-7;
2,87314856197846E-7;
6,61269342966108E-7;
8,02748471352235E-7;
6,92776950298391E-7;
4,47684813662349E-7;
2,25503170729356E-7;
1,15469294144234E-7;
9,37200791133772E-8;
7,08251687238648E-8;
-1,72894402929634E-8;
-1,53987007085291E-7;
-2,65321424462488E-7;
-2,95656618166759E-7;
-2,646174759406E-7;
-2,52210493928657E-7;
-3,22755109229191E-7;
-4,53622461950021E-7;
-5,34270578116811E-7;
-4,44107967341072E-7;
-1,51146492491503E-7;
2,4751260117533E-7;
5,7923621962904E-7;
7,06276387778681E-7;
6,11446528541003E-7;
3,97018537726415E-7;
2,02219349967154E-7;
1,05787980275092E-7;
8,68598075363102E-8;
6,67767843418174E-8;
-1,08725660987667E-8;
-1,3150680451428E-7;
-2,30100688774004E-7;
-2,57669738593956E-7;
-2,3135294223267E-7;
-2,21376919270958E-7;
-2,84261002329008E-7;
-4,00231135822785E-7;
-4,72316098823018E-7;
-3,94597983946797E-7;
-1,38720302958226E-7;
2,10550246447534E-7;
5,02136577069927E-7;
6,15271136888513E-7;
5,34508613979223E-7;
3,4886878408684E-7;
1,79820692319586E-7;
9,61786983824899E-8;
7,98913158569958E-8;
6,24569087162911E-8;
-5,30621555528703E-9;
-1,10750819656215E-7;
-1,97257698770139E-7;
-2,22117895545016E-7;
-2,00141629664361E-7;
-1,92350544936553E-7;
-2,4792038911296E-7;
-3,49755969357251E-7;
-4,13644596226611E-7;
-3,47481454605679E-7;
-1,26357241159401E-7;
1,76518087044004E-7;
4,30296547111533E-7;
5,30167461541636E-7;
4,62361043872717E-7;
3,03515804310145E-7;
1,58478413650506E-7;
8,67572842869944E-8;
7,29214266839346E-8;
5,79607829326792E-8;
-5,44398584162515E-10;
-9,17473290384543E-8;
-1,66887275016993E-7;
-1,89123520922119E-7;
-1,71102295430307E-7;
-1,65259789355573E-7;
-2,13909381077937E-7;
-3,02446746501691E-7;
-3,58561093342907E-7;
-3,03037114596177E-7;
-1,14209585655151E-7;
1,45444356280472E-7;
3,63906231738096E-7;
4,51236795630174E-7;
3,95266787850501E-7;
2,61157166211425E-7;
1,38322264298988E-7;
7,76234932239476E-8;
6,60433510774141E-8;
5,33720072011561E-8;
3,46439935952962E-9;
-7,44966606495704E-8;
-1,39032709982336E-7;
-1,58752989203568E-7;
-1,44305477471473E-7;
-1,40179132001739E-7;
-1,82337391804532E-7;
-2,58467601833132E-7;
-3,07266377567846E-7;
-2,61458951820098E-7;
-1,02403645872916E-7;
1,17312047824269E-7;
3,03050144945831E-7;
3,7862225719545E-7;
3,3337299501287E-7;
2,21913670841864E-7;
1,19444765946789E-7;
6,88519365845222E-8;
5,93301989116827E-8;
4,87633918947521E-8;
6,77966212241088E-9;
-5,89678962119029E-8;
-1,13695673991685E-7;
-1,31023470154537E-7;
-1,19775101578532E-7;
-1,17146045382046E-7;
-1,5326078008898E-7;
-2,17906214622673E-7;
-2,59881154537043E-7;
-2,22873575415183E-7;
-9,10429799873213E-8;
9,20594285120531E-8;
2,47714562795913E-7;
3,12349715330649E-7;
2,76729565883781E-7;
1,85842108179439E-7;
1,01904712317151E-7;
6,05071357358193E-8;
5,28499570362588E-8;
4,41984686552024E-8;
9,45526791417885E-9;
-4,51142803347003E-8;
-9,08361238069906E-8;
-1,05908426260717E-7;
-9,75008880115296E-8;
-9,61629351702476E-8;
-1,26695106319915E-7;
-1,8079095102858E-7;
-2,16444655464183E-7;
-1,87338949073675E-7;
-8,02100007855565E-8;
6,95899765261832E-8;
1,97808316903831E-7;
2,52348633686976E-7;
2,25298338898742E-7;
1,52944522319099E-7;
8,57351364665557E-8;
5,26337936945704E-8;
4,66497067631719E-8;
3,97292282555141E-8;
1,15518589423141E-8;
-3,28676973219524E-8;
-7,0386572439989E-8;
-8,33496255971864E-8;
-7,74381219059893E-8;
-7,71985958735706E-8;
-1,02613167784621E-7;
-1,47093623197393E-7;
-1,76939566688407E-7;
-1,54867377763159E-7;
-6,99663848257011E-8;
4,97855508643092E-8;
1,53174697425489E-7;
1,98466547105409E-7;
1,78977492843201E-7;
1,23181077675504E-7;
7,09429535956984E-8;
4,52663123261337E-8;
4,07684519309357E-8;
3,53982971293287E-8;
1,31292402579183E-8;
-2,21492278802092E-8;
-5,22535361826834E-8;
-6,32598598778642E-8;
-5,95201076229403E-8;
-6,01973957016212E-8;
-8,09590942576951E-8;
-1,16743670942749E-7;
-1,41290516275287E-7;
-1,25424434542228E-7;
-6,03583813314134E-8;
3,25054876032166E-8;
1,13606354236729E-7;
1,50490530436999E-7;
1,37603016759192E-7;
9,64684117768697E-8;
5,75158675568092E-8;
3,84244609696055E-8;
3,52384445261444E-8;
3,12446915610238E-8;
1,42437892345272E-8;
-1,28671780103372E-8;
-3,63260376041484E-8;
-4,55299480496513E-8;
-4,36568777824231E-8;
-4,5090485798174E-8;
-6,16509901549454E-8;
-8,96325769438706E-8;
-1,09383594673708E-7;
-9,89368187236154E-8;
-5,14149174079984E-8;
1,75919731307454E-8;
7,8851721243608E-8;
1,08154992971893E-7;
1,00969746993758E-7;
7,26946792756774E-8;
4,54238969228748E-8;
3,21188028020649E-8;
3,00763887254134E-8;
2,72952332527558E-8;
1,49523482084783E-8;
-4,92722367240611E-9;
-2,24778515065845E-8;
-3,00349720094419E-8;
-2,97464973251785E-8;
-3,17845091809147E-8;
-4,45846829019238E-8;
-6,56238555540731E-8;
-8,10666962511325E-8;
-7,53032139107607E-8;
-4,31540641059048E-8;
4,87955516214831E-9;
4,86359934749189E-8;
7,11561468616592E-8;
6,88352064592782E-8;
5,17256767163785E-8;
3,4623455519205E-8;
2,63544826824133E-8;
2,52975629227327E-8;
2,35708301952458E-8;
1,53092138446756E-8;
1,77397217460558E-9;
-1,05728420360791E-8;
-1,66340151502299E-8;
-1,76704119196919E-8;
-2,01830729453217E-8;
-2,96431756548113E-8;
-4,4558209798245E-8;
-5,6164605581624E-8;
-5,43984589730047E-8;
-3,55813032555749E-8;
-5,80358935121904E-9;
2,26562739888537E-8;
3,91595603567971E-8;
4,09322406681092E-8;
3,34073596153969E-8;
2,50600356333942E-8;
2,1123024995617E-8;
2,09073819687038E-8;
2,00893257691869E-8;
1,53625473578372E-8;
7,33819081879547E-9;
-4,67874031773974E-10;
-5,18456980446257E-9;
-7,30853578053441E-9;
-1,01744836052994E-8;
-1,66964431225021E-8;
-2,62624600213896E-8;
-3,44805721094145E-8;
-3,60783590421512E-8;
-2,86908779757337E-8;
-1,46311144933783E-8;
6,02835587950297E-10;
1,1815438743579E-8;
1,6974623232399E-8;
1,75725684949898E-8;
1,66682651602185E-8;
1,6413430913744E-8;
1,690252345778E-8;
1,68566542613048E-8;
1,51623698219811E-8;
1,1870295916006E-8;
7,98352747149875E-9;
4,4664616597952E-9;
1,46770467246526E-9;
-1,64558634753113E-9;
-5,60665790035538E-9;
-1,05490723761503E-8;
-1,58027673144669E-8;
-2,01856748409733E-8;
-2,24705272441842E-8;
-2,17759810794964E-8;
-1,78452394571203E-8;
-1,12376615378561E-8;
-3,33095820825213E-9;
4,04808797778303E-9;
9,38117975684343E-9;
1,22085287324923E-8;
1,32814140177481E-8;
1,38833605109576E-8;
1,47512739036848E-8;
1,54718081248782E-8;
1,49269130154647E-8;
1,24720716164269E-8;
8,79144754514214E-9;
5,5199610859028E-9;
3,76717850271013E-9;
2,7752262540819E-9;
8,6398307443108E-11;
-6,55641180737545E-9;
-1,68997868427347E-8;
-2,74073558387179E-8;
-3,30076338512152E-8;
-3,03647842221422E-8;
-2,02862136747623E-8;
-7,34734454348463E-9;
3,12442369771208E-9;
8,48777935013122E-9;
1,00320389875065E-8;
1,11667792623586E-8;
1,41689443575518E-8;
1,8241775806762E-8;
2,05071545012403E-8;
1,8982781587151E-8;
1,47906534360464E-8;
1,14406680013994E-8;
1,15677341361183E-8;
1,39059218817224E-8;
1,34140530760648E-8;
4,98200501709331E-9;
-1,19564337762268E-8;
-3,16927192128004E-8;
-4,51997958142929E-8;
-4,59274232706161E-8;
-3,41898326670446E-8;
-1,67956149149743E-8;
-2,17946084468627E-9;
5,22799905215187E-9;
7,14178921005157E-9;
8,7051194943808E-9;
1,34520077025997E-8;
2,02745850924163E-8;
2,48657120045579E-8;
2,4148734772223E-8;
1,95934827646906E-8;
1,62323091736162E-8;
1,79387069969795E-8;
2,30384417050281E-8;
2,44022709324457E-8;
1,46033317925865E-8;
-7,60829848453628E-9;
-3,47887782124404E-8;
-5,47281374329094E-8;
-5,82804657403339E-8;
-4,5338661306239E-8;
-2,4475110259314E-8;
-6,60692562765983E-9;
2,3991742136604E-9;
4,59482297779293E-9;
6,49479686619052E-9;
1,26332793028648E-8;
2,16636954142363E-8;
2,81394341143839E-8;
2,81131312750522E-8;
2,33276189289015E-8;
2,00114245483139E-8;
2,30203492227887E-8;
3,03661080081507E-8;
3,32719739353554E-8;
2,24769504278034E-8;
-3,82274396466837E-9;
-3,68440737167161E-8;
-6,1891527347253E-8;
-6,77699449487192E-8;
-5,40183384390505E-8;
-3,05635640023294E-8;
-1,02383779112044E-8;
-2,49668310597829E-11;
2,37358644162217E-9;
4,52792467715201E-9;
1,17436611997536E-8;
2,24905295869842E-8;
3,04558934510877E-8;
3,10156278668945E-8;
2,61104677509582E-8;
2,28850672542141E-8;
2,69464240763606E-8;
3,6074336171503E-8;
4,0238879430515E-8;
2,87745134756274E-8;
-5,64066728383741E-10;
-3,80006269449726E-8;
-6,69693526855336E-8;
-7,4724006925034E-8;
-6,05072658044702E-8;
-3,52300246621518E-8;
-1,31462939225787E-8;
-2,07328685789372E-9;
4,58216645254908E-10;
2,79269627517146E-9;
1,08061572426871E-8;
2,28392214691325E-8;
3,1940695916904E-8;
3,29864561838182E-8;
2,80576850012093E-8;
2,49614394757043E-8;
2,98518503111993E-8;
4,03453174489623E-8;
4,55110905324042E-8;
3,36593919059904E-8;
2,20299280229487E-9;
-3,83907204882571E-8;
-7,0230749896236E-8;
-7,94545923001478E-8;
-6,50656465243925E-8;
-3,8637694852821E-8;
-1,54071940765456E-8;
-3,7780962829326E-9;
-1,17227422856712E-9;
1,27716759114557E-9;
9,84369329948697E-9;
2,27846401278282E-8;
3,27068850326016E-8;
3,41488414116801E-8;
2,9277692473489E-8;
2,63365814014924E-8;
3,18565752690515E-8;
4,33499536867991E-8;
4,92852239737059E-8;
3,72881567403166E-8;
4,51912462251268E-9;
-3,81337316033617E-8;
-7,19264285883136E-8;
-8,22571130481569E-8;
-6,7941204040264E-8;
-4,09413768952744E-8;
-1,70920595503184E-8;
-5,16789476884861E-9;
-2,5416945012851E-9;
-2,94719743764375E-11;
8,87781852320523E-9;
2,23887276086866E-8;
3,28603396155598E-8;
3,46190464868802E-8;
2,9868899070477E-8;
2,71067913451471E-8;
3,30791645206804E-8;
4,52487562649204E-8;
5,17513342975922E-8;
3,98127952738566E-8;
6,42142634597711E-9;
-3,73396359018901E-8;
-7,22854776312703E-8;
-8,34041994751015E-8;
-6,93676453821417E-8;
-4,22863220575695E-8;
-1,82677834989722E-8;
-6,27398081248952E-9;
-3,66807231490815E-9;
-1,14032015819791E-9;
7,92168331347638E-9;
2,17190480774245E-8;
3,25013169514074E-8;
3,45036417392319E-8;
2,99293105662649E-8;
2,73589745240225E-8;
3,36277317674421E-8;
4,61948348460291E-8;
5,30859431935536E-8;
4,13745004021436E-8;
7,94731481671283E-9;
-3,61109477348992E-8;
-7,15229415214452E-8;
-8,31499545460706E-8;
-6,95584773124207E-8;
-4,2808010416945E-8;
-1,9001706822352E-8;
-7,12269366633847E-9;
-4,57373953399902E-9;
-2,0720313036647E-9;
6,99040257016453E-9;
2,08292892435211E-8;
3,17190911167445E-8;
3,38987069937129E-8;
2,95410379832918E-8;
2,71743522268682E-8;
3,36047794998179E-8;
4,63272104008975E-8;
5,34503390484772E-8;
4,21045063646959E-8;
9,13332873602068E-9;
-3,45376793858305E-8;
-6,98335138148805E-8;
-8,17258275759054E-8;
-6,87136133513453E-8;
-4,26348408094552E-8;
-1,93522167041303E-8;
-7,74430377005995E-9;
-5,28077604784756E-9;
-2,83626801661819E-9;
6,09357919433264E-9;
1,97679944950854E-8;
3,05936415995648E-8;
3,28942563585765E-8;
2,87848318066437E-8;
2,662588717412E-8;
3,31024129947589E-8;
4,57764245889589E-8;
5,29960116598388E-8;
4,21247506667169E-8;
1,00160582759584E-8;
-3,26998769603842E-8;
-6,73937765021768E-8;
-7,93447439799008E-8;
-6,70126005109505E-8;
-4,18782075392519E-8;
-1,93758771549469E-8;
-8,16436343301914E-9;
-5,80935141860045E-9;
-3,4498609867386E-9;
5,24103004522557E-9;
1,85804225752288E-8;
2,91987467402429E-8;
3,15720719970917E-8;
2,7731496995665E-8;
2,57794383372127E-8;
3,22056128425254E-8;
4,46610304857785E-8;
5,1861609632136E-8;
4,15507356601271E-8;
1,0630166733809E-8;
-3,06711102894771E-8;
-6,43631192597925E-8;
-7,61969729636122E-8;
-6,46189316376035E-8;
-4,0644264935539E-8;
-1,91250839636611E-8;
-8,40891050171221E-9;
-6,17900365116831E-9;
-3,92621447487839E-9;
4,43883682223365E-9;
1,73084376227164E-8;
2,76003068796149E-8;
2,99997696670234E-8;
2,64444696031899E-8;
2,46984192659705E-8;
3,09924550932656E-8;
4,30884625413781E-8;
5,01738044430421E-8;
4,04859373925386E-8;
1,10099845576185E-8;
-2,85115292863923E-8;
-6,08830570758911E-8;
-7,24539029008147E-8;
-6,16820638937438E-8;
-3,90284757553854E-8;
-1,86442269061403E-8;
-8,50230413027078E-9;
-6,41107859788844E-9;
-4,27823352680322E-9;
3,69202650838313E-9;
1,59813830757375E-8;
2,58542982929459E-8;
2,82445981483105E-8;
2,49806595084053E-8;
2,34343132102067E-8;
2,95297732025448E-8;
4,11533185233572E-8;
4,80444063276178E-8;
3,90214806956766E-8;
1,11830860779413E-8;
-2,62766379925899E-8;
-5,70773563642461E-8;
-6,8266111019701E-8;
-5,83303264995513E-8;
-3,71153551648973E-8;
-1,79804230772926E-8;
-8,46539988674695E-9;
-6,52151474176521E-9;
-4,5220854286084E-9;
3,00457273202676E-9;
1,4630482024593E-8;
2,4010100243891E-8;
2,63611851862845E-8;
2,33908902622738E-8;
2,20359321502389E-8;
2,78788707548963E-8;
3,89434404409809E-8;
4,55782729823129E-8;
3,72449897418216E-8;
1,11801843166024E-8;
-2,40121810549587E-8;
-5,3056397413663E-8;
-6,37675804360048E-8;
-5,4679465996996E-8;
-3,49806219422426E-8;
-1,71695039866113E-8;
-8,318605036298E-9;
-6,52761508100299E-9;
-4,66971270621483E-9;
2,37541752102536E-9;
1,3280089575068E-8;
2,21126699155078E-8;
2,4398171930181E-8;
2,1718330716213E-8;
2,05448990135806E-8;
2,60959955816251E-8;
3,65340292417983E-8;
4,28590355923636E-8;
3,52285837939531E-8;
1,10284250065843E-8;
-2,17579496456311E-8;
-4,89138891271612E-8;
-5,90755638405679E-8;
-5,08325567874547E-8;
-3,26900033492851E-8;
-1,62477745343929E-8;
-8,08187472392365E-9;
-6,4450119849621E-9;
-4,73293315769986E-9;
1,80660837256741E-9;
1,19502966331977E-8;
2,01989635844546E-8;
2,23972192901141E-8;
2,00019254843069E-8;
1,89997202185507E-8;
2,42252544109102E-8;
3,39914174873585E-8;
3,99706919007486E-8;
3,30399971723206E-8;
1,07535081176555E-8;
-1,95452139674967E-8;
-4,47318688605962E-8;
-5,42884929887716E-8;
-4,68767434727153E-8;
-3,03027329231423E-8;
-1,52444158795479E-8;
-7,77160344870684E-9;
-6,28932595412188E-9;
-4,72376030063845E-9;
1,29914270136682E-9;
1,06573763403676E-8;
1,8298811532119E-8;
2,03948492998757E-8;
1,82720603838637E-8;
1,74293994334336E-8;
2,23107110013851E-8;
3,13754780359316E-8;
3,69803129834913E-8;
3,07381528163907E-8;
1,03764424006503E-8;
-1,7401943638495E-8;
-4,05764697948483E-8;
-4,94925213408639E-8;
-4,28861832631673E-8;
-2,78665150466267E-8;
-1,41880814600677E-8;
-7,40390408992266E-9;
-6,0714884189725E-9;
-4,65461185885793E-9;
8,47825111821419E-10;
9,41781054304112E-9;
1,64401126950099E-8;
1,84201072591947E-8;
1,65585923941848E-8;
1,58611115799004E-8;
2,03858862346001E-8;
2,87344000772341E-8;
3,39462314764467E-8;
2,83733868952403E-8;
9,91700430503163E-9;
-1,53492674527669E-8;
-3,65051180606369E-8;
-4,4758943410401E-8;
-3,89242761135565E-8;
-2,54251846685946E-8;
-1,31004565768217E-8;
-6,99338927912665E-9;
-5,80722593663631E-9;
-4,53195876354306E-9;
4,54389470131143E-10;
8,23777560831648E-9;
1,46421289184066E-8;
1,64965844779272E-8;
1,48816274176547E-8;
1,43190079350022E-8;
1,8478782904157E-8;
2,61079334908992E-8;
3,09188591956849E-8;
2,59886971408773E-8;
9,39671974764945E-9;
-1,34019679087948E-8;
-3,25643235670401E-8;
-4,01461138238993E-8;
-3,50438546565045E-8;
-2,30150700526215E-8;
-1,20036069915444E-8;
-6,55049616651423E-9;
-5,50465560202981E-9;
-4,36811871631847E-9;
1,15381785596983E-10;
7,12688828848643E-9;
1,29208118568898E-8;
1,46468322649023E-8;
1,32622236163584E-8;
1,28192163634339E-8;
1,66159742399368E-8;
2,35339022916888E-8;
2,79393077144211E-8;
2,36203155771741E-8;
8,8294786788536E-9;
-1,15740534732126E-8;
-2,87898977626216E-8;
-3,57003847585185E-8;
-3,12881146097631E-8;
-2,06655400237357E-8;
-1,09115901164702E-8;
-6,08578774620962E-9;
-5,17393478907922E-9;
-4,17079817179511E-9;
-1,74827604597405E-10;
6,0912349811629E-9;
1,12935436205557E-8;
1,28843047256271E-8;
1,17114058909612E-8;
1,13778179935774E-8;
1,48150707394057E-8;
2,10388906556381E-8;
2,50445198579389E-8;
2,12994629656723E-8;
8,231868385061E-9;
-9,87122585132101E-9;
-2,52115340788677E-8;
-3,14612418605547E-8;
-2,76908239286285E-8;
-1,8399540081295E-8;
-9,84123843813342E-9;
-5,61185219774669E-9;
-4,82445910631115E-9;
-3,94709338319339E-9;
-4,1670756360927E-10;
5,13356073485459E-9;
9,76291388838328E-9;
1,12196345408957E-8;
1,02436699726744E-8;
1,00057606084989E-8;
1,30939747411794E-8;
1,86469628844681E-8;
2,22596358129818E-8;
1,90513682463795E-8;
7,6147170843492E-9;
-8,30006507261612E-9;
-2,1847897084115E-8;
-2,74557513192873E-8;
-2,42771717940189E-8;
-1,6236321310904E-8;
-8,80492856521783E-9;
-5,13587982226731E-9;
-4,46360874166704E-9;
-3,70522361201663E-9;
-6,15118634289201E-10;
4,25669105528552E-9;
8,33912660597059E-9;
9,66257967790848E-9;
8,86481886436428E-9;
8,71046183644946E-9;
1,14618854654849E-8;
1,63744829338242E-8;
1,96077070824425E-8;
1,68954711341852E-8;
6,99101114467987E-9;
-6,86270622586009E-9;
-1,87142121755104E-8;
-2,37040787376994E-8;
-2,10697746272177E-8;
-1,41910176724856E-8;
-7,8092112154942E-9;
-4,66238380614481E-9;
-4,09736221446035E-9;
-3,44949071644979E-9;
-7,71639131282074E-10;
3,45929493752539E-9;
7,02476174886211E-9;
8,21914273363715E-9;
7,58169581885673E-9;
7,50015849134364E-9;
9,93108902322534E-9;
1,42366198577043E-8;
1,71058639975976E-8;
1,48478321903339E-8;
6,36864023586011E-9;
-5,55780216926427E-9;
-1,5819074817696E-8;
-2,02193575851711E-8;
-1,80772570275449E-8;
-1,22731624798368E-8;
-6,86188152598432E-9;
-4,19923806317235E-9;
-3,73316228589618E-9;
-3,18600314554933E-9;
-8,95301573173685E-10;
2,7401188856607E-9;
5,8228747168018E-9;
6,88909645219705E-9;
6,39726443895556E-9;
6,37818942906094E-9;
8,50405641394028E-9;
1,22400980376885E-8;
1,4762377009717E-8;
1,29184902866179E-8;
5,75718051342327E-9;
-4,38531445474877E-9;
-1,31661539295298E-8;
-1,70088843878473E-8;
-1,53105058204935E-8;
-1,04894180204002E-8;
-5,97099334622759E-9;
-3,75027021083916E-9;
-3,37292439887328E-9;
-2,92022671094859E-9;
-9,84871290331248E-10;
2,09824868194407E-9;
4,73139212395932E-9;
5,67735669525879E-9;
5,31316967244987E-9;
5,34583915870715E-9;
7,18713491732504E-9;
1,03912548954619E-8;
1,25875034392503E-8;
1,11180194908206E-8;
5,16111806717719E-9;
-3,34009442849923E-9;
-1,07534113476448E-8;
-1,40745243467223E-8;
-1,27726699658746E-8;
-8,84387354260934E-9;
-5,1372444662363E-9;
-3,32018692098776E-9;
-3,02261268381353E-9;
-2,65612435774209E-9;
-1,04732428454543E-9;
1,5312326443588E-9;
3,74987217523166E-9;
4,57918919579423E-9;
4,3275410807241E-9;
4,4042985436609E-9;
5,97962330203485E-9;
8,69352626380767E-9;
1,05859464311611E-8;
9,44922102247023E-9;
4,58923232580881E-9;
-2,41507249593331E-9;
-8,57874061527525E-9;
-1,14145471934601E-8;
-1,04635627009567E-8;
-7,33822657737462E-9;
-4,36425457574869E-9;
-2,91154699392241E-9;
-2,68567524251048E-9;
-2,39544133076096E-9;
-1,08216273193699E-9;
1,03365608779187E-9;
2,87314138573831E-9;
3,59495478709428E-9;
3,43915550169156E-9;
3,55116540776348E-9;
4,88223669532663E-9;
7,14470028516875E-9;
8,75507286004318E-9;
7,91431838701431E-9;
4,04153202971E-9;
-1,60688553382272E-9;
-6,63326085200789E-9;
-9,02245002864206E-9;
-8,37836936748971E-9;
-5,97135249884916E-9;
-3,65392058423367E-9;
-2,52641202161982E-9;
-2,36411004421777E-9;
-2,14199531695674E-9;
-1,09694990487814E-9;
6,02264833336976E-10;
2,09898456784856E-9;
2,71736929027848E-9;
2,64514047007659E-9;
2,78503061204395E-9;
3,89255188443168E-9;
5,74583685382914E-9;
7,09455599146475E-9;
6,5146412860227E-9;
3,52492851033365E-9;
-9,07800168713991E-10;
-4,90842321163238E-9;
-6,88856551843234E-9;
-6,51006731522474E-9;
-4,73924556191279E-9;
-3,00562448193273E-9;
-2,16633627760751E-9;
-2,0592700996875E-9;
-1,89854122003317E-9;
-1,09208389367417E-9;
2,3374991537662E-10;
1,41896389905186E-9;
1,9436185183637E-9;
1,94297736396082E-9;
2,10307674564857E-9;
3,00706029954963E-9;
4,48998748887183E-9;
5,6016817703161E-9;
5,24784324899016E-9;
3,03994055687121E-9;
-3,10577072196871E-10;
-3,39574514458318E-9;
-5,0036348655157E-9;
-4,85176172009519E-9;
-3,6387494279285E-9;
-2,41844851125663E-9;
-1,83341348753977E-9;
-1,77407174533114E-9;
-1,6655434933136E-9;
-1,07175767126698E-9;
-7,86195077547435E-11;
8,31274853837683E-10;
1,26914867131525E-9;
1,32742675977417E-9;
1,50255823894996E-9;
2,22139329610291E-9;
3,37275775437981E-9;
4,26931717680617E-9;
4,10936422711025E-9;
2,58896935531212E-9;
1,92919054561966E-10;
-2,07969478240532E-9;
-3,35208818839928E-9;
-3,39294790850761E-9;
-2,66329263053379E-9;
-1,89032739560782E-9;
-1,52698887807605E-9;
-1,50860634786816E-9;
-1,44632787980447E-9;
-1,03739282629728E-9;
-3,36445254886473E-10;
3,26577766613746E-10;
6,8460916515904E-10;
7,9181495908573E-10;
9,76703540450205E-10;
1,53057236956275E-9;
2,38739141017287E-9;
3,09100480981429E-9;
3,09640616886816E-9;
2,1733374593721E-9;
6,10020296940841E-10;
-9,49791494165015E-10;
-1,92235016149059E-9;
-2,12388947467372E-9;
-1,80867659730501E-9;
-1,42004611784891E-9;
-1,24682197030442E-9;
-1,26297395705458E-9;
-1,24076185393114E-9;
-9,9424007421132E-10;
-5,49020442711317E-10;
-9,97604696735775E-11;
1,87316245107373E-10;
3,32872218133484E-10;
5,22530133234059E-10;
9,30273884928984E-10;
1,52899359359011E-9;
2,06014562288902E-9;
2,20168204828502E-9;
1,79185627278865E-9;
9,5040239232783E-10;
9,52980245584506E-12;
-6,97799641264892E-10;
-1,02873333464771E-9;
-1,06589929361491E-9;
-1,00508592190186E-9;
-9,93680553023982E-10;
-1,03898379812164E-9;
-1,04910530358426E-9;
-9,4091162115076E-10;
-7,16726748280477E-10;
-4,54936939472886E-10;
-2,32495443047353E-10;
-5,67261648907595E-11;
1,3525848860888E-10;
4,14203008736484E-10;
7,86116702862609E-10;
1,16609712057868E-9;
1,42024555369339E-9;
1,44409233965101E-9;
1,21850683716771E-9;
8,10965100813583E-10;
3,36252366970557E-10;
-9,7510984921083E-11;
-4,27336532560032E-10;
-6,42063700540513E-10;
-7,65832472657103E-10;
-8,33731706055506E-10;
-8,72157798332173E-10;
-8,83192150430329E-10;
-8,46564820997933E-10;
-7,43832177140381E-10;
-5,79480266780751E-10;
-3,82561760891182E-10;
-1,91813981074547E-10;
-2,40137744265628E-11;
1,52582665895989E-10;
3,98551866767946E-10;
7,43018746790948E-10;
1,13107549756771E-9;
1,4254925152709E-9;
1,47071160646545E-9;
1,19736359533479E-9;
6,84157775568397E-10;
1,13494617529876E-10;
-3,28741026514718E-10;
-5,62825879580776E-10;
-6,49872301998892E-10;
-7,10438794885087E-10;
-8,19282396674721E-10;
-9,41617468123564E-10;
-9,74985664429953E-10;
-8,61299783197995E-10;
-6,48776082816325E-10;
-4,63203391995457E-10;
-3,92199089689804E-10;
-3,81091245669396E-10;
-2,50873044404701E-10;
1,63318199392074E-10;
8,50621663436221E-10;
1,57536737663605E-9;
1,99919162482297E-9;
1,90109743739452E-9;
1,32890363445105E-9;
5,65282955694552E-10;
-6,03025205178349E-11;
-3,84044892053959E-10;
-4,84962330798431E-10;
-5,64863732302796E-10;
-7,54341360905443E-10;
-1,00630303064841E-9;
-1,15443633409278E-9;
-1,08531541352386E-9;
-8,61825675324776E-10;
-6,82364899711852E-10;
-6,93713095953645E-10;
-8,22322119300429E-10;
-7,91242306330668E-10;
-3,24231619953E-10;
6,03649806345202E-10;
1,67709592981077E-9;
2,41165645858384E-9;
2,46231339962376E-9;
1,84868567298367E-9;
9,35131416880005E-10;
1,67188414346116E-10;
-2,27475132503163E-10;
-3,39330204657444E-10;
-4,32894312731624E-10;
-6,87999687834651E-10;
-1,04572867528594E-9;
-1,28609764257608E-9;
-1,25427624095664E-9;
-1,02761224339428E-9;
-8,58034322587532E-10;
-9,37208402911184E-10;
-1,18110974709844E-9;
-1,23348487901454E-9;
-7,2985075128066E-10;
3,84944884525865E-10;
1,73689386429666E-9;
2,72171175874012E-9;
2,89507424818246E-9;
2,25766921842886E-9;
1,23304730342422E-9;
3,54361970994712E-10;
-9,33568847756896E-11;
-2,1106021503898E-10;
-3,14829450837841E-10;
-6,20287396007802E-10;
-1,06230593393115E-9;
-1,37747297511215E-9;
-1,37832916668074E-9;
-1,15161936287097E-9;
-9,91023346690458E-10;
-1,12746837634719E-9;
-1,46473043172908E-9;
-1,58659395139186E-9;
-1,060446982281E-9;
1,94693363975599E-10;
1,7594494630324E-9;
2,94062475245228E-9;
3,21521355127074E-9;
2,56676703848999E-9;
1,46433890796604E-9;
5,07504774460414E-10;
2,17629119709328E-11;
-1,00068752891516E-10;
-2,10320101047848E-10;
-5,54353535097912E-10;
-1,05995381134803E-9;
-1,43338134194234E-9;
-1,46208776872083E-9;
-1,2381121026793E-9;
-1,0888076400813E-9;
-1,27094578659809E-9;
-1,68212214948104E-9;
-1,86103163726697E-9;
-1,32188839070944E-9;
3,23450448906525E-11;
1,75194978707873E-9;
3,08119949735686E-9;
3,43711039249578E-9;
2,78909864834547E-9;
1,63788896165338E-9;
6,29158975972228E-10;
1,19430439406134E-10;
-3,98620899598717E-12;
-1,19240714185453E-10;
-4,90234602465999E-10;
-1,04168248575517E-9;
-1,45867322185782E-9;
-1,51130199726277E-9;
-1,29283162785654E-9;
-1,15407826268672E-9;
-1,37234209627696E-9;
-1,83924265680196E-9;
-2,0639118169113E-9;
-1,52395165564226E-9;
-1,06248775773393E-10;
1,7192348725312E-9;
3,15205475421449E-9;
3,57203799417216E-9;
2,93525754616368E-9;
1,75921618302051E-9;
7,22607892836604E-10;
2,00333042276712E-10;
7,75592515921912E-11;
-4,06372055148375E-11;
-4,29516990181659E-10;
-1,0108118653251E-9;
-1,45857369552743E-9;
-1,52917876963736E-9;
-1,31890561752448E-9;
-1,1931900104605E-9;
-1,43833589119389E-9;
-1,94539123141899E-9;
-2,20512102035353E-9;
-1,6716702865996E-9;
-2,2235368134947E-10;
1,66618034236002E-9;
3,16631030503521E-9;
3,63264495772036E-9;
3,01558223779195E-9;
1,83620441060015E-9;
7,90821339251107E-10;
2,65435355838904E-10;
1,42647979780078E-10;
2,65483405169359E-11;
-3,69440512299878E-10;
-9,69092969773847E-10;
-1,43520786785359E-9;
-1,52156494827781E-9;
-1,32217714270151E-9;
-1,20740603135976E-9;
-1,47310536759109E-9;
-2,00688935198924E-9;
-2,29187758378951E-9;
-1,77196626025803E-9;
-3,16345757228872E-10;
1,59508697589517E-9;
3,1305719880286E-9;
3,63182301679086E-9;
3,03757195410515E-9;
1,87475469211271E-9;
8,37589331399888E-10;
3,15580839561944E-10;
1,99074427110059E-10;
8,37304863394129E-11;
-3,15082930524006E-10;
-9,20387152366522E-10;
-1,39697231654281E-9;
-1,49273924526812E-9;
-1,30506051845092E-9;
-1,20335348571684E-9;
-1,48020004552589E-9;
-2,02837433478898E-9;
-2,33274247111479E-9;
-1,83242518546728E-9;
-3,91031014095275E-10;
1,51448610863524E-9;
3,05511150905594E-9;
3,57604102212851E-9;
3,01310790299563E-9;
1,87994769941726E-9;
8,64049930270819E-10;
3,55030240520002E-10;
2,43186597969244E-10;
1,30603840893692E-10;
-2,64007781000983E-10;
-8,64604621817793E-10;
-1,34185959114448E-9;
-1,44690900214436E-9;
-1,27108775637502E-9;
-1,18015393048224E-9;
-1,46444509114889E-9;
-2,01767875738846E-9;
-2,33196574381481E-9;
-1,85621353140837E-9;
-4,50563610424175E-10;
1,42239059152583E-9;
2,94672790769113E-9;
3,4785698052362E-9;
2,94837890801275E-9;
1,85621326554399E-9;
8,74829015487443E-10;
3,82607945360847E-10;
2,76210142462831E-10;
1,68887033771645E-10;
-2,1596177810284E-10;
-8,04955746744517E-10;
-1,27632416259582E-9;
-1,3875616731921E-9;
-1,22613009014432E-9;
-1,14647854726639E-9;
-1,43232123025506E-9;
-1,98075150761945E-9;
-2,30010288379356E-9;
-1,85180493665322E-9;
-4,94744984524279E-10;
1,32351506055603E-9;
2,81279085090108E-9;
3,34623595133628E-9;
2,85245299920326E-9;
1,81087760640526E-9;
8,71030009020444E-10;
4,01315860834565E-10;
3,0132430587826E-10;
1,9912600724343E-10;
-1,7216043909564E-10;
-7,43762169360117E-10;
-1,20279649026955E-9;
-1,31658834650426E-9;
-1,16969287389777E-9;
-1,09929736157776E-9;
-1,38150021754629E-9;
-1,92044782028235E-9;
-2,2396125282073E-9;
-1,81993415550558E-9;
-5,24961832436114E-10;
1,22050019553E-9;
2,65947462029056E-9;
3,18718393412513E-9;
2,73070050911162E-9;
1,7471571239289E-9;
8,56833479658177E-10;
4,10632242380043E-10;
3,17460855168585E-10;
2,2243000806384E-10;
-1,32542962648314E-10;
-6,80555696865296E-10;
-1,12430820827295E-9;
-1,23901340408091E-9;
-1,10393662985097E-9;
-1,04450896664156E-9;
-1,32181547500973E-9;
-1,84314995189848E-9;
-2,15715920887478E-9;
-1,76851692572535E-9;
-5,4294966168141E-10;
1,11746969417499E-9;
2,49272707061141E-9;
