-3,88550723014709E-6;
-7,69068636856852E-6;
-8,92631610818497E-6;
-7,45345705224973E-6;
-4,59282303698064E-6;
-2,08482941885299E-6;
-8,74418649616954E-7;
-6,39937582358554E-7;
-3,47902927275348E-7;
7,13865669188813E-7;
2,31712630971622E-6;
3,57701509681349E-6;
3,83351306175422E-6;
3,31445793663754E-6;
2,96346361013926E-6;
3,5524755729743E-6;
4,84520237669609E-6;
5,57918099084043E-6;
4,37303871162242E-6;
8,8136081604665E-7;
-3,73379177589048E-6;
-7,44217144577599E-6;
-8,65615113756098E-6;
-7,24000957739636E-6;
-4,4753459089672E-6;
-2,05045945617448E-6;
-8,81345603661735E-7;
-6,55858989620187E-7;
-3,72582992418146E-7;
6,57930456879396E-7;
2,21424977096458E-6;
3,43962510742029E-6;
3,69509196895192E-6;
3,20020746199977E-6;
2,86620439267624E-6;
3,43866146006865E-6;
4,69030290787904E-6;
5,40425847007312E-6;
4,24910020366495E-6;
8,91370964995868E-7;
-3,55112184534056E-6;
-7,12540237720213E-6;
-8,30446609482325E-6;
-6,95703187496689E-6;
-4,31325857864941E-6;
-1,99335835693563E-6;
-8,7590389667511E-7;
-6,61307717691107E-7;
-3,89505868964446E-7;
5,9997951423186E-7;
2,09465391780087E-6;
3,27369092370573E-6;
3,52493395821673E-6;
3,05777277536425E-6;
2,7431472329387E-6;
3,29382348577718E-6;
4,49340326572345E-6;
5,18075514465631E-6;
4,08539945151223E-6;
8,88548490591959E-7;
-3,34531833689078E-6;
-6,75613783654273E-6;
-7,88958931425353E-6;
-6,61981146491207E-6;
-4,11596210857941E-6;
-1,91779335408305E-6;
-8,59903405191886E-7;
-6,57610061237704E-7;
-3,99377312540438E-7;
5,41491087303987E-7;
1,96309205417653E-6;
3,08653405702084E-6;
3,3309079379441E-6;
2,8940113500739E-6;
2,60044561151979E-6;
3,12524299984512E-6;
4,26428002903538E-6;
4,91985633704512E-6;
3,89078005782892E-6;
8,75002152760346E-7;
-3,12312915219304E-6;
-6,34821486563418E-6;
-7,42768377047018E-6;
-6,24185354625316E-6;
-3,89178767224018E-6;
-1,82758233335153E-6;
-8,3499525718286E-7;
-6,46005808682271E-7;
-4,02904119298663E-7;
4,83687213630203E-7;
1,82367856225744E-6;
2,88454524582487E-6;
3,11989069274803E-6;
2,71490377680423E-6;
2,44346521464707E-6;
2,93928421643313E-6;
4,01150162562995E-6;
4,63137330260801E-6;
3,67298458392863E-6;
8,52545401282877E-7;
-2,89054984872984E-6;
-5,9138946135146E-6;
-6,93308400143837E-6;
-5,83519078507273E-6;
-3,64823704339395E-6;
-1,7262680710946E-6;
-8,02836869405186E-7;
-6,27796386885175E-7;
-4,00919106705871E-7;
4,27430819076131E-7;
1,67982738794191E-6;
2,67314532861823E-6;
2,8977487683731E-6;
2,52555173825548E-6;
2,2767723644906E-6;
2,74139829610924E-6;
3,74246241213961E-6;
4,3238059285379E-6;
3,43873461012085E-6;
8,22729517966978E-7;
-2,65284726413761E-6;
-5,46391616527195E-6;
-6,41836013668846E-6;
-5,41040567993118E-6;
-3,39196525671083E-6;
-1,61707307984171E-6;
-7,65006887514831E-7;
-6,04244301127993E-7;
-3,94265973644382E-7;
3,73359295631129E-7;
1,53439813224595E-6;
2,45695640845234E-6;
2,66950427622504E-6;
2,33032755702713E-6;
2,10430032380278E-6;
2,53629911069555E-6;
3,46357286702849E-6;
4,00453758343679E-6;
3,19388506685017E-6;
7,8695823751407E-7;
-2,41450090800431E-6;
-5,00749583069182E-6;
-5,89432257249378E-6;
-4,97661422116557E-6;
-3,12872032447076E-6;
-1,50279909323711E-6;
-7,2289859240727E-7;
-5,76475762239953E-7;
-3,83715892439931E-7;
3,21984731845731E-7;
1,38982510759389E-6;
2,23993583506455E-6;
2,43948062074399E-6;
2,13301131163694E-6;
1,92945664860764E-6;
2,3280707327123E-6;
3,18037730327927E-6;
3,67996137431495E-6;
2,94354034259281E-6;
7,46544690379209E-7;
-2,17921530478468E-6;
-4,55239323212474E-6;
-5,3701161863516E-6;
-4,54154438516791E-6;
-2,86338792166079E-6;
-1,38584038625479E-6;
-6,77716380735659E-7;
-5,45467548150822E-7;
-3,69939965550752E-7;
2,73721848903823E-7;
1,24816190652615E-6;
2,02543918344772E-6;
2,21134559082593E-6;
1,93682582877022E-6;
1,75516041892706E-6;
2,12021163249586E-6;
2,89761827158905E-6;
3,35554231020694E-6;
2,6920934463102E-6;
7,02690356277731E-7;
-1,95002220334428E-6;
-4,10505609507763E-6;
-4,85337570282717E-6;
-4,11166919482529E-6;
-2,60007566316483E-6;
-1,2682339339458E-6;
-6,30510024776074E-7;
-5,12084232917526E-7;
-3,53546472836531E-7;
2,28876305536284E-7;
1,11108176513432E-6;
1,81623611811411E-6;
1,98814791939949E-6;
1,74445539864982E-6;
1,58385111982496E-6;
1,91564925408247E-6;
2,61926451079837E-6;
3,03586160874018E-6;
2,44324204590972E-6;
6,56462387823121E-7;
-1,72936073934407E-6;
-3,67077220768895E-6;
-4,35038563222229E-6;
-3,6923419047214E-6;
-2,34220985790408E-6;
-1,15170541434603E-6;
-5,82201504880333E-7;
-4,77101383976289E-7;
-3,35103621720243E-7;
1,87631938544657E-7;
9,79903601770527E-7;
1,614552797816E-6;
1,77235118912874E-6;
1,55807946125309E-6;
1,41751606783201E-6;
1,71677872632461E-6;
2,34856967047106E-6;
2,72468505261461E-6;
2,20004996962935E-6;
6,08790071703917E-7;
-1,51914322730521E-6;
-3,25377406637941E-6;
-3,86621951365796E-6;
-3,2878991682194E-6;
-2,09258872987385E-6;
-1,03770516350465E-6;
-5,33596683307709E-7;
-4,4120547057672E-7;
-3,15129679898582E-7;
1,50077072967573E-7;
8,55631628389996E-7;
1,42213583664946E-6;
1,56590411586717E-6;
1,3794288315383E-6;
1,25774567540662E-6;
1,52552284302446E-6;
2,08814823009322E-6;
2,42504732482072E-6;
1,96500792213862E-6;
5,60482921218509E-7;
-1,32081549947342E-6;
-2,85735527686078E-6;
-3,40484813899357E-6;
-2,90176147404834E-6;
-1,8534486902499E-6;
-9,27418875742909E-7;
-4,85385504917606E-7;
-4,05000193339762E-7;
-2,94094791724174E-7;
1,16223510925545E-7;
7,38998666308158E-7;
1,24030272157122E-6;
1,37029919772748E-6;
1,2098425138147E-6;
1,10577632360062E-6;
1,34338348352945E-6;
1,84004632618539E-6;
2,13932984451455E-6;
1,74009365378965E-6;
5,12239833728626E-7;
-1,13540285504157E-6;
-2,48396091753195E-6;
-2,96926104794677E-6;
-2,53652986033868E-6;
-1,62650676725757E-6;
-8,21787392500925E-7;
-4,38145677237389E-7;
-3,68993350020753E-7;
-2,72409762422031E-7;
8,60193993420114E-8;
6,30503935372118E-7;
1,07000374877417E-6;
1,18662812940306E-6;
1,05030935190125E-6;
9,62532873813253E-7;
1,17149301701622E-6;
1,60580924329757E-6;
1,86933845882019E-6;
1,52683208925501E-6;
4,64660840294172E-7;
-9,63563715163148E-7;
-2,13530075793177E-6;
-2,56158496709994E-6;
-2,19407310898926E-6;
-1,41303055788018E-6;
-7,21537893029925E-7;
-3,92349072652932E-7;
-3,33620339779898E-7;
-2,50436139091203E-7;
5,93654188344458E-8;
5,30440987434538E-7;
9,11864570687886E-7;
1,01562931985736E-6;
9,01512464601353E-7;
8,28668087111262E-7;
1,01065433974328E-6;
1,3865357010178E-6;
1,6163652764139E-6;
1,32634160604641E-6;
4,18251607289481E-7;
-8,05640833210055E-7;
-1,81243571393349E-6;
-2,18319038331273E-6;
-1,87563151342951E-6;
-1,21388975727467E-6;
-6,2720527405056E-7;
-3,48378064516802E-7;
-2,99240226823412E-7;
-2,28489158371565E-7;
3,6117181542302E-8;
4,38927449047414E-7;
7,66226116260367E-7;
8,57736879856413E-7;
7,63868890920226E-7;
7,0459119729072E-7;
8,61380549490022E-7;
1,1829316677138E-6;
1,3812527703923E-6;
1,13938069112608E-6;
3,73424488347533E-7;
-6,61712655877868E-7;
-1,51587869956155E-6;
-1,83480226515978E-6;
-1,58189680654908E-6;
-1,02960911720068E-6;
-5,39158769997198E-7;
-3,06536593119441E-7;
-2,6614997086426E-7;
-2,06838812565453E-7;
1,60997230962097E-8;
3,55934629916161E-7;
6,33187502272667E-7;
7,13115608127147E-7;
6,37559487272941E-7;
5,90501126290142E-7;
7,23937976347747E-7;
9,95366049651764E-7;
1,16445300773584E-6;
9,66400584366381E-7;
3,30514765967264E-7;
-5,31632081072402E-7;
-1,24567107469575E-6;
-1,51659035677183E-6;
-1,3130897899377E-6;
-8,60417955736703E-7;
-4,57625737077611E-7;
-2,67050951997396E-7;
-2,34580744730305E-7;
-1,85714014639817E-7;
-8,89420534625402E-10;
2,81304950631665E-7;
5,12645727487214E-7;
5,81717117889434E-7;
5,22577230795078E-7;
4,86423228429005E-7;
5,98379337271308E-7;
8,23920801952913E-7;
9,66088217585023E-7;
8,07582101846877E-7;
2,89782560583649E-7;
-4,15071687675958E-7;
-1,00146252691078E-6;
-1,2282555571877E-6;
-1,06904035159008E-6;
-7,06292749922101E-7;
-3,82699902012871E-7;
-2,30084220476441E-7;
-2,04716790300503E-7;
-1,65305001324654E-7;
-1,50670724775831E-8;
2,14782281081169E-7;
4,04331596815081E-7;
4,63300358288323E-7;
4,18744916256608E-7;
3,92233572105132E-7;
4,84576595857572E-7;
6,68432482719158E-7;
7,85998873580922E-7;
6,6288084298473E-7;
2,51421892609894E-7;
-3,11549315230762E-7;
-7,82574711311202E-7;
-9,69117080629857E-7;
-8,4924338647582E-7;
-5,66998419745057E-7;
-3,14375598860521E-7;
-1,95738932792799E-7;
-1,76687004739681E-7;
-1,45766082050752E-7;
-2,66626384043048E-8;
1,56031584440722E-7;
3,07837644134321E-7;
3,57477663918025E-7;
3,25758353894831E-7;
3,07684779156392E-7;
3,82258922040159E-7;
5,28541388588613E-7;
6,23790571998085E-7;
5,32061815458934E-7;
2,15571281573574E-7;
-2,20470912275943E-7;
-5,88075152763004E-7;
-7,38178701386512E-7;
-6,52930315058262E-7;
-4,42124871007619E-7;
-2,5255039671534E-7;
-1,64071208629344E-7;
-1,50579429725731E-7;
-1,272180816243E-7;
-3,59092051836918E-8;
1,04653914446716E-7;
2,22647265584427E-7;
2,63739644178579E-7;
2,4320143277443E-7;
2,32430329413137E-7;
2,91031437322398E-7;
4,03719488748837E-7;
4,78880687251443E-7;
4,1473263372951E-7;
1,82313353315974E-7;
-1,4114796610291E-7;
-4,16817166989956E-7;
-5,34193652441024E-7;
-4,791155299269E-7;
-3,31127332016517E-7;
-1,9705126955267E-7;
-1,35087642130937E-7;
-1,26446495059071E-7;
-1,09753352823216E-7;
-4,30397869893749E-8;
6,02060144378909E-8;
1,48166451504103E-7;
1,81479494345924E-7;
1,70572390396421E-7;
1,66051085333137E-7;
2,10406015228411E-7;
2,93309680067545E-7;
3,5053772122192E-7;
3,10378049250614E-7;
1,51687151538825E-7;
-7,2833557439644E-8;
-2,67511315333374E-7;
-3,55734390316457E-7;
-3,26649425305093E-7;
-2,33344162139994E-7;
-1,47643516161766E-7;
-1,08762902016373E-7;
-1,0430355519072E-7;
-9,34353986772644E-8;
-4,82830052461188E-8;
2,22137746577181E-8;
8,37348667211432E-8;
1,10027275103813E-7;
1,07312870574218E-7;
1,08058040839226E-7;
1,39818324113373E-7;
1,96559360305654E-7;
2,37907332433854E-7;
2,18379329885524E-7;
1,23696006237121E-7;
-1,47347960497605E-8;
-1,38750531867964E-7;
-2,01227329521652E-7;
-1,94261250044155E-7;
-1,48037640821044E-7;
-1,04045873270973E-7;
-8,50387996524939E-8;
-8,41409021038743E-8;
-7,83060124301722E-8;
-5,18635202792826E-8;
-9,8176988913219E-9;
2,86553154638193E-8;
4,86585143442347E-8;
5,28125047270903E-8;
5,7929831649983E-8;
7,86576585487679E-8;
1,12640835842999E-7;
1,40058308302429E-7;
1,38047869401297E-7;
9,83006504855382E-8;
3,39625525335637E-8;
-2,90546006582577E-8;
-6,90123652521967E-8;
-8,05988712224734E-8;
-7,44070730588152E-8;
-6,59409719644221E-8;
-6,38320281645752E-8;
-6,59225315230502E-8;
-6,43854389015874E-8;
-5,39942853040705E-8;
-3,63912936001278E-8;
-1,77941018657491E-8;
-3,37494683503473E-9;
6,43670851911644E-9;
1,51124882464024E-8;
2,62739201890135E-8;
4,06740142188409E-8;
5,59923606096632E-8;
6,86418943136929E-8;
7,54452121420952E-8;
7,40793377540937E-8;
6,30853640728641E-8;
4,26268964908378E-8;
1,57412271371159E-8;
-1,16201948329673E-8;
-3,29844117365712E-8;
-4,50386521103262E-8;
-4,95951692609017E-8;
-5,16763658726351E-8;
-5,48778895357274E-8;
-5,80069940382695E-8;
-5,63448271448169E-8;
-4,68393058893501E-8;
-3,24625197040464E-8;
-2,09656915656484E-8;
-1,80061088040784E-8;
-2,02436704622941E-8;
-1,5319676329119E-8;
9,38284981226892E-9;
5,5041985680195E-8;
1,0643022997949E-7;
1,39196831634545E-7;
1,35423893679289E-7;
9,61865750718237E-8;
4,11826777464557E-8;
-4,81701768033834E-9;
-2,85382044747353E-8;
-3,50860096203858E-8;
-4,01654867905823E-8;
-5,47049369120171E-8;
-7,51588952064717E-8;
-8,7723097423956E-8;
-8,25000669451815E-8;
-6,45409313569446E-8;
-5,08769772016598E-8;
-5,48572688154092E-8;
-7,10292231336729E-8;
-7,49201922392814E-8;
-4,05227137345772E-8;
3,69880519817087E-8;
1,31812824807972E-7;
2,00786390939078E-7;
2,1110420608509E-7;
1,62160121810922E-7;
8,48591123612466E-8;
1,89319911206151E-8;
-1,41985128772616E-8;
-2,23119908068713E-8;
-2,9824200627389E-8;
-5,3650167850245E-8;
-8,83269065732642E-8;
-1,12642872387213E-7;
-1,11112288167794E-7;
-9,04439123508836E-8;
-7,51904577407956E-8;
-8,4955110013839E-8;
-1,12595927160638E-7;
-1,23852107428685E-7;
-8,18736747839679E-8;
2,1164695928066E-8;
1,50996939644474E-7;
2,49331342152526E-7;
2,71360214782857E-7;
2,15060437395044E-7;
1,20261954549419E-7;
3,86357476720884E-8;
-1,87935186726538E-9;
-1,11780826692471E-8;
-2,06153319885462E-8;
-5,18753148163204E-8;
-9,79725298167443E-8;
-1,31799765047546E-7;
-1,33408920508458E-7;
-1,10800314552227E-7;
-9,44667864990604E-8;
-1,08961662955288E-7;
-1,45841502926528E-7;
-1,63143751815993E-7;
-1,15460253788587E-7;
7,44294332473311E-9;
1,64719490290166E-7;
2,86256863058762E-7;
3,17833190558779E-7;
2,56252040731952E-7;
1,48221749399527E-7;
5,46612670467751E-8;
8,56703843522139E-9;
-1,58193018321651E-9;
-1,24925622655022E-8;
-4,95275207441899E-8;
-1,04530800232695E-7;
-1,45853138435756E-7;
-1,50097319437859E-7;
-1,26220594105052E-7;
-1,09244215988794E-7;
-1,27519200741487E-7;
-1,71636159697197E-7;
-1,93788676686156E-7;
-1,42054086590054E-7;
-4,31299148351591E-9;
1,73677911429895E-7;
3,12923619984906E-7;
3,52095424883403E-7;
2,87041668080235E-7;
1,6954199324089E-7;
6,73724452980238E-8;
1,72878753235407E-8;
6,57978125192761E-9;
-5,40229748700546E-9;
-4,67383160598609E-8;
-1,08414714120443E-7;
-1,55436051902713E-7;
-1,61851118089132E-7;
-1,37282821041079E-7;
-1,20040342586639E-7;
-1,41244130501851E-7;
-1,9081444489069E-7;
-2,1674618225853E-7;
-1,62401857744585E-7;
-1,42462752004998E-8;
1,78525477074018E-7;
3,30624041231777E-7;
3,75643881966086E-7;
3,08678491901415E-7;
1,8499326930604E-7;
7,71196199374887E-8;
2,44318907506934E-8;
1,34193287240724E-8;
7,16189586031539E-10;
-4,36266719529522E-8;
-1,10009365402704E-7;
-1,61141337906984E-7;
-1,69304160479265E-7;
-1,44538727950224E-7;
-1,27347652119514E-7;
-1,5072221281188E-7;
-2,04174023108994E-7;
-2,3293048881407E-7;
-1,77218597513602E-7;
-2,25021477334232E-8;
1,79868280986495E-7;
3,40564808847916E-7;
3,89881112124046E-7;
3,22338057170805E-7;
1,95302651977389E-7;
8,4236166511056E-8;
3,01455329075684E-8;
1,90440485688566E-8;
5,92484728557345E-9;
-4,02947723087635E-8;
-1,09668788506903E-7;
-1,63521552781927E-7;
-1,73052921009775E-7;
-1,48502773175663E-7;
-1,31624300250311E-7;
-1,56503101424221E-7;
-2,1246183242498E-7;
-2,43202493758658E-7;
-1,87182248805229E-7;
-2,92230392518602E-8;
1,78266878901468E-7;
3,43872060968516E-7;
3,96122989944278E-7;
3,29119232238461E-7;
2,01153072349315E-7;
8,90452862528462E-8;
3,45741527946913E-8;
2,35662630847649E-8;
1,02905258236263E-8;
-3,68347148844842E-8;
-1,07717806557203E-7;
-1,63087778314584E-7;
-1,73648384806758E-7;
-1,49655242883277E-7;
-1,33304362223682E-7;
-1,5910500581467E-7;
-2,16381082312934E-7;
-2,48369401117349E-7;
-1,92928211396957E-7;
-3,45525329794534E-8;
1,74232928611605E-7;
3,4158565927498E-7;
3,95581088113009E-7;
3,30042883622811E-7;
2,03183066773459E-7;
9,18453546737347E-8;
3,78546067006454E-8;
2,70894182646323E-8;
1,38791997355777E-8;
-3,33235091692291E-8;
-1,04453451351905E-7;
-1,60307421013702E-7;
-1,71597792716434E-7;
-1,4843692528518E-7;
-1,32782589830631E-7;
-1,5900431564486E-7;
-2,16580869399444E-7;
-2,49181161488913E-7;
-1,95052968219838E-7;
-3,86297789504178E-8;
1,68230098846362E-7;
3,34654043664295E-7;
3,89371177412129E-7;
3,26048897198442E-7;
2,01979922196741E-7;
9,29156104973694E-8;
4,01198128436404E-8;
2,97224439606412E-8;
1,67609846872098E-8;
-2,98273560586308E-8;
0,00933333390218;
0,0226295742160715;
0,0163725699125204;
0,00943295092428374;
0,0121692613588738;
0,00702601069019581;
0,00563460347019335;
0,00458246372605688;
0,000840305985140719;
0,00103235078117083;
-0,00119027882105177;
-0,00199162871581127;
-0,0028067584266993;
-0,00455336332568996;
-0,00488712691449572;
-0,00585580818948358;
-0,00594117577745743;
-0,00618245676285386;
-0,0069935576705168;
-0,00792072994813734;
-0,00934898302015312;
-0,0102430380885363;
-0,0105186607601133;
-0,0101086636129717;
-0,00920779123373875;
-0,00843044921512979;
-0,0078306423317661;
-0,00745771193652462;
-0,00704824386692175;
-0,0064187206306625;
-0,0150087357399735;
-0,0275879068707353;
-0,0208254547791124;
-0,0135235569335205;
-0,0158330256662688;
-0,0100526438755572;
-0,0078630075721826;
-0,00615550642439653;
-0,00220155589057837;
-0,00269766103409966;
-0,00103537523938916;
-0,000595251071367296;
0,000400220632399442;
0,00289636218382654;
0,00426246948048573;
0,00617242372194276;
0,00690468021124753;
0,00755812510189587;
0,00875852345046528;
0,0101991208109564;
0,0122227421799831;
0,0136213919640575;
0,0141837880696054;
0,0138932414634783;
0,0131325964346702;
0,01266383312156;
0,012484579363305;
0,0123866342209714;
0,0118334712011729;
0,0105807130503887;
0,00897376456074316;
0,00755955855812369;
0,0068369826265539;
0,00676197448589763;
0,00687288099138518;
0,00669182321551724;
0,00608680944051366;
0,00541855192762851;
0,00517820383244016;
0,00557138942493;
0,00630224692131544;
0,00676195820744724;
0,00649623719128409;
0,00552340006655633;
0,0042988597029951;
0,00332893446747236;
0,00276726167328987;
0,00232542064256991;
0,00154883969192435;
0,000237075965395893;
-0,00135422427585827;
-0,00269024499965307;
-0,00336515712298707;
-0,00340804891730358;
-0,00323282144102271;
-0,00328214766903703;
-0,00366052879289902;
-0,00406015600653894;
-0,0040392604832973;
-0,00341916480898049;
-0,0024717364831442;
-0,00174003245874404;
-0,00163696583171388;
-0,00214669818913879;
-0,002866364129632;
-0,00334739602954818;
-0,00345317540626973;
-0,00344305142007712;
-0,00372216255766541;
-0,00447138397921725;
-0,00546664207488193;
-0,00623600934104599;
-0,00642289204147395;
-0,00605531307053386;
-0,0055018993600303;
-0,00515539848958086;
-0,00510815747338577;
-0,00508776621426852;
-0,00470394814209885;
-0,00380047817133594;
-0,00262012660507395;
-0,00164516731726701;
-0,00124203226915115;
-0,00139733376360268;
-0,00175527960855585;
-0,00191939365915692;
-0,00176837109421418;
-0,00153018358890453;
-0,00156150576451744;
-0,00202187831468814;
-0,00271483901126411;
-0,00322631355637772;
-0,00324380529721714;
-0,00279247270525905;
-0,00219577614751277;
-0,00179727440822713;
-0,00167622640319083;
-0,00159208371758246;
-0,0012018712688641;
-0,000368880628625073;
0,000693380178688247;
0,00156180144100755;
0,00191543317251652;
0,001766551880557;
0,00142751776730792;
0,00124649432298979;
0,00133117860445726;
0,0014840646187972;
0,00139501008430864;
0,000925385259007157;
0,000246361742480664;
-0,000281798187054127;
-0,000387484230148946;
-9,26165185270481E-5;
0,000322243312741512;
0,00056001828719742;
0,00055382582927159;
0,000514282072373062;
0,000739972152901102;
0,0013494072430364;
0,00215672322768433;
0,0027944586021841;
0,00298432454221597;
0,00273738823936433;
0,0023249963479298;
0,00204966281089867;
0,00200593258745914;
0,00202442041420661;
0,00183814689399049;
0,00132768445776613;
0,000640225274706933;
8,54232849888742E-5;
-0,000103633707671247;
5,37760570330427E-5;
0,000316653691116703;
0,000430704700820575;
0,000339936673942946;
0,000226419139818701;
0,000346813386793399;
0,00080223468660218;
0,00143219383177156;
0,00192066635084377;
0,0020286346053169;
0,00176552897843386;
0,00136398195191969;
0,00108347252366403;
0,00100573285956253;
0,000986940202502062;
0,000799688437124544;
0,000341940765591502;
-0,000261710741380485;
-0,000748837299885979;
-0,000922335323832489;
-0,00079934339336452;
-0,000584593929126874;
-0,000493213712058873;
-0,000571576655376901;
-0,000664431731285812;
-0,000554193207496609;
-0,000156020559848137;
0,000392925629781572;
0,000824030145302785;
0,000934401552228934;
0,000731775807763815;
0,000412844392823503;
0,000197160112272403;
0,00015441780428025;
0,000164160815946483;
3,53021536113622E-5;
-0,00031824278460265;
-0,000792668313696221;
-0,0011689235582388;
-0,00128291318040845;
-0,00114975799597147;
-0,000940879036478184;
-0,000835500237174622;
-0,00087125641773235;
-0,000917562457131417;
-0,000792648644120718;
-0,000426473577336612;
6,53747588104819E-5;
0,000457920704631577;
0,000581524117734216;
0,000442473539211458;
0,000204619512142772;
5,1014095643229E-5;
4,03708817339878E-5;
7,36440776290402E-5;
-6,97302697946257E-6;
-0,000272848771276035;
-0,000638959038598503;
-0,000925611530419712;
-0,000998593754786343;
-0,000870996499765815;
-0,000683753158083221;
-0,000583316477892553;
-0,000599335912831895;
-0,000623637816905104;
-0,00050693986870262;
-0,000192481338094886;
0,000223998474175151;
0,000557425202978342;
0,000668561831903106;
0,000562506446764155;
0,000373356690919081;
0,000251065763038577;
0,000244405060211818;
0,00027378084890376;
0,000211621904049527;
1,97141552431626E-9;
-0,000292921116690199;
-0,000522922827196244;
-0,000582675985221952;
-0,000483317774631415;
-0,000338160622286357;
-0,000264047226956926;
-0,000283457624608925;
-0,000308492435440983;
-0,000219179364965042;
2,93420586430881E-5;
0,000359366103350443;
0,000621927684090079;
0,000705283099427268;
0,0006134855210569;
0,000453806495418648;
0,000346336348829855;
0,00033082642816801;
0,00034512305544686;
0,000288814963145449;
0,000116069088938142;
-0,000120062768714625;
-0,000307140533569384;
-0,000361910395733078;
-0,000293732626647459;
-0,000191179409514911;
-0,00014463589800822;
-0,000170274390107122;
-0,000198460130458071;
-0,000135517905056703;
5,27718331196187E-5;
0,000304891896940421;
0,000504229641271208;
0,00056364552381185;
0,000486232795552351;
0,000355225732157925;
0,000263945734191127;
0,000243982496186493;
0,000248645639171368;
0,00020168051551848;
6,80112465699515E-5;
-0,000112753145371158;
-0,000256440294934255;
-0,000301191525398653;
-0,000254784607672184;
-0,000183837801848384;
-0,000155313433450965;
-0,000179898291839368;
-0,000204282962527944;
-0,00015819198699596;
-1,68416212707192E-5;
0,000172660799371953;
0,000322445636465356;
0,000367209747893823;
0,000309180599537139;
0,00021024799448365;
0,000139953151646628;
0,000122573623656567;
0,000125018635076703;
9,23434925552043E-5;
-1,02581003833522E-6;
-0,000127316565363545;
-0,000227251262753875;
-0,000257794525722596;
-0,000225306142130487;
-0,00017707811657458;
-0,000159505520759759;
-0,000178532922862627;
-0,000195292338449358;
-0,00016012021067443;
-5,64994622099209E-5;
8,11992205187715E-5;
0,000190436898091156;
0,000225139604378259;
0,000186785812007765;
0,00011850846723057;
6,89381396870117E-5;
5,58799349131648E-5;
5,81082852568967E-5;
3,93195597842174E-5;
-1,7724686809212E-5;
-9,55509708777816E-5;
-0,000156573271259495;
-0,000174135807203981;
-0,000153320960081253;
-0,000124556496879265;
-0,000116341411100164;
-0,000130552837397347;
-0,000140963482571023;
-0,000115876403290806;
-4,59306949010438E-5;
4,56662372955749E-5;
0,000118494438904718;
0,000143259179332883;
0,000120808451212347;
7,79644020519337E-5;
4,51587368301026E-5;
3,45266803236251E-5;
3,50896165358051E-5;
2,66858923167519E-5;
-6,80222044512633E-7;
-3,83956548636708E-5;
-6,75685823787143E-5;
-7,56393660039561E-5;
-6,6549013189326E-5;
-5,61662788439809E-5;
-5,75896657559012E-5;
-6,92537886744203E-5;
-7,58837947668885E-5;
-6,12779781231083E-5;
-2,22020699460389E-5;
2,78173817391113E-5;
6,74669997773404E-5;
8,19337479213414E-5;
7,15391984434323E-5;
4,90733952759853E-5;
2,92969734553673E-5;
1,94231852502018E-5;
1,72113743586416E-5;
1,63102387828167E-5;
1,2941016224266E-5;
8,18258975907472E-6;
5,00533739590937E-6;
3,98120996523526E-6;
2,17320318516429E-6;
-3,87558163055218E-6;
-1,41816321362857E-5;
-2,43165348762119E-5;
-2,83928852757573E-5;
-2,34180602033161E-5;
-1,13407275506629E-5;
2,60593885877949E-6;
1,34109669564942E-5;
1,86045368142022E-5;
1,80710006416687E-5;
1,26733111630763E-5;
3,83829043807057E-6;
-5,45086847155774E-6;
-1,00915468018965E-5;
-4,7810554277179E-6;
1,19657298380209E-5;
3,49083972477955E-5;
5,36431626695921E-5;
5,86887719018534E-5;
4,79790865021263E-5;
2,84888736824759E-5;
1,11506668282577E-5;
2,7266791450786E-6;
1,16017160831528E-6;
-1,66288471712783E-6;
-1,20112928792314E-5;
-2,8108092427597E-5;
-4,12464907202618E-5;
-4,35228858277782E-5;
-3,54100363337038E-5;
-2,6038165991619E-5;
-2,51654446493814E-5;
-3,33987606565371E-5;
-3,9566168865234E-5;
-2,86846897659721E-5;
5,12086616494695E-6;
5,13995019478158E-5;
8,86995716869529E-5;
9,92521073167231E-5;
8,173869161899E-5;
5,17582880790402E-5;
2,92496797252297E-5;
2,2833296095462E-5;
2,38325995656473E-5;
1,49488476832915E-5;
-1,36206845570003E-5;
-5,42629205130602E-5;
-8,6913688629004E-5;
-9,50932402955988E-5;
-7,95575012375896E-5;
-5,76646789745291E-5;
-4,83955447441454E-5;
-5,5357572123024E-5;
-6,24618778195759E-5;
-4,68356556928495E-5;
9,93054829718425E-7;
6,63678666333055E-5;
0,000118898229298797;
0,000134127153609207;
0,000111372012776914;
7,32200694644699E-5;
4,68615090551619E-5;
4,23515586212731E-5;
4,55997711072875E-5;
3,18659616720092E-5;
-1,14756860015116E-5;
-7,20416441601572E-5;
-0,000120549132270622;
-0,000133569609353212;
-0,000112075079238;
-8,00539762989534E-5;
-6,39324248504294E-5;
-6,97804796157448E-5;
-7,76271197659605E-5;
-5,83218679757962E-5;
4,88529837837869E-7;
8,08451568020864E-5;
0,000145313974577682;
0,000164186667516293;
0,000137314354332422;
9,28027880511764E-5;
6,35201209754236E-5;
6,05814240999107E-5;
6,55703015167406E-5;
4,78723309593195E-5;
-7,32517870671281E-6;
-8,38290495136614E-5;
-0,000145061570065526;
-0,000162108376126025;
-0,000136098569381692;
-9,62176805734396E-5;
-7,47418610481903E-5;
-7,97178252030377E-5;
-8,82149949901639E-5;
-6,62459683789528E-5;
7,82624727106479E-7;
9,24123503333448E-5;
0,00016585390043881;
0,000187426160379616;
0,000157420829243315;
0,000108151781123286;
7,6765450137106E-5;
7,51069419487095E-5;
8,14066499545898E-5;
6,0572410872175E-5;
-3,83137597313607E-6;
-9,26615801823267E-5;
-0,00016376190808567;
-0,0001840369459067;
-0,000154722114248416;
-0,000108925890920425;
-8,33548554783087E-5;
-8,75973711768653E-5;
-9,65788155289663E-5;
-7,27515209976605E-5;
1,48064395683392E-7;
9,98696548642691E-5;
0,000179758945253273;
0,000203289657004148;
0,000171109758720281;
0,000118583355077714;
8,59012157396947E-5;
8,53513126412559E-5;
9,26731666285985E-5;
6,95304516234131E-5;
-1,63977235902927E-6;
0,00923392725790668;
0,0224518763413655;
0,0161721805922672;
0,00926418145198888;
0,0120505556219117;
0,00693596159153634;
0,00554105012054112;
0,00447969498272151;
0,000762537588912944;
0,00103121508412614;
-0,00108652313706129;
-0,00180385014517224;
-0,00259414177066513;
-0,00437415806124991;
-0,00476223698736233;
-0,00576405316300968;
-0,00584893157075616;
-0,00608207938960899;
-0,00691786018608751;
-0,00792075395665983;
-0,00945293092987942;
-0,0104302011205937;
-0,0107302168124985;
-0,0102871055147856;
-0,00933330030946569;
-0,00852514257140182;
-0,00792820516006708;
-0,00756456560992487;
-0,00712941458804539;
-0,0064210863389379;
-0,00556975568600932;
-0,00476617617459641;
-0,00423504462906812;
-0,00390674891800467;
-0,00353500839781756;
-0,00293093813552445;
-0,00213130850032047;
-0,00146719454396103;
-0,00128104542260343;
-0,00166371477896035;
-0,00233180670750427;
-0,00277933885904379;
-0,00262453381930243;
-0,00184106888921315;
-0,000754050604641603;
0,000219494993705763;
0,000864129231843571;
0,00126707414195294;
0,00168225986777229;
0,00227521396355198;
0,00297954106755498;
0,00357145159064923;
0,00388426203404196;
0,00396978642574427;
0,00405508409137486;
0,00433113438204181;
0,00475379439809539;
0,00503790745940416;
0,0048681850205005;
0,00416518953254204;
0,0031924268975708;
0,00240781154218503;
0,00216458164428637;
0,00248586243349163;
0,00307880444709261;
0,00356781334398216;
0,00375931128234888;
0,0037373915100721;
0,00373443957847185;
0,0039023462512933;
0,00418085731437197;
0,00436591623783527;
0,00430645373651016;
0,00404984044561137;
0,00380378236113419;
0,00374363001296796;
0,00383157012758845;
0,00381121785723837;
0,00339797680296924;
0,00252010726180129;
0,00141533115200186;
0,000496636909064308;
8,22592679941025E-5;
0,00019239245773614;
0,000562663779301264;
0,000854886429535136;
0,000895747928953471;
0,000762330680439057;
0,00066455584456985;
0,00073855567853533;
0,000928260534902599;
0,00104773445045227;
0,000959188935812731;
0,000704352091663123;
0,000470141618817729;
0,000414945367301683;
0,000505605471657887;
0,00051222237891873;
0,000178977100184419;
-0,000559497911392775;
-0,0108248908906412;
-0,0248780801880748;
-0,0189194017098054;
-0,011802720078968;
-0,0141239891685301;
-0,0086303021579344;
-0,00710740645679943;
-0,00607302641632755;
-0,00231009910720637;
-0,00232216758880365;
0,000187601784652897;
0,0012149015983041;
0,00206990583657595;
0,00370662592127812;
0,00394758635590065;
0,00498254993289732;
0,00526462315010577;
0,00562873326677393;
0,00626086498754953;
0,00664833537285669;
0,00736332717930256;
0,00769688623394875;
0,00781546408993748;
0,00766587448924315;
0,00723185081022718;
0,00685979526697667;
0,00646785681250333;
0,00616824194339151;
0,00586442988159115;
0,00547932117435423;
0,00507164416234706;
0,00463091292490972;
0,00423072777292105;
0,00383434229792454;
0,00338201252778014;
0,00285460905820618;
0,0022772730915131;
0,00177457159284621;
0,00144646887531886;
0,00131302128268444;
0,00127891868482179;
0,00117531730290119;
0,000879670632353341;
0,000376237734940754;
-0,000234008816020785;
-0,000811928386008001;
-0,00127223365259083;
-0,00161802865789814;
-0,00191389669136372;
-0,0022136115449083;
-0,00251757264535381;
-0,00278645498614124;
-0,00299211013561013;
-0,00315741012037212;
-0,00334013953787365;
-0,00357577420701682;
-0,00382760363626403;
-0,0039939281195579;
-0,00397662181917608;
-0,00376057485316643;
-0,00344217881275008;
-0,00317887900113251;
-0,00309309141268878;
-0,00319919433551298;
-0,00340460744605522;
-0,00358073541784813;
-0,00364779542419431;
-0,00361200809852644;
-0,00353501029769755;
-0,00346929157851049;
-0,00341655641701494;
-0,00334054463821319;
-0,00321626275410255;
-0,00306591362004641;
-0,0029449021132214;
-0,00288733137351147;
-0,0028592809511457;
-0,002765964447178;
-0,00251571377698864;
-0,00209488390523982;
-0,00159416993792627;
-0,00116124421877598;
-0,000910745411149665;
-0,000855890477373594;
-0,0009098160449124;
-0,000952029903424378;
-0,000907805383476275;
-0,000782834246810293;
-0,00063444960690622;
-0,000511278835681663;
-0,000414385447340684;
-0,000309373581537908;
-0,000172405474208082;
-2,36925394079426E-5;
8,56156780010332E-5;
0,00012428885162195;
0,000124504140856283;
0,000175091793056544;
0,000361912327585621;
0,000698190076777561;
0,0011001637762198;
0,00143124595303585;
0,00158570302975405;
0,00155208103874571;
0,00141178635732896;
0,00127728046948823;
0,0012184167708298;
0,00123041772869439;
0,00126068928757981;
0,00126480202514973;
0,00124243661342577;
0,0012260724972892;
0,00123832759293888;
0,00126098659752464;
0,00124719430190293;
0,00116851880277126;
0,00105511497273369;
0,000989409555209685;
0,00105099344415665;
0,00125235035661959;
0,00151650133667915;
0,00171784466378612;
0,00175932821874698;
0,00163081047471777;
0,00140760516222703;
0,00119346393445124;
0,00105277847840876;
0,000981221048685225;
0,000930527269714214;
0,000860014483029642;
0,000769572414728788;
0,000689183450494017;
0,000639691663710909;
0,000604388556583329;
0,000540262202919494;
0,000421205686650033;
0,000274820570086302;
0,000176565366281953;
0,00019922642799794;
0,000354091190421603;
0,000570581982743322;
0,000733724505725419;
0,000754757654975903;
0,000624415256851516;
0,000411466961282266;
0,000210536831685001;
8,01958713741415E-5;
1,62543944668061E-5;
-2,55164413448524E-5;
-8,23474976156075E-5;
-0,000154430087108219;
-0,000214546295069068;
-0,000243861502082485;
-0,000257787962334494;
-0,000295689922689099;
-0,000381526683037213;
-0,000490392173797245;
-0,000553891899049886;
-0,000506108239523473;
-0,000337021180792238;
-0,000110918659107315;
6,77047517156541E-5;
0,000118242710364105;
3,22389055222251E-5;
-0,000128050812852944;
-0,000277035358932182;
-0,000361870759540688;
-0,000386564601362952;
-0,000391311432779507;
-0,000409888325297169;
-0,000442516097061011;
-0,000464638740793257;
-0,000459320434414448;
-0,000440601507805909;
-0,000444152928304959;
-0,000491713078969701;
-0,000560908728513207;
-0,000590155713722913;
-0,000520139334246066;
-0,000341939475715604;
-0,000113541041192756;
7,0952710164013E-5;
0,000139033947178425;
8,31537443920155E-5;
-4,06746739793838E-5;
-0,00015554457508935;
-0,000214051710968998;
-0,000219873477816507;
-0,000209127324065337;
-0,000212094015112684;
-0,000228900909362877;
-0,000237461516678484;
-0,00022256180686392;
-0,000196780423417121;
-0,000192074187285494;
-0,000227905050310593;
-0,00028424332965896;
-0,000305997584891109;
-0,000240140680946702;
-7,87075630960114E-5;
0,00012652094832552;
0,000291582954112268;
0,000351872939184136;
0,000300779575190165;
0,000188345980529766;
8,31608374488107E-5;
2,74509023752734E-5;
1,79262654096767E-5;
2,24574292418268E-5;
1,41753638392874E-5;
-6,92511791833237E-6;
-2,11061807080999E-5;
-1,47810650750205E-5;
9,06677468819305E-7;
-2,40393899676417E-6;
-4,19680621668394E-5;
-9,99913951931749E-5;
-0,000127600607847752;
-7,77870460770994E-5;
5,65084856306857E-5;
0,000229451636201395;
0,000366782402333621;
0,000411437285038768;
0,000357674113403276;
0,000249801512687688;
0,000148439420626773;
9,08553931245089E-5;
7,41153398107736E-5;
6,98739428215223E-5;
5,44851288185458E-5;
2,80223434618412E-5;
7,94685899570822E-6;
6,26064141152824E-6;
1,31551282810965E-5;
3,66036361404427E-6;
-3,74126149486988E-5;
-9,44293063243509E-5;
-0,000124459053650551;
-8,62409229315092E-5;
2,63942930241119E-5;
0,000173222230320765;
0,000289145658402742;
0,000324205325317622;
0,000273434702717603;
0,00017566732331437;
8,39438069183072E-5;
3,08112761070194E-5;
1,36468646115926E-5;
7,65416038891822E-6;
-7,80159998557915E-6;
-3,26102230816755E-5;
-5,14955664762392E-5;
-5,39815000460506E-5;
-4,86418903787513E-5;
-5,72709852086493E-5;
-9,31317940222385E-5;
-0,000142645885718146;
-0,000168498079772844;
-0,000134853405675575;
-3,63931064439907E-5;
9,19207079414439E-5;
0,000193586698643954;
0,000225299317854636;
0,000182798098368221;
9,97584439314242E-5;
2,20982495515603E-5;
-2,2066400848447E-5;
-3,50672720422376E-5;
-3,83778418541402E-5;
-4,98194584831392E-5;
-6,92576054613005E-5;
-8,34698734667381E-5;
-8,341132575756E-5;
-7,64997236036183E-5;
-8,15565456293971E-5;
-0,000110040938559077;
-0,000150291182525638;
-0,000170230335417222;
-0,00013908020852272;
-5,23063548375127E-5;
6,0044582852552E-5;
0,00014948859420267;
0,00017892056258784;
0,000144737226426112;
7,58144571151837E-5;
1,14501280274329E-5;
-2,43480372147055E-5;
-3,36263831754704E-5;
-3,47580528027766E-5;
-4,29433947552808E-5;
-5,80212181404257E-5;
-6,86709875278042E-5;
-6,71678418275282E-5;
-5,98456269435195E-5;
-6,27563670989293E-5;
-8,56748723017992E-5;
-0,000118703933571658;
-0,000134606594303488;
-0,000107273725520338;
-3,28838851088789E-5;
6,30743434845114E-5;
0,00013953761004399;
0,000165135361833377;
0,000136873788688208;
7,92005956114766E-5;
2,53109223730298E-5;
-4,56658534447688E-6;
-1,22026947036133E-5;
-1,31028615905405E-5;
-2,00473136388813E-5;
-3,28489648867113E-5;
-4,19374460144918E-5;
-4,07992954825906E-5;
-3,47643850817962E-5;
-3,73296621655549E-5;
-5,67143989257367E-5;
-8,4637736804718E-5;
-9,83046071819568E-5;
-7,58886247630352E-5;
-1,42174498490397E-5;
6,54071564935516E-5;
0,00012872979204737;
0,000149635851265052;
0,000125686522218351;
7,72703786360446E-5;
3,19948942862469E-5;
6,63345739097212E-6;
-3,27920532966936E-7;
-1,76969216588943E-6;
-8,26139296779359E-6;
-1,9597225632144E-5;
-2,781077465112E-5;
-2,7497521777359E-5;
-2,30706865692923E-5;
-2,56941759572503E-5;
-4,21674383422819E-5;
-6,5683826736212E-5;
-7,74979161015431E-5;
-5,96860072272821E-5;
-9,66711522294239E-6;
5,5067738129388E-5;
0,000106455490788373;
0,000123157101631616;
0,000103231783940405;
6,33733730774646E-5;
2,61104074950097E-5;
5,07883580546533E-6;
-1,00103645048462E-6;
-2,62850034006796E-6;
-8,37208091247969E-6;
-1,80156592040645E-5;
-2,50530767902248E-5;
-2,50886627091371E-5;
-2,17068031006159E-5;
-2,39591382087135E-5;
-3,73603101659598E-5;
-5,64382805945427E-5;
-6,61110044275816E-5;
-5,19835015374533E-5;
-1,20097498577814E-5;
3,97598246064224E-5;
8,08498346623478E-5;
9,42262394662244E-5;
7,83922567061916E-5;
4,6706370444546E-5;
1,71183585024948E-5;
4,38962246896582E-7;
-4,39856744881056E-6;
-5,74989136142864E-6;
-1,03857752327677E-5;
-1,80856153473757E-5;
-2,36607206620193E-5;
-2,36244671769118E-5;
-2,08164080860007E-5;
-2,23896626331956E-5;
-3,27039602254546E-5;
-4,74839853267857E-5;
-5,49331230563985E-5;
-4,38195285673898E-5;
-1,25757405110785E-5;
2,7830369200624E-5;
5,99258771475299E-5;
7,05275192024903E-5;
5,85328893734249E-5;
3,43161270960413E-5;
1,17348946554013E-5;
-9,21495687863924E-7;
-4,52632728278703E-6;
-5,51999763553521E-6;
-9,07015772351397E-6;
-1,49551947871257E-5;
-1,91639005740256E-5;
-1,90206876760687E-5;
-1,6700097647737E-5;
-1,76618474401589E-5;
-2,52349445492178E-5;
-3,62069080429269E-5;
-4,17016561894623E-5;
-3,32978821939987E-5;
-9,85183427649354E-6;
0,00935384163518944;
0,0226741783307174;
0,0164252406872186;
0,00947691410574055;
0,0121955113912489;
0,00703580844840408;
0,00563525864040426;
0,00458053221044499;
0,000837539419712597;
0,00102673500904797;
-0,0105339215435557;
-0,0246348469774431;
-0,0191929226476395;
-0,013998063257695;
-0,0170685557398683;
-0,0128991932018925;
-0,0116009017441127;
-0,0107939607934344;
-0,00785694086120585;
-0,00895949660283525;
-0,00814363815374571;
-0,00821929235312723;
-0,0076740285422945;
-0,00552341115601301;
-0,00430100395950542;
-0,00256629624797846;
-0,00188738949528189;
-0,00127500752623964;
-5,5187076429436E-5;
0,00149928587225334;
0,00366753514012966;
0,00527626720500651;
0,00605730199993124;
0,0060108409914575;
0,00553665670024714;
0,00539319291165831;
0,0055866851553128;
0,0058665779788087;
0,0056725838077658;
0,00474937707479192;
0,00345896384589848;
0,00239117966692776;
0,00206966677647576;
0,00245341111069863;
0,00305166605734343;
0,00334910772277003;
0,00319402175546201;
0,00294963226666378;
0,00312654229652433;
0,00394259750804212;
0,00509624803243389;
0,0059606226387483;
0,00606700148769082;
0,00543763289698809;
0,00454549471361218;
0,00391112058709039;
0,00368220716853182;
0,00354366851283527;
0,00301245170794649;
0,00188086833989666;
0,000428447609879713;
-0,000768136024526668;
-0,00127021871457173;
-0,00110386338471525;
-0,000709420211454557;
-0,000564679553509436;
-0,000793505859893468;
-0,00108194488102918;
-0,000967337897581145;
-0,000256013125062496;
0,000776737206756342;
0,00157140274108518;
0,00170300758400885;
0,00119286087035047;
0,000463276726925766;
-2,15835572011401E-5;
-0,000130081981792026;
-0,000147197408811686;
-0,000505662848575611;
-0,00139229399971014;
-0,0025577538011304;
-0,0034869428881296;
-0,00378933068885391;
-0,00348922299754256;
-0,00298120248377839;
-0,00269281640255874;
-0,00273551711418002;
-0,00283051818815316;
-0,00256645578647409;
-0,00177184307052422;
-0,000692521837530932;
0,000173194999102696;
0,00044713485615286;
0,000148206351372526;
-0,000348609921764754;
-0,00063169150893487;
-0,000585107127696948;
-0,000462646068445408;
-0,000648619570401618;
-0,00130862467749674;
-0,00222132524489855;
-0,00293012646179249;
-0,00308928789043106;
-0,00272073800242277;
-0,00217411998801372;
-0,00182796271784796;
-0,00178103389826509;
-0,00178716333719888;
-0,00148321221625863;
-0,000717953683953398;
0,000291690188208088;
0,00110651505273377;
0,00139368443475425;
0,00117042938855941;
0,000767321404892104;
0,000546650233462996;
0,00061010891031104;
0,000734256744647726;
0,000581391930178863;
6,57460254004506E-6;
-0,000795032930962616;
-0,00142195994560072;
-0,00157052050310118;
-0,0012599253094716;
-0,000796760462598073;
-0,000512706665129827;
-0,000494176185170983;
-0,000525577607586174;
-0,0002891288610222;
0,000347494975950389;
0,00119493297314176;
0,00186999363465512;
0,00208275177448751;
0,00184890456121131;
0,00145716973995845;
0,00122338858048918;
0,00123593525918321;
0,00130005268030169;
0,00112196016805964;
0,000576102857921923;
-0,000167109135764209;
-0,000758184541071351;
-0,000933070425864063;
-0,000708474705653648;
-0,000350575259452625;
-0,000147128752858086;
-0,000173060914141535;
-0,000241611283667654;
-7,76821634528345E-5;
0,000433189018210338;
0,00112731559976516;
0,00167378687494576;
0,00182262945055867;
0,00158785984869743;
0,00121881393698838;
0,000987714659431232;
0,00097034076641342;
0,000998591112816982;
0,000819522672414136;
0,000325442477527658;
-0,000336603488656851;
-0,000865863886000588;
-0,00103544808898235;
-0,000859890279717398;
-0,00056785626100469;
-0,000406336995701876;
-0,000439723123205349;
-0,000508248401410219;
-0,00037667576092122;
5,27057134076161E-5;
0,00063992926987056;
0,00110249672410153;
0,00122735810786597;
0,00102678992593992;
0,000713433467570155;
0,000518949610424222;
0,000507373818538476;
0,000535251857911825;
0,000387390355555243;
-2,74826007526307E-5;
-0,000584086825527731;
-0,00102689213449013;
-0,00116345956757996;
-0,00100634760930337;
-0,000749562720626601;
-0,000602443947571294;
-0,000619672160077284;
-0,000666422521538775;
-0,000544253836745175;
-0,000170910611221043;
0,000335506463779472;
0,000737100704407754;
0,000854805419090736;
0,000699261050782555;
0,000449320250394408;
0,00029934855705497;
0,000302639554686526;
0,000338463879490453;
0,000226361744971348;
-0,000109848595490574;
-0,000564891358126441;
-0,000924755079529422;
-0,00102858832274452;
-0,000887076235284556;
-0,000662366419949899;
-0,000529210950560183;
-0,000533329710551405;
-0,000562682936615525;
-0,000452456803065373;
-0,00013447772082609;
0,000293212109006791;
0,000633539743067176;
0,000738523593029014;
0,000617328917675997;
0,000417985243660529;
0,000300874516573242;
0,000309574182533632;
0,00034417015379462;
0,000255934086276788;
-1,75363851587278E-5;
-0,000389189229786282;
-0,000682820845442136;
-0,000766307485215176;
-0,000648572584488207;
-0,000462711430915945;
-0,000351958373772755;
-0,000353834486545476;
-0,000376959839213348;
-0,00028702284434621;
-2,85955787791272E-5;
0,000318515733627899;
0,000594289034770053;
0,000678931542603408;
0,000580267174354932;
0,000418405694788935;
0,000322981278518756;
0,000328824247149947;
0,00035490524331968;
0,000281224472680774;
5,78314580401508E-5;
-0,000244723436967449;
-0,000484425320220272;
-0,000555104520987679;
-0,000464078183619712;
-0,000318194591272873;
-0,000232229913031147;
-0,000236296560393235;
-0,000257630262971973;
-0,000189398818543413;
1,23483965328648E-5;
0,000284218202463386;
0,000499513744894333;
0,000563769419767008;
0,000483571040575624;
0,000353914827940769;
0,000276812457157187;
0,000279257063026182;
0,000297188595399108;
0,000236382506100442;
5,8026657428583E-5;
-0,000182171282136461;
-0,000372882185296705;
-0,000431214255299944;
-0,000363051642414856;
-0,000251741525916039;
-0,000186590182828385;
-0,000191083600817871;
-0,000209105399925968;
-0,000158387083417862;
-5,23907222747236E-6;
0,00020158522115271;
0,000365105765568765;
0,000413416977973169;
0,000351967013816289;
0,000253347518269765;
0,000194960152835185;
0,000196833304670883;
0,000210026086251792;
0,000163244632842719;
2,75563945186894E-5;
-0,000154567719528648;
-0,000299105741400734;
-0,000343864466117803;
-0,000293457998042801;
-0,000210366819347289;
-0,000161291623220982;
-0,000163835997090121;
-0,000176636539065652;
-0,000139185761837113;
-2,68818797163666E-5;
0,000124472637101564;
0,000244172676405031;
0,000280239583869988;
0,000237094436150697;
0,000167525790666398;
0,000127212172059035;
0,000130057158448802;
0,000140480783561767;
0,000107416846680194;
1,06259881197462E-5;
-0,000119111905001844;
-0,000221849665348684;
-0,000253625836098369;
-0,000217931214781814;
-0,000158878378911857;
-0,000123278371828644;
-0,000123551418792784;
-0,000131279055718684;
-0,000105046266239218;
-2,82184576454309E-5;
7,47587351921618E-5;
0,000156201093976814;
0,000181572007469337;
0,000154380218303124;
0,000110081943047148;
8,53690767752472E-5;
8,88171492704409E-5;
9,65469231921172E-5;
7,51695440706034E-5;
1,20248554779062E-5;
-7,23308885397403E-5;
-0,000138967847793779;
-0,000159825021454082;
-0,000137406883044959;
-9,98134455672652E-5;
-7,65250849038636E-5;
-7,54366933976505E-5;
-7,93723541087498E-5;
-6,34985719859799E-5;
-1,8094235503425E-5;
4,22534260368867E-5;
8,98245851192355E-5;
0,000105192855113114;
9,1064292533491E-5;
6,78816152340283E-5;
5,59147182833895E-5;
5,91539825295745E-5;
6,38606843474639E-5;
5,19316699217084E-5;
1,72427583641198E-5;
-2,84985802915427E-5;
-6,45182983174796E-5;
-7,64767181166647E-5;
-6,6023493877415E-5;
-4,74517975202315E-5;
-3,53063851585935E-5;
-3,3575251606909E-5;
-3,4739661260311E-5;
-2,82085003558918E-5;
-1,01948784709553E-5;
1,31726970215982E-5;
3,12889358169605E-5;
3,76649223819684E-5;
3,43052354484298E-5;
2,87950175845034E-5;
2,73639782764277E-5;
3,01028881034393E-5;
3,19582963677612E-5;
2,78873146754619E-5;
1,73317795052226E-5;
4,42710780207151E-6;
-5,55276437149929E-6;
-9,96930408913687E-6;
-9,74221255639987E-6;
-7,40614565419037E-6;
-4,79309333298367E-6;
-2,56011003315075E-6;
-1,38055648009577E-6;
-2,74335123688228E-6;
-7,89198254693438E-6;
-1,57918283108838E-5;
-2,25681387137498E-5;
-2,3779414709284E-5;
-1,80286789664755E-5;
-8,59866012080943E-6;
-1,10394180909872E-6;
1,27596301137064E-6;
8,28252107076019E-7;
3,51785803964354E-6;
1,3459695302824E-5;
2,83949618459845E-5;
4,0544290311683E-5;
4,27049486556256E-5;
3,45717241846071E-5;
2,34835042037339E-5;
1,82763377669895E-5;
2,10938109200035E-5;
2,44154559261961E-5;
1,66572626069133E-5;
-7,62511265676172E-6;
-4,14218308940993E-5;
-6,87925617172839E-5;
-7,62032170465899E-5;
-6,2776630741467E-5;
-4,0840182568101E-5;
-2,58427790565169E-5;
-2,36595915599841E-5;
-2,58939592561473E-5;
-1,74498417571723E-5;
9,64629151830188E-6;
4,78204874327961E-5;
7,84777462620969E-5;
8,62739994113631E-5;
7,14136797358495E-5;
4,93891984403383E-5;
3,78393865854469E-5;
4,12247231290899E-5;
4,64032553005068E-5;
3,35042380255952E-5;
-6,36159713072662E-6;
-6,1289269754489E-5;
-0,000105467853059526;
-0,000117940052592242;
-9,82669783182724E-5;
-6,61630784632548E-5;
-4,50861858960716E-5;
-4,30864674605232E-5;
-4,67761772246212E-5;
-3,36307145660954E-5;
7,44490388223426E-6;
6,45421695718183E-5;
0,000110280533691823;
0,00012271591771522;
0,000102467849649256;
7,1624994474452E-5;
5,49405945132438E-5;
5,87538531548406E-5;
6,54089036401439E-5;
4,83822872600802E-5;
-3,97711945451389E-6;
-7,58437568355342E-5;
-0,000133516093053323;
-0,000150118415585533;
-0,000125575601580026;
-8,54947733940037E-5;
-5,96986853108222E-5;
-5,79450101337341E-5;
-6,28631683558845E-5;
-4,6032672967592E-5;
6,10054221050657E-6;
7,81768296865985E-5;
0,000135856551758437;
0,000151981505667725;
0,00012750135862922;
8,97021124369702E-5;
6,89350858764781E-5;
7,30240295126701E-5;
8,07914567615155E-5;
6,05252649313163E-5;
-1,5756750126749E-6;
-8,66376820720869E-5;
-0,000154840377704424;
-0,000174735324830536;
-0,000146544025062203;
-0,000100430469768542;
-7,11142593626765E-5;
-6,96445805401231E-5;
-7,55697549254608E-5;
-5,59419738483326E-5;
4,66145360282456E-6;
8,8218783531784E-5;
0,000155060725483776;
0,000174050557153458;
0,000146392337665933;
0,000103323220326282;
7,94420887438665E-5;
8,37054757923374E-5;
9,22956331074308E-5;
6,96124174515324E-5;
2,48106962190409E-7;
-9,46498605511705E-5;
-0,000170714107545393;
-0,000193116548854394;
-0,00016231537478465;
-0,000111847729197044;
-8,00304280753389E-5;
-7,88372413837298E-5;
-8,55348128137046E-5;
-6,38593620469227E-5;
2,95872270481749E-6;
9,49343074327853E-5;
0,000168509484442894;
0,000189661116814664;
0,000159780903230188;
0,000112956969126418;
8,68437328512262E-5;
9,12194526119283E-5;
0,000100401959466059;
7,60481857552059E-5;
1,62225595749663E-6;
-0,00010013551120458;
-0,000181692357563327;
-0,00020588855126947;
-0,000173365847481711;
-0,00011999515097701;
-8,65505364143281E-5;
-8,56096287680766E-5;
-9,28594920203454E-5;
-6,97824887000989E-5;
1,2814296230645E-6;
0,00943243083204238;
0,022806909495052;
0,0165726141552322;
0,00960170580442977;
0,0122887469146652;
0,00711794863387336;
0,00573103283636547;
0,00468849821661904;
0,000920911255200753;
0,00103523028960162;
-0,00129363053991746;
-0,00218013258709421;
-0,00302068563953981;
-0,00473375734029997;
-0,00501238797683919;
-0,00594665174932957;
-0,00603126151079234;
-0,00628014878577314;
-0,00706732668952672;
-0,00792086128795894;
-0,00924792493499361;
-0,0100609912279918;
-0,0103129082280096;
-0,00993487829731981;
-0,00908457203105965;
-0,00833558224976735;
-0,00773128285739812;
-0,00734854340958102;
-0,00696497904247184;
-0,00641468503603777;
-0,00577954166355069;
-0,00514922930888683;
-0,00466983488584617;
-0,00427376474694491;
-0,00379125403040801;
-0,00311947237418862;
-0,00232065342074051;
-0,00167307864635778;
-0,00143707679446384;
-0,00166660686250552;
-0,00212457170017843;
-0,00240382410241935;
-0,00219931707457232;
-0,00148177049491065;
-0,000500210020518092;
0,000412565711795939;
0,00106394527602558;
0,00148596758933262;
0,00184935886893508;
0,00228348706154112;
0,00277049110410448;
0,00318817082852881;
0,00344870214269584;
0,00360166256544064;
0,00379719210219981;
0,00414007426700565;
0,00456100298525481;
0,0048281198743431;
0,00470855545559005;
0,0041596452233557;
0,00339818780049208;
0,00278287275368537;
0,0025900227901127;
0,00284569200225982;
0,00333310724156059;
0,00376092159448952;
0,00395858504655461;
0,00395548082429483;
0,00390133707394194;
0,0039120652277214;
0,0039754371905939;
0,00398794990272733;
0,00387647125875305;
0,00368599715376358;
0,00354809613197198;
0,00355305083372219;
0,00363849533664368;
0,00360099258019177;
0,00323742757751838;
0,00251220885286597;
0,00161669128350507;
0,000865746093182071;
0,000501640784723693;
0,000547420464595194;
0,000813677460629078;
0,00104527092407128;
0,00109175544782383;
0,000976692910833488;
0,000828996101246936;
0,000749481015704138;
0,000728977846658053;
0,000679783687856882;
0,00054015665352469;
0,000349379601333366;
0,000219995015611341;
0,000227497015668363;
0,000315037095654907;
0,000304602378592604;
1,98959315783957E-5;
-0,000569339335350987;
-0,0012967631079644;
-0,00188959804293609;
-0,00213841326041344;
-0,0020236998706461;
-0,00170988245188647;
-0,00141867163311579;
-0,00128201473043067;
-0,0012820159182346;
-0,00130941813496996;
-0,00127781711651756;
-0,00119393254965229;
-0,00113115811417781;
-0,00114093771641724;
-0,00118940801341532;
-0,00118160212762212;
-0,00105546518588439;
-0,000862329670938004;
-0,000756235670320624;
-0,000888325880052968;
-0,00128376322755857;
-0,00179932233209943;
-0,00220114066777614;
-0,00231000246775834;
-0,00210931053649099;
-0,00173984481042675;
-0,00139175276771701;
-0,00117920091018037;
-0,00108889268289173;
-0,00102918821060567;
-0,000926567417168079;
-0,000785161297755174;
-0,000664874920407975;
-0,000607332662298162;
-0,000583238631454739;
-0,000513251564475159;
-0,000347004948327443;
-0,000130016472264864;
6,41783010721017E-6;
-6,51609902981485E-5;
-0,000364853818936853;
-0,00077042952539561;
-0,00108356425080037;
-0,0011525169525608;
-0,000962968856609257;
-0,000633485752250197;
-0,00032467421535875;
-0,000133812805460222;
-5,13119315471219E-5;
-1,28581946621565E-6;
7,82392305122313E-5;
0,000185645267791978;
0,000273455342706087;
0,000309121193838726;
0,0003179287946948;
0,000365210912486668;
0,000491021651930781;
0,000655550429442506;
0,000748601700551219;
0,000664530370681951;
0,000387891727462696;
2,16867823493875E-5;
-0,000268282083264331;
-0,000355386815752734;
-0,000227357663940214;
1,76000470240848E-5;
0,000245966523407257;
0,000376027454827718;
0,000414136449978575;
0,000421885894301605;
0,000450667046626897;
0,000500957595204774;
0,000536330121823681;
0,000532255402198237;
0,000510238774980855;
0,000522873851928279;
0,000600925570479984;
0,000709850499341656;
0,00075861698501874;
0,000661269719446995;
0,000406381875249387;
7,92594079258456E-5;
-0,000184029675857491;
-0,000279827889855984;
-0,000197878447739587;
-1,80445940831807E-5;
0,000150636475714769;
0,00024053739632465;
0,000255085917161463;
0,000242892028173263;
0,000245618148103549;
0,000265363759943588;
0,000275355403881323;
0,00025801244971754;
0,000231248213319811;
0,000236116925556576;
0,000295048908363537;
0,000378297860176644;
0,000412083105018864;
0,000328072297930777;
0,000118269739509548;
-0,00948159281329324;
-0,0229918251111579;
-0,0168134366016032;
-0,00980872902353852;
-0,0123997213302745;
-0,00711799561076727;
-0,0056498703729447;
-0,00458184830213323;
-0,000847603501568507;
-0,00103848109908228;
0,00119772144574839;
0,00200661251377424;
0,00281163510825568;
0,00454509364176958;
0,00489349950134613;
0,0059197883216558;
0,0060804459659225;
0,00635639608998134;
0,00710889879882962;
0,0078791620140112;
0,00910685680188583;
0,00984172000407929;
0,0100637605341423;
0,00971239371476728;
0,00893356669640681;
0,00827429829245906;
0,00774512297407627;
0,00739416307356208;
0,00698479143304505;
0,00635854144275978;
0,00562594178708614;
0,00491609144417819;
0,00440799444118308;
0,0040448569524317;
0,00364071085746384;
0,00305864773940584;
0,00232668461761684;
0,00170438265834095;
0,00145382299990942;
0,00164487065425066;
0,00205966420537008;
0,00230632505035135;
0,00209008633870495;
0,00138840629680517;
0,000451953135140603;
-0,000395221655609421;
-0,000982991579803927;
-0,00137398774231882;
-0,00176226400743223;
-0,00227667660286677;
-0,00286982314385337;
-0,0033737003822188;
-0,00366308174855663;
-0,00377940667273444;
-0,00389685106988804;
-0,00415956870887768;
-0,00452859825299473;
-0,00477854890066451;
-0,00466265454708147;
-0,00412023098829544;
-0,00336019579747272;
-0,0027445861144102;
-0,00255371743797199;
-0,00280823496006739;
-0,00327855270240571;
-0,00366700989960824;
-0,00381653327318989;
-0,00378818732415051;
-0,0037622894381427;
-0,00386004382904507;
-0,00403935997243531;
-0,0041462440208614;
-0,00406693688281677;
-0,0038406309700502;
-0,00362913372490839;
-0,00356595962701623;
-0,00361541182371161;
-0,00357017245178797;
-0,00320326120809307;
-0,0024595513052207;
-0,00153213218884956;
-0,00075476356097512;
-0,00038561074620453;
-0,000443519496724724;
-0,000717118778354977;
-0,000932445355465371;
-0,000944797985678733;
-0,000809877627499217;
-0,00069283226788579;
-0,000704567157695655;
-0,000806226584637177;
-0,000856431113264275;
-0,000750702681624426;
-0,000524560106924216;
-0,000325545201475711;
-0,000275002139365963;
-0,000339302034502339;
-0,000327954362066127;
-3,28004050234505E-5;
0,000596939140485288;
0,00138516329377515;
0,00202745998866117;
0,00228874634228847;
0,00215261842640992;
0,0018127896190093;
0,00151998253623206;
0,00140695265779846;
0,00142374269760912;
0,00142064985760182;
0,00129729940088852;
0,00108950885419466;
0,000926233423026735;
0,000902800966091159;
0,000987352368709358;
0,00104644108924865;
0,000970627114507225;
0,000791238613369154;
0,000681805104722894;
0,000831566564615782;
0,00128674390085172;
0,00188777756528776;
0,00235895410116704;
0,00248759971371773;
0,00225924677943695;
0,00184966246212959;
0,00148611386403061;
0,00128905184636795;
0,00121364992359767;
0,00112488155018672;
0,000932204495189468;
0,000667930557110606;
0,000448301718070686;
0,000359158658202739;
0,000371715127193459;
0,000365797517014373;
0,000243053941793353;
3,19766277341336E-5;
-0,000111059592080041;
-1,58218713822119E-5;
0,000359004035784167;
0,000869595159026952;
0,00126783095113633;
0,00136245486749501;
0,00114042066989148;
0,000759539615833543;
0,000423789166674624;
0,000241231712222393;
0,000171654780490817;
9,39536232316964E-5;
-7,31775273226668E-5;
-0,00030111624619806;
-0,000486211206770176;
-0,000552051424048918;
-0,000524663096326044;
-0,000511584983400246;
-0,000600664341521965;
-0,000766377003977522;
-0,00086912987197223;
-0,000757199460069056;
-0,000394092986854848;
9,15164365821401E-5;
0,000478099508534403;
0,000595006652813276;
0,00043049519053427;
0,000125006697010774;
-0,000139962058441353;
-0,000268297210610435;
-0,000295768026134815;
-0,000330064482992498;
-0,000443566219917393;
-0,000611123800000227;
-0,000741082232661186;
-0,000765974221558139;
-0,000709074468753576;
-0,000665718836785278;
-0,00071361431176154;
-0,000830006697131476;
-0,000891275773748987;
-0,000763281748484506;
-0,00041398328711706;
4,26037463704275E-5;
0,000410525366343286;
0,000538959062279991;
0,000417532556991295;
0,000170230409594401;
-4,27727270634516E-5;
-0,000136628290797674;
-0,000142740475659162;
-0,000155885908629437;
-0,000239801806156462;
-0,000372487483592513;
-0,000473533144365963;
-0,000483811369106833;
-0,000423836349059562;
-0,000377233816116675;
-0,000411987076401379;
-0,00050788147626616;
-0,000556348013858152;
-0,000439798745484933;
-0,000130276838258586;
0,00960565349018584;
0,0232257989256667;
0,0170820460916318;
0,0100360339957321;
0,0125548348182033;
0,00722307214374127;
0,00574640100323766;
0,00468495962360084;
0,000926864909715484;
0,00104079361851882;
-0,0013029866778807;
-0,00219855597071416;
-0,00302957287502969;
-0,00473159739782469;
-0,00503295269076232;
-0,0060403080115087;
-0,00621765620434833;
-0,00650979425946293;
-0,00722853757389635;
-0,00789596118607094;
-0,00898389446903113;
-0,00960586544078937;
-0,00979194194278618;
-0,00948266054913853;
-0,00877879383511678;
-0,00817349399268886;
-0,00765646533209105;
-0,00730046108039248;
-0,00691324209464645;
-0,0063591816976596;
-0,0057280304631692;
-0,00509986854972545;
-0,00461596311411269;
-0,00422327322758863;
-0,00377640053904721;
-0,00318001644721368;
-0,00246784380570821;
-0,00186271866318112;
-0,00157782922880223;
-0,00166487034390431;
-0,00193877856414563;
-0,00207162291719427;
-0,00181876176519158;
-0,00115915105040995;
-0,000298842437502883;
0,000491889688669368;
0,00106470076744147;
0,00145940149277957;
0,00182727904829287;
0,00227453463178968;
0,0027728252250133;
0,00320035719182112;
0,00346738414392704;
0,00361123405419904;
0,00376714079712483;
0,00404008127473986;
0,00438697674762117;
0,0046191322148443;
0,00453751036344642;
0,00409853541452623;
0,00347827070461522;
0,00297559906950343;
0,00282137426325057;
0,00303444224946369;
0,00342871548654995;
0,00375945655200976;
0,00389185831650538;
0,0038660133897478;
0,00382144897201275;
0,00385719520469347;
0,00394850491907358;
0,00398457440189787;
0,00388472516427203;
0,00368380040779404;
0,00350659231057382;
0,00345001525285777;
0,0034756425165669;
0,00341229756738669;
0,00307906854507338;
0,00243680713002111;
0,00164618092667019;
0,000979372200532292;
0,000646349718004345;
0,000663926199763087;
0,000862658619165412;
0,00102002583526943;
0,00101367820009898;
0,000880198065877769;
0,000746188382967006;
0,000701102328188561;
0,000721738762170025;
0,000706756371482034;
0,000582272717872662;
0,000379323651607652;
0,000210584614297432;
0,000163484652277446;
0,000202864394197183;
0,000173388473214085;
-8,90855733451873E-5;
-0,000620529979857597;
-0,0106098649635572;
-0,02444147365036;
-0,0184105686190723;
-0,011373591881522;
-0,0138428400264753;
-0,00846412192199866;
-0,00697948569012181;
-0,0059436313369438;
-0,00221361753753289;
-0,00233381322672395;
2,28036409185808E-5;
0,00092805566422717;
0,00174967951191737;
0,00343269511158837;
0,00373372534141286;
0,00477886459586775;
0,00501808774743251;
0,00535090074864881;
0,00604359179244058;
0,00660977856560672;
0,00756361147373938;
0,00808890314097048;
0,008269808469941;
0,00805127288694328;
0,0074900407459665;
0,0070202966268268;
0,00659717871756571;
0,00629940400300294;
0,00596509943420426;
0,00548182717655184;
0,00493582162929494;
0,00438454003959201;
0,00395300503874844;
0,00359703527862864;
0,0031989216287679;
0,00268288896090629;
0,00207004356168664;
0,0015402357213246;
0,00126305012472315;
0,00128187242588318;
0,00145189974746728;
0,00151222468284725;
0,00126972122994725;
0,000707396457862779;
-1,07374290531672E-5;
-0,000670331568977991;
-0,00115526297742933;
-0,00149872510809811;
-0,00182237157870484;
-0,00221021481419701;
-0,00263779563993275;
-0,00300568404875329;
-0,00324019342789712;
-0,00337021979325932;
-0,00350403132227461;
-0,00372705361634727;
-0,0040073120896385;
-0,00419640768404151;
-0,00413654638302717;
-0,00379211529805523;
-0,00330113594796074;
-0,0028990893889333;
-0,00276814461244751;
-0,00292340059675218;
-0,00321849816737967;
-0,00346124855896838;
-0,00354663152733494;
-0,0035076775360973;
-0,00345533840105861;
-0,00346763925218517;
-0,00352400423998387;
-0,00353549975419626;
-0,00343717768393435;
-0,00325599525693001;
-0,00309084701091267;
-0,00301945844648047;
-0,0030131644862735;
-0,00293834190212635;
-0,00265284949370522;
-0,00212520219812361;
-0,00148054119066579;
-0,000931703347242993;
-0,000643153404391911;
-0,000628373769744868;
-0,000755251801788796;
-0,000850343728643497;
-0,000818736411769116;
-0,000689798723989369;
-0,0005629745639387;
-0,000508121885404571;
-0,000506505029546212;
-0,000478036949956191;
-0,000364175428143893;
-0,000188752422066588;
-3,99215168027732E-5;
1,33934167140378E-5;
-2,24434511757746E-6;
3,36885920003969E-5;
0,000249098275372707;
0,000672561705313638;
0,00119238366059675;
0,00161852992501616;
0,0018044726022866;
0,00173887881677999;
0,0015406112867413;
0,00136541018147136;
0,00129879587319964;
0,00131527844746172;
0,00132679214202576;
0,00127158713021863;
0,00116677983632659;
0,00108403592064249;
0,00107578235667243;
0,00112118664940355;
0,00114235565897701;
0,0010786734038777;
0,000954462438474508;
0,000877403952595105;
0,000961470666063828;
0,00123219388237581;
0,00159051566612735;
0,00186797014350443;
0,00193486287705482;
0,00178149716994509;
0,00151357960555193;
0,00126941834493065;
0,00112506218644078;
0,00105825163845681;
0,000991320276025012;
0,000869788010979439;
0,00070874941208082;
0,00057136118551746;
0,000503748002158012;
0,000487462873173769;
0,000453900149269748;
0,000349847124407201;
0,000196974705615167;
9,02399687608474E-5;
0,000129896932441367;
0,000338160546993428;
0,000627593608085298;
0,000849836490441826;
0,000890783370559405;
0,000741879487122816;
0,00049593652823521;
0,000274334472450197;
0,00014377558421027;
8,47242349085033E-5;
2,90544767278984E-5;
-7,11141906113182E-5;
-0,000202856072429296;
-0,00031129147903787;
-0,000356461595306711;
-0,000354756167378478;
-0,000366205060134032;
-0,000437229670139433;
-0,000548851040046314;
-0,000618277316528305;
-0,000558310292036052;
-0,000349937472184349;
-6,9694766501662E-5;
0,00015295561806487;
0,000218539664675137;
0,000119527672412004;
-6,34446683260449E-5;
-0,000224946726221735;
-0,000307073122730824;
-0,000326792200652812;
-0,000343242934145026;
-0,000398063580679658;
-0,000480295634500604;
-0,000542736126250606;
-0,000551110084871451;
-0,000519784142581742;
-0,000500670205783685;
-0,000533755934107205;
-0,00060250621899253;
-0,000635418804779142;
-0,000557387391857968;
-0,000352251663831622;
-8,62085765604435E-5;
0,00012907879160295;
0,000207931785347176;
0,000143897584833442;
6,3657140887149E-6;
-0,000113993564025977;
-0,000167358331022968;
-0,000168183897526257;
-0,000167113146374917;
-0,000199840384890375;
-0,000257097314664543;
-0,000298676006363496;
-0,000295442799272589;
-0,000259752917299894;
-0,000235864894418769;
-0,000257698616302841;
-0,000310903081219576;
-0,000334362430739401;
-0,000264083113234933;
-8,6433890663806E-5;
0,00947552207894741;
0,0229561461910163;
0,0167664736730548;
0,00977175818988501;
0,0123896248211262;
0,00714168440396393;
0,00570172689810639;
0,00464503529026255;
0,000899517121129343;
0,00105922214999147;
-0,00121691429525507;
-0,00205904053893363;
-0,00287770421164732;
-0,00460105777888808;
-0,00492202734183943;
-0,00591677501460193;
-0,00605477779247345;
-0,00632369863203979;
-0,00708362501652116;
-0,00786945492516574;
-0,00911376534128902;
-0,00986111452023081;
-0,0100882943311778;
-0,00973253126199267;
-0,0089390185642851;
-0,00825757591986479;
-0,00770666721182158;
-0,00734563216616034;
-0,00694665285520768;
-0,00635133092915834;
-0,0056594122292538;
-0,00498306302231729;
-0,0044874519473445;
-0,00411286690371872;
-0,0036823469742148;
-0,00307347252276262;
-0,00232505129661871;
-0,00169832428023858;
-0,00144959878161585;
-0,00164195043462924;
-0,00205518775538733;
-0,0022997544833995;
-0,00208341469137156;
-0,00138211127635213;
-0,000441461637967455;
0,00041772649184303;
0,00102136593632816;
0,00142103876610681;
0,00179957254662248;
0,00228343602630638;
0,00283555759700804;
0,00330585737973289;
0,0035835355982488;
0,00371187995703442;
0,00385402268867863;
0,00413878316338124;
0,00451840833957084;
0,00477008980572933;
0,00465660865767456;
0,00412437976040973;
0,00338063425457718;
0,00277884303435864;
0,00259201353590592;
0,00284171703743211;
0,00330694023770393;
0,00369828015793004;
0,00385808556531883;
0,00383667592826496;
0,00380128295108944;
0,00386881641908991;
0,0040069886120844;
0,00408030045712243;
0,00398970900728376;
0,00377533563353489;
0,00358640069398603;
0,00354059793043066;
0,00359523863048621;
0,00354911879905418;
0,00318782939471201;
0,00246350398482604;
0,00156421105585897;
0,000810040876069823;
0,000447953533122372;
0,000497208900716204;
0,000757828943228633;
0,000968185169349543;
0,000985839846600313;
0,000856160360940808;
0,000729841816632516;
0,000711959329526006;
0,00077287465361826;
0,000789913749922905;
0,000673345381684645;
0,000458835806136674;
0,000280229907821003;
0,000242871252835899;
0,000307745011252114;
0,000293342141905801;
6,4271737891306E-6;
-0,000596485212405546;
-0,0106804654773312;
-0,0245882740368713;
-0,0185829880940911;
-0,0115188698865;
-0,0139346334012942;
-0,00850997679516654;
-0,00700443967456902;
-0,00596527219733271;
-0,00222881414184744;
-0,00232592893198711;
6,49847193670024E-5;
0,000997539489163325;
0,00182595755175045;
0,00349927928197505;
0,00379226244750844;
0,00484625846231658;
0,0051077825319439;
0,00545377082983929;
0,00612552491561421;
0,00663026546778482;
0,00750267406557871;
0,00796232233212752;
0,00812097123699522;
0,00792549130010251;
0,00741003886800881;
0,00697976738850735;
0,0065747497099415;
0,00627992665686404;
0,00595102023482105;
0,00548713092056953;
0,00497000145002104;
0,00444175650440295;
0,00401605356466622;
0,00365216286638561;
0,0032477076809546;
0,00273972477800694;
0,00214624221050498;
0,00162788359071884;
0,001333045398613;
0,0012997425816908;
0,00140062820913175;
0,00140512826070085;
0,00114353250344687;
0,00060053268397756;
-7,8914194163587E-5;
-0,000705003473112359;
-0,00117442864471947;
-0,00151527569702554;
-0,00183447268740079;
-0,00220630730888427;
-0,00260996921293515;
-0,00295873038291171;
-0,0031883055357247;
-0,00332466495111236;
-0,00346331183252417;
-0,00367909172759812;
-0,00394274428149707;
-0,0041220204567;
-0,00407682833994379;
-0,0037759889748315;
-0,00334289462591959;
-0,00298767330694381;
-0,00287292435576734;
-0,00301228738227247;
-0,00327522519705662;
-0,00348998198135553;
-0,00356228589216133;
-0,00352106823331928;
-0,00346517029274028;
-0,00346455129560898;
-0,00350152586812699;
-0,00349747646247295;
-0,0033950761307465;
-0,00321883853732698;
-0,00305722680899025;
-0,00297940757292187;
-0,0029590859928516;
-0,00287597978986617;
-0,00260247553570937;
-0,00211067364828895;
-0,0015136637317476;
-0,00100346533887531;
-0,000728476293010736;
-0,000700929494886467;
-0,000801598974561275;
-0,000873736763876344;
-0,000831291339670907;
-0,000700435684380951;
-0,000570867463827977;
-0,000505884190969926;
-0,000488964214902023;
-0,000448190038601479;
-0,000331039953335402;
-0,000159341040819015;
-1,29196183032473E-5;
4,60435498411573E-5;
4,20635766415196E-5;
8,48672704439067E-5;
0,000290700406025634;
0,000685316878196269;
0,00116674112610917;
0,00156165820585053;
0,00173644220457199;
0,00168081549850721;
0,00150339733198734;
0,00134660186945841;
0,00128879561518301;
0,00130688228616153;
0,00132042211313746;
0,00127287030768142;
0,00117972732914634;
0,00110640430062541;
0,00110073492794288;
0,00114349569558347;
0,0011632390583774;
0,00110447449382798;
0,000989775397311093;
0,000918312365318029;
0,000994967132491404;
0,0012431273647189;
0,00157136247050596;
0,00182425340871244;
0,00188217117847427;
0,00173629574266278;
0,00148445049541056;
0,0012546311197024;
0,00111726578247508;
0,00105178262363445;
0,000986255984212323;
0,000870200615089708;
0,000717618859748316;
0,0005871064344785;
0,000521456267822009;
0,000503476083882304;
0,000469337617536556;
0,000369525226628393;
0,000224236012684616;
0,000121953153469949;
0,000156122336757124;
0,000347415287085859;
0,000614160781764673;
0,000817783015027565;
0,000851720868311489;
0,000708133195721014;
0,000474037727175258;
0,000263173670780335;
0,000137987724597712;
8,00167685945569E-5;
2,52144419168267E-5;
-7,13760354533201E-5;
-0,000197467234950101;
-0,000301256750908468;
-0,000345012886605783;
-0,000344184912018427;
-0,000355490653200524;
-0,000422903767785755;
-0,000528667528862585;
-0,000594665390303803;
-0,000538497680536104;
-0,000342169422027745;
-7,80915586720095E-5;
0,000131184430041289;
0,000191509255037958;
9,59190415602161E-5;
-7,89124504686302E-5;
-0,00023284844159259;
-0,000311034534673854;
-0,000329896655753265;
-0,000345943758781782;
-0,00039882959733007;
-0,000477844954248263;
-0,00053757755248259;
-0,000545022206843069;
-0,000513881213456172;
-0,000494028776144302;
-0,00052408619596032;
-0,000588512595512646;
-0,000618907737565068;
-0,000543211467244326;
-0,000345825356697592;
-9,0254157362502E-5;
0,000116244642745107;
0,000191380914923262;
0,000129134688883766;
-3,47629614789988E-6;
-0,000119034567304422;
-0,000169716336204249;
-0,000169885719537973;
-0,000168807034787721;
-0,000201005312560552;
-0,000257132614182256;
-0,000297668720023839;
-0,000293929567264104;
-0,000257846302333779;
-0,000232735763863936;
-0,000252076669440167;
-0,000302307293528524;
-0,000324051864690178;
-0,000254851386418036;
-8,124605495623E-5;
0,00947515548942983;
0,0229509593204435;
0,0167589185023863;
0,00976460080394598;
0,0123846241360212;
0,00713910203884885;
0,00570073694058072;
0,00464452436892066;
0,000898682921895669;
0,00105773198251251;
-0,00121903958310376;
-0,00206153449992079;
-0,00288005646024686;
-0,00460254059666186;
-0,00492190222528577;
-0,00591464334919201;
-0,00605084755968631;
-0,00631875259586176;
-0,007078692294652;
-0,00786540580930842;
-0,00911107206820893;
-0,00985984615513039;
-0,0100882264057819;
-0,00973323034432897;
-0,00893990234892127;
-0,00825806835818345;
-0,00770650142503813;
-0,00734514115714966;
-0,0069467566416095;
-0,00635307268950486;
-0,00566325773641222;
-0,00498845466605939;
-0,00449301070384091;
-0,00411717212013966;
-0,00368474644522732;
-0,00307430305996812;
-0,00232509491234255;
-0,00169795389966272;
-0,00144835111417663;
-0,00163892823294263;
-0,00204998518364277;
-0,00229311003002032;
-0,00207697077253579;
-0,00137739359569249;
-0,000438882299473363;
0,000418997211258824;
0,00102250500655939;
0,0014223708276606;
0,00180009197790095;
0,00228151931067058;
0,00283033737750848;
0,0032981260262717;
0,00357537885782366;
0,00370527802030826;
0,00384954630006476;
0,0041354847498012;
0,00451503637038421;
0,00476661960425683;
0,00465474656090994;
0,00412649105740332;
0,00338785601520798;
0,00278988901488724;
0,00260370331825167;
0,00285090680028582;
0,00331239037821305;
0,00370101956192263;
0,00386003519811178;
0,00383870582810792;
0,00380233001742865;
0,00386679416442004;
0,00400070512256961;
0,00407073228378178;
0,00397950288200306;
0,00376691153225898;
0,00358025312242027;
0,00353528174477948;
0,00358912707124083;
0,00354247885744954;
0,00318338373229732;
0,00246481398318827;
0,00157301151106834;
0,000824607546181866;
0,000463865560672881;
0,000510013244382074;
0,000765610233198321;
0,000972122981218239;
0,000988449369338455;
0,000858755208341756;
0,000731325812852631;
0,000709888000578766;
0,000765800753412867;
0,000778953054914842;
0,000661575526596722;
0,000449009956359492;
0,000272771804353518;
0,000235940131278475;
0,00029942324946156;
0,0002841368269301;
-1,2719828697921E-7;
-0,000595876145416294;
-0,0106704809018952;
-0,0245709780196406;
-0,0185637749152574;
-0,0115032242720853;
-0,0139250096557267;
-0,00850508736559876;
-0,00700130908594145;
-0,00596223489506638;
-0,00222697845154086;
-0,00232800421951126;
0,00939079160845536;
0,023615305685119;
0,0181857881605366;
0,01292151805476;
0,0159532046583644;
0,0118642387181114;
0,0107325414335539;
0,0100252520426513;
0,00695778894149555;
0,00766265927985345;
0,00632305504550044;
0,00598969231750211;
0,00533552897164115;
0,00338960752396392;
0,00253374342521567;
0,00112948650549838;
0,000637059542467512;
0,000100808428692256;
-0,00104044612070236;
-0,00243561456441945;
-0,00438686078871164;
-0,00581375829589357;
-0,00651611543416729;
-0,0064679241624151;
-0,00596911615967946;
-0,00569969576802433;
-0,00569556418881769;
-0,00584235647360147;
-0,00572454276854758;
-0,00511945262409705;
-0,0135969055532707;
-0,0261623561213277;
-0,0196588312134343;
-0,0129039889210837;
-0,0159000817597151;
-0,0107515832630389;
-0,00903366421676385;
-0,00766720809426856;
-0,00403373234151465;
-0,00490592262000259;
-0,00365339832093153;
-0,00356683279170852;
-0,00280203866238089;
-0,000440155456851457;
0,000789657622306256;
0,00248370020444215;
0,00294982414853834;
0,00342245701858626;
0,00467138704227973;
0,00642222140513212;
0,00889133294493301;
0,010655031816247;
0,0113351042525295;
0,0109010174936386;
0,00986992084421396;
0,00918028209954397;
0,00892625686248578;
0,00886929229816647;
0,00837074268218645;
0,00711429412065198;
0,00546416139980375;
0,00404910786305025;
0,00342778464879244;
0,00353109660670233;
0,00380589990327549;
0,00370236822583565;
0,00311498949737989;
0,00252817861849154;
0,00256475459869312;
0,0034594450039655;
0,00480013195103201;
0,00578023799397339;
0,00579261093036208;
0,00484310539639568;
0,00351021104676774;
0,00246184761618014;
0,00194004234763327;
0,00162879115357058;
0,000980507141560694;
-0,000270569809879147;
-0,00185116281167151;
-0,00315132009259942;
-0,00371025264435666;
-0,00357941033488395;
-0,00325556754302765;
-0,0032463561630654;
-0,00363153966343287;
-0,00399010432204493;
-0,0037599398073063;
-0,00273541019833953;
-0,00129356800846115;
-0,000156587252511559;
0,000124474951554117;
-0,00044506734560017;
-0,00134986551165268;
-0,00199405291953438;
-0,00216027070451628;
-0,00213234554726418;
-0,00239915835568975;
-0,00320015522874617;
-0,00429468243791617;
-0,00514222521926709;
-0,00533595156065016;
-0,00492364717207468;
-0,00434840565563865;
-0,00406120105685464;
-0,00413155614106796;
-0,00418441400523651;
-0,00372054314408223;
-0,00255914222659987;
-0,00103761070700978;
0,00020058805022155;
0,00066489802745701;
0,000359627792328416;
-0,000257788498255647;
-0,000658038625426032;
-0,000647020140914139;
-0,000474613141762554;
-0,000572660274801072;
-0,00115318984211472;
-0,00200469793295963;
-0,0026514195496321;
-0,00273572324672373;
-0,00230049501023648;
-0,00173597551107111;
-0,00143790035206946;
-0,00146506064945984;
-0,0014850004068274;
-0,00105730300991404;
-2,34297445803547E-5;
0,00131829736434912;
0,00240053225011803;
0,00279135252913953;
0,00249492716929605;
0,00191435891739861;
0,00151628353788024;
0,00147317647857453;
0,00156778903004893;
0,00142278759914907;
0,000852632040976372;
4,17717861609609E-5;
-0,000594746166110886;
-0,000745324102670514;
-0,00044785528974626;
-4,24722939460309E-5;
0,000127214023856258;
1,23610441884847E-5;
-9,49669698246355E-5;
0,000190088460781446;
0,00100515068311939;
0,00208889439122995;
0,00294581985943636;
0,00319921113654719;
0,00285290224966271;
0,00225850560504701;
0,00182324659516444;
0,0016987911154927;
0,00169811478550773;
0,00149471138648698;
0,000927614903153659;
0,000155661700318687;
-0,000463237117003451;
-0,000660837393605165;
-0,000470626213148893;
-0,000186205627119212;
-0,000102930247645633;
-0,000260962113673054;
-0,000406625706219841;
-0,00020748388026345;
0,000454243973195896;
0,00135163554752607;
0,00205614693564236;
0,00224236568543396;
0,00191343380639457;
0,00137242996050697;
0,000970626442754432;
0,000839758581947054;
0,00082049964309164;
0,000633311394488493;
0,000139832170754625;
-0,000525123070986138;
-0,001056916614818;
-0,00122772810453605;
-0,00106711180608886;
-0,000825702499875326;
-0,000754407687868921;
-0,000885749133340211;
-0,00100204593989567;
-0,000819723332500944;
-0,000239471182537044;
0,00054372358479775;
0,0011634264370534;
0,00134174829999693;
0,00108108883611304;
0,000639413752911826;
0,000315992163344219;
0,000223902049307941;
0,000229251590118294;
9,58177550216863E-5;
-0,000293872678941673;
-0,000827086833661485;
-0,00124820029800236;
-0,00136652731848508;
-0,0012078937983949;
-0,000983324900064249;
-0,000902868106705932;
-0,000992146106967311;
-0,00106671486537616;
-0,00088795185897508;
-0,000373385823686208;
0,000311613350690032;
0,000857969358994865;
0,00103166343933993;
0,000834512237791477;
0,000483064563094858;
0,000228812940182862;
0,000167670332604516;
0,000189065081288826;
9,65442462283944E-5;
-0,000208084913867777;
-0,000632108606066287;
-0,000964532394089758;
-0,00104841821063411;
-0,000906002505232994;
-0,000712006580884061;
-0,000639141460271238;
-0,000706789421691553;
-0,00076090267080154;
-0,000603847158080593;
-0,000168350471025404;
0,000407488619301782;
0,000867162839695717;
0,00101684357244761;
0,000857911923551072;
0,00056919004643617;
0,000358611202003498;
0,000306401207677219;
0,000323175665832537;
0,000248679372048539;
2,34153415431854E-6;
-0,000341165481458601;
-0,000611207342174222;
-0,000681321015354346;
-0,000570376408647116;
-0,000420140240554065;
-0,000369534977059371;
-0,000432404386645983;
-0,000482342813620524;
-0,000358860727079681;
-8,36135218940733E-6;
0,00045589952697063;
0,000825145622442193;
0,000942009337043809;
0,000807499200123828;
0,000566277570713711;
0,000386809261218865;
0,000335026743937147;
0,000340571746119406;
0,000275805781710533;
7,60718784578604E-5;
-0,000200146327566633;
-0,000418479998051135;
-0,000479823839766436;
-0,000399977906812559;
-0,000291093044491264;
-0,000261816738047435;
-0,000321174042178467;
-0,000367746654783281;
-0,000274483924951756;
-3,94383208394402E-8;
0,000364737723820157;
0,000654022007867572;
0,000743222283626625;
0,000633000270029631;
0,000437307903278611;
0,000289107466258982;
0,000241383875043451;
0,000240695849604385;
0,000188530935865203;
3,44680287208988E-5;
-0,000177428468379453;
-0,000345117194149037;
-0,000393858152474271;
-0,000336684886918038;
-0,000259363117385148;
-0,000243648780441052;
-0,000294422274549861;
-0,000332669330118944;
-0,000261192126613083;
-4,95226874572502E-5;
0,000231537024264133;
0,000454496377250984;
0,000523992185095216;
0,000440377710444523;
0,000290238481614802;
0,000174879946707658;
0,000135665943172562;
0,000134075722340735;
9,73949691430108E-5;
-1,21552225807749E-5;
-0,000163222470974479;
-0,000282311585780729;
-0,000316173550331333;
-0,00027535215280058;
-0,000222295962966106;
-0,000215071430450201;
-0,000255018906105168;
-0,000283022435661971;
-0,000228285032697548;
-6,98936090398485E-5;
0,000139149868835226;
0,000305290310221857;
0,000359019043580804;
0,000300437235099369;
0,000191977949775809;
0,000106984350913103;
7,64939992933724E-5;
7,50355038623691E-5;
5,25496552635434E-5;
-1,76014286947414E-5;
-0,000115149409479901;
-0,000191553277190757;
-0,00021232557577572;
-0,000185776328917587;
-0,000153930979510249;
-0,000154178295992321;
-0,000184865143133064;
-0,000204378910681623;
-0,000165043709891635;
-5,42480454691089E-5;
9,06743370440186E-5;
0,000205937179520024;
0,000244695441783573;
0,000206855514653899;
0,000133743101253631;
7,42402147105714E-5;
5,02941945045693E-5;
4,77301192148051E-5;
3,61871577990278E-5;
-1,24761067775653E-6;
-5,38657153868896E-5;
-9,47124464186952E-5;
-0,000105506576861873;
-9,2572361434588E-5;
-8,02316667461982E-5;
-8,80174435184253E-5;
-0,000111785816077193;
-0,000125172133791901;
-0,00010054515255249;
-3,24297786719905E-5;
5,54932595463519E-5;
0,000125284274718842;
0,000149759545850312;
0,000128678035042813;
8,51084841737891E-5;
4,67517173783876E-5;
2,76259072021963E-5;
2,32166333539118E-5;
2,00963777488423E-5;
9,74620493207862E-6;
-5,27613161746023E-6;
-1,64760215501471E-5;
-1,94105204316951E-5;
-1,86599679441383E-5;
-2,33805349755985E-5;
-3,78747960135169E-5;
-5,59698840346488E-5;
-6,44455771108123E-5;
-5,28552554115424E-5;
-2,17868437092692E-5;
1,68426268917672E-5;
4,72785046964491E-5;
5,91969280947008E-5;
5,22476203143238E-5;
3,38889090355129E-5;
1,36887140241419E-5;
-1,1811309933923E-6;
-7,08735877902561E-6;
-3,08702147909436E-6;
9,45639381037843E-6;
2,62446424150352E-5;
4,01935026803968E-5;
4,40874171254423E-5;
3,48599141258886E-5;
1,61746424510579E-5;
-3,46040432799301E-6;
-1,62608131590205E-5;
-2,02013141901163E-5;
-1,93787148880631E-5;
-1,94590880086648E-5;
-2,23485279017366E-5;
-2,50032690808296E-5;
-2,34765640674119E-5;
-1,81944520504605E-5;
-1,48678139462532E-5;
-1,92476532144461E-5;
-3,00030092684584E-5;
-3,67370458554254E-5;
-2,64893044807691E-5;
5,39232477584424E-6;
4,89371376982157E-5;
8,41200001018512E-5;
9,40609709900591E-5;
7,69939007884821E-5;
4,72541398001752E-5;
2,39504460216791E-5;
1,61071444161477E-5;
1,63494858567587E-5;
8,45965676927291E-6;
-1,74075004113578E-5;
-5,47578902223915E-5;
-8,48547811812476E-5;
-9,18532514765039E-5;
-7,62244997258587E-5;
-5,46131156471551E-5;
-4,55104091164548E-5;
-5,2498704512675E-5;
-5,96727024277233E-5;
-4,41966169272756E-5;
3,55733534378834E-6;
6,90200469288263E-5;
0,000121622203839539;
0,000136630001740775;
0,000113381521547037;
7,49326666277154E-5;
4,89910573384814E-5;
4,54930186637784E-5;
4,93033414382598E-5;
3,42873974445031E-5;
-1,27649002050787E-5;
-7,84280662211571E-5;
-0,000131098026232867;
-0,000145188925151771;
-0,000121190134640495;
-8,4649753154047E-5;
-6,44557853217247E-5;
-6,82555509606458E-5;
-7,57649977469185E-5;
-5,62086413669541E-5;
4,07476688101319E-6;
8,68836127705178E-5;
0,00015326364717748;
0,000172256954064781;
0,000144126323001657;
9,88892176565399E-5;
7,10521703604087E-5;
7,11758594995215E-5;
7,78493589206562E-5;
5,70099269029753E-5;
-7,18705908448294E-6;
-9,57143778584068E-5;
-0,000166652116544893;
-0,000186620517417465;
-0,000156104666626764;
-0,000107728219631147;
-7,86638275759167E-5;
-7,98549897414417E-5;
-8,76481038658323E-5;
-6,50635666994451E-5;
4,74570211452625E-6;
0,000100806159641953;
0,00017770712048409;
0,000199720813161928;
0,000167871126544972;
0,000117563834065468;
8,84989254739221E-5;
9,16110804230706E-5;
0,00010054684402274;
7,50945044902956E-5;
-2,57567902782637E-6;
-0,000109028980475699;
-0,000194315152221562;
-0,000219003820485038;
-0,000183557829472228;
-0,000126044498771497;
-9,00336400952956E-5;
-8,90738718657145E-5;
-9,70358764955428E-5;
-7,22790223867557E-5;
4,47330628786747E-6;
0,000110235526769286;
0,000194847988174471;
0,00021909948686505;
0,000184627220220631;
0,000130830368590768;
0,000101183061873395;
0,000106778574997308;
0,000117508094036638;
8,85891683690942E-5;
7,79451577269082E-7;
-0,000119142182696913;
-0,000215224711434067;
-0,00024353451654855;
-0,000204498143143193;
-0,000140182207750892;
-9,88812452884149E-5;
-9,61327280782638E-5;
-0,000104115619320252;
-7,78876511427527E-5;
3,58864881103648E-6;
0,000115980547202857;
0,000205877463060835;
0,000231712392455887;
0,000195603768053777;
0,000139719056785577;
0,000110063805496831;
0,000117707082203272;
0,000129832764636582;
9,84751673511381E-5;
3,47949153082361E-6;
-0,000125969353229639;
-0,0002297053093739;
-0,000260652348971949;
-0,000219189976067811;
-0,000150117467292745;
-0,000104985647110573;
-0,000100775873295839;
-0,000108655938694274;
-8,15677221969347E-5;
2,70159950699372E-6;
0,00011904798557729;
0,000212111115183013;
0,000238946758834671;
0,00020203771790293;
0,00014525458060053;
0,000116057481181262;
0,000125338484172182;
0,000138490648672467;
0,000105572933680519;
5,95054822463437E-6;
-0,000129605210479192;
-0,000238269030735344;
-0,000271007488800471;
-0,000228145291649039;
-0,000156114859733675;
-0,000108446896276537;
-0,000103089248683503;
-0,000110782618772933;
-8,33763641084359E-5;
2,01020047395996E-6;
0,00011999467989015;
0,000214384572333559;
0,000241698019340502;
0,000204679726308552;
0,000147987506828155;
0,000119613623178473;
0,000130147587752659;
0,000143984696472617;
0,000110248545172478;
8,19384561558453E-6;
-0,000130530380986078;
-0,000241780433040637;
-0,000275586289962242;
-0,000232212830431529;
-0,000158782013805305;
-0,000109707283739895;
-0,000103489110466404;
-0,000110936072148031;
-8,36776120280814E-5;
1,39992225277509E-6;
0,000119052111780712;
0,00021320187503506;
0,00024054079579947;
0,000203986494990876;
0,000148206247306264;
0,000120944484001449;
0,000132387182048528;
0,000146610065272266;
0,000112685742178558;
1,00698365929772E-5;
-0,000129316460560907;
-0,000241152661234051;
-0,000275400795262239;
-0,000232263296463614;
-0,000158752258810442;
-0,000109232727445407;
-0,000102403126522063;
-0,000109553123445525;
-8,28260945996208E-5;
7,56699836901271E-7;
0,000116434974825599;
0,000209038677670914;
0,00023602601551791;
0,000200411091852968;
0,000146219740919304;
0,000120299160960184;
0,00013235282020143;
0,000146709105170852;
0,000113130962685227;
1,15332166618725E-5;
0,0092070328024247;
0,0223925963850721;
0,0161014511179073;
0,00920409734556478;
0,0120128852102211;
0,00691882003254082;
0,00553469975855627;
0,00447578369920135;
0,000759461478324811;
0,0010324756324262;
-0,00107799395859481;
-0,00178951787188999;
-0,00257837517445323;
-0,00435920908089338;
-0,0047449096529137;
-0,00573789036204971;
-0,00581079845813295;
-0,00603779124003447;
-0,00688166735761918;
-0,0079080639113169;
-0,00947097882225722;
-0,0104732042939789;
-0,0107824185664467;
-0,0103315023246174;
-0,0093600716571279;
-0,00853457027150021;
-0,00792725718516691;
-0,00756072815636846;
-0,00712650514447644;
-0,00641924016786316;
-0,01490148018059;
-0,0273942926537388;
-0,0206064785370413;
-0,0133371856444749;
-0,0156960381562374;
-0,00993832228211349;
-0,00773609517833705;
-0,00601456205798224;
-0,00209223811970026;
-0,00268417917206509;
-0,00115193301400168;
-0,000816333693612243;
0,000146469222378878;
0,00268178878901213;
0,00411580960172732;
0,00607235492222616;
0,00681218262179504;
0,00745962385865786;
0,00868350812912274;
0,0101980200133904;
0,0123241941217705;
0,0138050656361097;
0,0143917134578879;
0,0140704111912888;
0,0132632494091917;
0,0127735287656076;
0,0126068067300561;
0,0125224893758276;
0,0119391294359035;
0,0105947616004733;
0,00886351693111179;
0,00734933322539;
0,00659531188060419;
0,00655743647921248;
0,0067330433249295;
0,00659657745119456;
0,00599906985911916;
0,00532521965641598;
0,00510694878756679;
0,00556977424256521;
0,00639733486929494;
0,00693462767301649;
0,00669189376888454;
0,00569030918975717;
0,00442233784685324;
0,00343319985450759;
0,00288383916326386;
0,00245510176872122;
0,00164996655345434;
0,000251458833263263;
-0,0014575381665193;
-0,00288829893626611;
-0,00359319701276885;
-0,00360122424813876;
-0,00336493723682344;
-0,00337200127619066;
-0,00374304814289911;
-0,00414785100620686;
-0,00410638278712854;
-0,00342123450129521;
-0,00238339383737734;
-0,00157910420751362;
-0,00145442785797023;
-0,00199079731278311;
-0,00275067145065246;
-0,00324916782356001;
-0,00334298703090327;
-0,0033203774792396;
-0,00362624647827087;
-0,00445688129070358;
0,00377081949983307;
0,0162087500422358;
0,00973652752125384;
0,00319691062437466;
0,00654373554763214;
0,00178670314950873;
0,000449670735543788;
-0,00058680331370709;
-0,00392618441940684;
-0,0027705516202622;
-0,00372918903161663;
-0,00348837982742721;
-0,00388027274321462;
-0,00580659185994324;
-0,00653509991805355;
-0,00768352900399997;
-0,00760632135446838;
-0,00759760801212556;
-0,00846487794972823;
-0,00992814807005893;
-0,0121521293624046;
-0,0136405193291468;
-0,0139602015219143;
-0,0130689558894072;
-0,0115184239250631;
-0,0103055974487897;
-0,00957793419654124;
-0,00912517428178026;
-0,0083081193351659;
-0,00679035761716877;
-0,004907738673557;
-0,0032603259001969;
-0,00238262965987124;
-0,00219149444747041;
-0,00213720882471857;
-0,0016950334773948;
-0,000801054875506728;
1,82925463731987E-5;
0,000118086710316889;
-0,000725655835353724;
-0,00206011671218044;
-0,00302624521019925;
-0,00297635972960633;
-0,00190452239351828;
-0,000408475188600219;
0,000804830040150249;
0,00145200962393757;
0,00182072948791177;
0,00245152313497223;
0,00362479980028262;
0,00509777241355303;
0,00629667147474683;
0,00679041452437529;
0,00664281657266721;
0,00634037843577052;
0,00636130178776381;
0,00674858042403139;
0,00705238096120665;
0,00670144413597029;
0,00550358053890628;
0,00386546783238796;
0,00254320418010268;
0,00211415852701235;
0,00258371139178612;
0,00342889925936188;
0,00403043293215314;
0,00413900554243757;
0,00400911359608494;
0,00411515110886106;
0,00470514829060732;
0,00556906670835654;
0,00620713653290471;
0,00624526812399154;
0,00574090829573791;
0,00512017420937229;
0,00480032819058312;
0,00481765560593765;
0,00477873300456602;
0,00418520397712581;
0,00287085829672362;
0,00119214859800028;
-0,00019039235638653;
-0,000772978271452167;
-0,000551047609416733;
1,94962536011873E-5;
0,000398673001231649;
0,000368167218273849;
0,000147564792795441;
0,000147694174407784;
0,000583494126756364;
0,0012733140295028;
0,0017849891990946;
0,0017953730286492;
0,0013543290959977;
0,000829514645194662;
0,000579652252519136;
0,000633565644126927;
0,000649321315015045;
0,000195671145696425;
-0,00087063185879453;
-0,0115747857255581;
-0,0259761455936639;
-0,0201245122965317;
-0,0128874141143561;
-0,0150172779239364;
-0,00942499188403305;
-0,00793165838638694;
-0,00693788428743475;
-0,00306297128995065;
-0,00274725653878046;
0,000202647706502448;
0,0015812587714408;
0,00254767915386413;
0,00406240031337016;
0,00409462976425091;
0,00499686020817809;
0,00527324185910379;
0,0056693279598875;
0,00623041324966483;
0,00638107047123884;
0,00677008165488352;
0,00684869774159251;
0,0069025346306457;
0,00686670692851118;
0,00660020609154901;
0,00631994185334207;
0,00591742282774017;
0,00559915419671399;
0,0053988053486683;
0,00528862730148956;
0,00524404434261545;
0,00509413633681725;
0,00479243624704513;
0,00430731397482563;
0,00369518860710779;
0,00306593140152586;
0,0024859309360217;
0,00201073726550271;
0,00163083515147471;
0,00131720719294897;
0,0010334714121697;
0,00073416253962124;
0,000387982475019965;
-3,06336790065712E-5;
-0,000517029683782231;
-0,00103091064424946;
-0,00150589186707861;
-0,00187119263797729;
-0,00209104300100146;
-0,00218214304052146;
-0,00221009902259574;
-0,00225956394508152;
-0,00239473488188578;
-0,00263455441238467;
-0,0029478508555275;
-0,00327118700669767;
-0,00353539541403155;
-0,00368974919653735;
-0,0037178864691775;
-0,00364161222734283;
-0,00351403434189623;
-0,00340184040685819;
-0,00336090414953545;
-0,00341373881127503;
-0,00353891440521551;
-0,0036796161841269;
-0,00376823099515356;
-0,00375527294872016;
-0,00362848117038164;
-0,00341411730633824;
-0,00316303339740858;
-0,00293066549124256;
-0,00275984825518315;
-0,00266992897376698;
-0,00265144543966622;
-0,0026662386691977;
-0,00265579636113889;
-0,00256049826981715;
-0,00234608707261452;
-0,00202514716111291;
-0,00165884038971234;
-0,00133273593143802;
-0,00111661572663243;
-0,00103034352603858;
-0,00103614980155801;
-0,00106166047353945;
-0,00103853382652025;
-0,000932806096866879;
-0,000751160011546656;
-0,000525488863227042;
-0,000291882605738641;
-7,93178243500617E-5;
8,97017477404037E-5;
0,00019686532901826;
0,00023476985645601;
0,000221070215250115;
0,000205571635733322;
0,000255658099357014;
0,000420982392421442;
0,000697855418329388;
0,00102010260736562;
0,00128833988540637;
0,0014228676752743;
0,00140690507746686;
0,00129192156732929;
0,00116275584028913;
0,00108780786137032;
0,00108794186945632;
0,00114101282755694;
0,00121112467184177;
0,00127525039650655;
0,00132712271826603;
0,00136168223680859;
0,00136179791804666;
0,00130605550061965;
0,00119463385904048;
0,00106923029645488;
0,00100262235043213;
0,00105647474698104;
0,00123441443359031;
0,00146680642625474;
0,00164387579744988;
0,00167846919003853;
0,00155629589994593;
0,00133920266420609;
0,00112088275369262;
0,000968436318234747;
0,00089108651691377;
0,000853672151535708;
0,000817056712793146;
0,000769065725089054;
0,000722119804660008;
0,000685427718755298;
0,000642686338176896;
0,000560648918837303;
0,00042444246400807;
0,000267954585789919;
0,000167016703649554;
0,000192065162632572;
0,000352420448553164;
0,000576183591024468;
0,000746090937549242;
0,000769629082140158;
0,000634424796540499;
0,000409762897924925;
0,000195065222302819;
5,50673627986722E-5;
-1,11778312961767E-5;
-4,95033713504287E-5;
-0,000101467652816342;
-0,000170242806025802;
-0,000228178380548438;
-0,000254464298967642;
-0,000264665993630044;
-0,000301635159392775;
-0,000392802583420857;
-0,000511468179213106;
-0,000580479289466469;
-0,000523188346881359;
-0,000325735245744394;
-6,0955159837469E-5;
0,000149236572806816;
0,000209100446164248;
0,000107979853670325;
-7,96634881339325E-5;
-0,000251073218635683;
-0,000344432103706942;
-0,000369179029395027;
-0,000379405319584889;
-0,00041807872538725;
-0,000480761215977665;
-0,000527407275512729;
-0,000527732860807003;
-0,000496386956085988;
-0,000483566109277728;
-0,000526742058977737;
-0,000605540023719103;
-0,000642728996817521;
-0,000557468034793632;
-0,000332184923705219;
-3,93327571362786E-5;
0,000197146353962136;
0,000280291859490742;
0,000201131452634506;
3,74844898808272E-5;
-0,000106474630564558;
-0,000172145161154672;
-0,000175818471378058;
-0,000177604481899954;
-0,000220923496968297;
-0,000294925090062853;
-0,00034965440055923;
-0,00034721567386855;
-0,000301159927736255;
-0,000266995117999908;
-0,000289956132856641;
-0,000355164077251707;
-0,000386344596445629;
-0,000300215947573891;
-7,62515397393208E-5;
0,000214556928003003;
0,000448442096504611;
0,000528887379324892;
0,000448516183260665;
0,000286890420578973;
0,000147927691157568;
8,67533731532227E-5;
8,16342670033256E-5;
6,8339190200555E-5;
3,73481335163515E-6;
-9,60826061126116E-5;
-0,000173547293120194;
-0,000184897811918351;
-0,000142530228370145;
-0,000105565311196037;
-0,00012506339514456;
-0,000190949926250642;
-0,00022884308263453;
-0,000154606879884548;
5,44782956669162E-5;
0,000329681041379914;
0,000549167432278164;
0,000618172533171117;
0,000530740216628551;
0,000366720894494884;
0,000228301144066016;
0,000166889917359471;
0,00015649921461689;
0,000130354636716098;
4,61578407261459E-5;
-7,58656757218586E-5;
-0,000172635019326595;
-0,000196128662087941;
-0,000157612916135496;
-0,000118399981995692;
-0,000133718590402936;
-0,000197696227643728;
-0,000238643022556488;
-0,000172950060571987;
2,35882939089737E-5;
0,000285102668618323;
0,000493106612428698;
0,000555630099318099;
0,000467947616302681;
0,000308956728757292;
0,000177886145630648;
0,000122264825337397;
0,000112892401683368;
8,1799426014218E-5;
-1,20373248903102E-5;
-0,00014526147571728;
-0,000251113005912423;
-0,000278715826184144;
-0,000238241602048089;
-0,000191967617747745;
-0,000197836333826638;
-0,000253603088658895;
-0,000290889695366385;
-0,000227751503368705;
-3,90975099666044E-5;
0,000212541699234694;
0,000413179079032424;
0,000474491123780206;
0,000392826284388952;
0,000245124500043292;
0,000126692923328848;
8,11202985564801E-5;
7,69341013547893E-5;
4,61376343159218E-5;
-5,0644492642427E-5;
-0,000187783066591465;
-0,000296406366844361;
-0,000323979296665142;
-0,000279601898268673;
-0,000225453557412635;
-0,000220910809690518;
-0,000266801209336017;
-0,000298507406709801;
-0,000236656240519664;
-5,57671336964084E-5;
0,000185338538317042;
0,000378092264409219;
0,000438497380581122;
0,000363849444075998;
0,000228336620020431;
0,000122611614501067;
8,63452689924251E-5;
8,66277125414452E-5;
5,6427460160431E-5;
-4,16808428645165E-5;
-0,000180533143564068;
-0,000290476829780721;
-0,00031833209962141;
-0,000272152617697584;
-0,000213122468000936;
-0,000200951696050529;
-0,000239022621024041;
-0,000266793690390108;
-0,00020818031020225;
-3,77289918925013E-5;
0,000189708052319814;
0,00037167547690826;
0,000429014064333976;
0,000359849837352143;
0,000234996330897243;
0,000139906316878149;
0,000110407593713633;
0,000112871457565155;
8,20472270561312E-5;
-1,73170556556994E-5;
-0,000157164462354498;
-0,000268189713749598;
-0,000297430558385458;
-0,000251934931786475;
-0,000191159171927027;
-0,000174224992093614;
-0,000206603789427179;
-0,000232039561569815;
-0,000178294917766978;
-2,02983287826262E-5;
0,000191220993454196;
0,000360408211303739;
0,000413293974346499;
0,000348720243802449;
0,000233648014537281;
0,000147942602488708;
0,000123700386277258;
0,000127179148445295;
9,55598811942635E-5;
-4,0861172803922E-6;
-0,000143364994760998;
-0,000254264270913739;
-0,000284764304708223;
-0,000240962252063556;
-0,00018000446257012;
-0,000159666386286663;
-0,000187093351140526;
-0,00021043354058776;
-0,000161714159641338;
-1,65427132235349E-5;
0,000178538686665441;
0,000334584133488298;
0,000383030995924057;
0,000323328340352519;
0,000218237521376555;
0,000141789627948254;
0,000122493630523027;
0,000126999028130426;
9,54257213575173E-5;
-2,74174599527154E-6;
-0,000139244570042942;
-0,000248137737490542;
-0,000278939720741451;
-0,00023685872448584;
-0,000176278639152787;
-0,000153014485375911;
-0,000175514213418455;
-0,000196366339674502;
-0,000152151255408683;
-1,93953372067032E-5;
0,000159538916228825;
0,000302773070499289;
0,000347255701728961;
0,000292944624749169;
0,00019817304859834;
0,000131016461305623;
0,000116569390657791;
0,000122291041969618;
9,1623549980528E-5;
-3,49321033987765E-6;
-0,000135326940521778;
-0,000240617387951561;
-0,000270896510874877;
-0,000230547357161385;
-0,00017085134797503;
-0,000145175603849703;
-0,000162939110415697;
-0,000181135033037052;
-0,000141071454284;
-2,03801765270005E-5;
0,00014269037245277;
0,00027336153086844;
0,000314103265844517;
0,000265295077036189;
0,000180717069218361;
0,000122475334259377;
0,000112445393913678;
0,000119235658759685;
8,98850029404399E-5;
-1,20971509849295E-6;
-0,000127160982675108;
-0,000227869914546911;
-0,000257249979763978;
-0,000218923787828154;
-0,000160829690322691;
-0,000133513004291381;
-0,000147070745962794;
-0,000162806078518458;
-0,000126831903046791;
-1,80253971489858E-5;
0,000129365047390103;
0,000247585769709904;
0,000284558186969014;
0,000241006011565795;
0,000166118627601806;
0,000116108056928804;
0,000109841121124539;
0,000117343179066494;
8,9428099675661E-5;
2,91629083971529E-6;
-0,000116403166766514;
-0,000211945911356927;
-0,000240280971317396;
-0,000204336279235417;
-0,000148554399326876;
-0,000120386633182876;
-0,000130352764035144;
-0,000143924428316559;
-0,000112014940531401;
-1,48468021534818E-5;
0,000117177654084444;
0,000223165379722859;
0,000256352174771861;
0,000217736600378604;
0,000151952379306566;
0,000109465413513083;
0,000106352713963569;
0,000114259643282341;
8,78694301505799E-5;
6,36299027511231E-6;
-0,000105765561724749;
-0,000195691710462522;
-0,00022283198644915;
-0,000189485805268198;
-0,000136523474105039;
-0,000108119555585772;
-0,000114997011888711;
-0,000126617574830081;
-9,86225936508756E-5;
-1,26450923638122E-5;
0,000104573293969777;
0,000198762956326012;
0,000228282614598032;
0,000194343938928815;
0,000137120280042972;
0,000101538007945428;
0,00010110729228494;
0,000109239534386459;
8,45102053460542E-5;
8,37391808733591E-6;
-9,61159515712913E-5;
-0,000180046054884216;
-0,000205800645847001;
-0,000175115915082132;
-0,000125278123550625;
-9,70797054966892E-5;
-0,000101260004855958;
-0,000111063901538983;
-8,67322322657552E-5;
-1,13433375053598E-5;
9,18132618342358E-5;
0,000174797018217139;
0,000200855615251809;
0,000171359611911508;
0,00012216659420721;
9,29164121733893E-5;
9,47759000729363E-5;
0,000103019064688462;
8,00766509055364E-5;
9,57181661704553E-6;
-8,69836540510479E-5;
-0,00016465771182395;
-0,000188860438085028;
-0,000160828082871094;
-0,000114305087649989;
-8,66623473525867E-5;
-8,84986860310899E-5;
-9,66140103244448E-5;
-7,56746315043972E-5;
-1,02127477040771E-5;
7,97094915546719E-5;
0,00015214281281931;
0,000174957846868556;
0,000149637034537603;
0,000107906124658728;
8,44068032409597E-5;
8,8183496302233E-5;
9,64267225159573E-5;
7,53360927174116E-5;
1,05844321746874E-5;
-7,79197971828792E-5;
-0,000149226898649178;
-0,000171777929467565;
-0,000146369791039947;
-0,000103291856499608;
-7,65098413937271E-5;
-7,63524422635769E-5;
-8,29320071847619E-5;
-6,51307196427564E-5;
-8,92102116270014E-6;
6,86273221215113E-5;
0,00013118704050177;
0,00015096265506622;
0,000129508070345728;
9,46312926360643E-5;
7,62895937558631E-5;
8,16204965808006E-5;
8,97484324255603E-5;
7,05152761327058E-5;
1,15147566019249E-5;
-6,89761462080847E-5;
-0,000133933377229934;
-0,000154789766079242;
-0,000131960359566227;
-9,24023075696786E-5;
-6,67390557432055E-5;
-6,49243790708213E-5;
-7,01319816221769E-5;
-5,52236201516815E-5;
-7,58004663382458E-6;
5,84811447924024E-5;
0,000111864305359792;
0,000128803511541431;
0,000110889689212293;
8,22492210691372E-5;
6,84853129164293E-5;
7,50364097112661E-5;
8,29473621946642E-5;
6,55438015223756E-5;
1,22050979951009E-5;
-6,04230142245836E-5;
-0,000119137934355252;
-0,000138288539971094;
-0,000117962124156756;
-8,1934931100667E-5;
-5,75891674191821E-5;
-5,44212655183917E-5;
-5,84117677594316E-5;
-4,61467856296305E-5;
-6,36858271163215E-6;
4,91162923520467E-5;
9,40413637299702E-5;
0,000108357479211461;
9,36635201383242E-5;
7,06553205850591E-5;
6,09214811879618E-5;
6,8399725997341E-5;
7,60161839250476E-5;
6,03972959237888E-5;
1,25692755341413E-5;
-5,24293998563105E-5;
-0,000105075172984561;
-0,000122527734618627;
-0,00010459706443949;
-7,20514469627336E-5;
-4,9163334122239E-5;
-4,49093263825568E-5;
-4,78230886395884E-5;
-3,7947687842476E-5;
-5,32826551122115E-6;
4,05013137713064E-5;
7,76970189065205E-5;
8,96111000446963E-5;
7,78262323357742E-5;
5,9867642242453E-5;
5,36515030354997E-5;
6,1802450943303E-5;
6,90678626256428E-5;
5,51742437730348E-5;
1,2654924152897E-5;
-4,50153735366856E-5;
-9,18197551576356E-5;
-0,00010760024353072;
-9,19360928811868E-5;
-6,27761347207967E-5;
-4,14381221717663E-5;
-3,63339106279312E-5;
-3,83008905803764E-5;
-3,05653129170157E-5;
-4,40745410629814E-6;
3,26789709053808E-5;
6,28679714731697E-5;
7,26002017848996E-5;
6,34223875848389E-5;
4,99527418627129E-5;
4,6774543184337E-5;
5,53752964376758E-5;
6,22470244003294E-5;
5,00035755704329E-5;
1,25468664856776E-5;
-3,81529086310332E-5;
-7,93905124323166E-5;
-9,35441953096599E-5;
-8,0005121981934E-5;
-5,41014382314109E-5;
-3,43687396439709E-5;
-2,86245989943196E-5;
-2,97679520458661E-5;
-2,39330553042818E-5;
-3,5608765822714E-6;
2,56707455641365E-5;
4,95572370746674E-5;
5,73211584060241E-5;
5,045748083864E-5;
4,09402062263463E-5;
4,03521291243483E-5;
4,92072860030125E-5;
5,56529863304778E-5;
4,49707300931362E-5;
1,2295492316952E-5;
-3,18355573936789E-5;
-6,78177257941548E-5;
-8,04067105265011E-5;
-6,88442587223418E-5;
-4,60423010830975E-5;
-2,79389715872079E-5;
-2,17413300030761E-5;
-2,21772399316405E-5;
-1,8016568953014E-5;
-2,78197556081243E-6;
1,94504696326337E-5;
3,77132522346694E-5;
4,37141565134764E-5;
3,88840630461626E-5;
3,28110923327135E-5;
3,43991745161591E-5;
4,33398899497848E-5;
4,93370933849389E-5;
4,01175697891185E-5;
1,19182705775397E-5;
-2,60759428968864E-5;
-5,71393795700626E-5;
-6,82380583978534E-5;
-5,8499093968452E-5;
-3,86244766797543E-5;
-2,21470698397627E-5;
-1,56586014283257E-5;
-1,54946097716694E-5;
-1,27944482349344E-5;
-2,08078229590353E-6;
1,39696340614361E-5;
2,72577753483831E-5;
3,16924444985154E-5;
2,86311588089769E-5;
2,55269472704557E-5;
2,89128205764878E-5;
3,77961562778355E-5;
4,33321858312096E-5;
3,54715847771454E-5;
1,14277780797736E-5;
-2,08794349688279E-5;
-4,73762943820627E-5;
-5,70674357009856E-5;
-4,89963204656521E-5;
-3,18597853099988E-5;
-1,69811283530087E-5;
-1,03415435729642E-5;
-9,67572490964722E-6;
-8,23546781322515E-6;
-1,46065349980627E-6;
9,18149963286254E-6;
1,81104478170245E-5;
2,11663428783946E-5;
1,9626705334161E-5;
1,90503361581064E-5;
2,38913612681904E-5;
3,25985260396347E-5;
3,76694350449606E-5;
3,10612565810691E-5;
1,08448530828368E-5;
-1,62335980867482E-5;
-3,85238489738584E-5;
-4,68960712820862E-5;
-4,03373965838688E-5;
-2,5740061081374E-5;
-1,24136117082981E-5;
-5,74150828515175E-6;
-4,6627476780188E-6;
-4,29583272081357E-6;
-9,15329220040112E-7;
5,04468957989332E-6;
1,0192743235937E-5;
1,20467039423648E-5;
1,17997630633884E-5;
1,33455183924204E-5;
1,93337144245589E-5;
2,77676368394457E-5;
3,23766055143788E-5;
2,69133774364468E-5;
1,01943395279884E-5;
-1,21143546286535E-5;
-3,05597160158279E-5;
-3,77056914018635E-5;
-3,25069238225123E-5;
-2,02451508734808E-5;
-8,40922848964961E-6;
-1,80420219498284E-6;
-3,92795650912958E-7;
-9,2748731063952E-7;
-4,36381271780627E-7;
1,51696963351832E-6;
3,42273180735685E-6;
4,23994920573882E-6;
5,07510345469848E-6;
8,37239448418872E-6;
1,52330422739348E-5;
2,33160224986398E-5;
2,74719523867337E-5;
2,30467454198653E-5;
9,49795463514628E-6;
-8,49423932792898E-6;
-2,34529357124074E-5;
-2,94676801991213E-5;
-2,5481180912684E-5;
-1,53505374340204E-5;
-4,93189503440664E-6;
1,52360655577182E-6;
3,19553976428608E-6;
1,91593212741077E-6;
-1,8033916997119E-8;
-1,4481288629234E-6;
-2,28708991431917E-6;
-2,35354795483875E-6;
-6,28462888604815E-7;
4,0845687484867E-6;
1,15747858972201E-5;
1,9246497086134E-5;
2,29629948502799E-5;
1,94709176060829E-5;
8,77245234413137E-6;
-5,34514275510481E-6;
-1,71673463378581E-5;
-2,21465205453654E-5;
-1,92309207362898E-5;
-1,10292894175032E-5;
-1,94605782359821E-6;
4,29303809421013E-6;
6,16129180911424E-6;
4,27863277143812E-6;
3,43288959265505E-7;
-3,89967308902738E-6;
-7,0271976300355E-6;
-7,83647088465551E-6;
-5,39525312484629E-6;
4,31852376720621E-7;
8,33906473046967E-6;
1,55547325096001E-5;
1,88492795244675E-5;
1,61887935619278E-5;
8,0314873635432E-6;
-2,63744407296946E-6;
-1,16614810966409E-5;
-1,5699889662251E-5;
-1,37211093001046E-5;
-7,25121093278082E-6;
5,84553453606395E-7;
6,55440599964444E-6;
8,56237104423656E-6;
6,20411587509692E-6;
6,51017638303562E-7;
-5,88646205848577E-6;
-1,08875339070435E-5;
-1,23108911097999E-5;
-9,30932452947312E-6;
-2,63676677909824E-6;
5,50340965771273E-6;
1,22320218734349E-5;
1,51251836870161E-5;
1,31991117215965E-5;
7,28732808496023E-6;
-3,39338679223404E-7;
-6,88874403449359E-6;
-1,00791391935371E-5;
-8,91117513989167E-6;
-3,98265730275412E-6;
2,69737738272466E-6;
8,35765078808878E-6;
1,04558860495219E-5;
7,73557532829562E-6;
9,09257579128627E-7;
-7,45558258499098E-6;
-1,39555918838367E-5;
-1,58762637310535E-5;
-1,24527481995213E-5;
-5,17177636643922E-6;
3,04391790719503E-6;
9,2664628323071E-6;
1,17811231781231E-5;
1,04973575257571E-5;
6,55105980615342E-6;
1,5824674841642E-6;
-2,79884651159902E-6;
-5,23100330570287E-6;
-4,7565117934375E-6;
-1,18764700472415E-6;
4,43018917692904E-6;
9,751557767674E-6;
1,18972881232185E-5;
8,91513073632616E-6;
1,12240088532628E-6;
-8,65226619293888E-6;
-1,63158373885982E-5;
-1,86287442611299E-5;
-1,49051145971392E-5;
-7,22288591059606E-6;
9,35424459304675E-7;
6,64322241060714E-6;
8,80387978145949E-6;
8,07589631416725E-6;
5,83214682756062E-6;
3,16154239428802E-6;
6,60383548951616E-7;
-1,09958574886604E-6;
-1,21024494579054E-6;
1,17078787149467E-6;
5,82006029201133E-6;
1,0782791285597E-5;
1,29394099420464E-5;
9,78297980752088E-6;
1,29459674669516E-6;
-9,51994771101551E-6;
-1,80493846387638E-5;
-2,06607287986089E-5;
-1,67431671274056E-5;
-8,83881261981921E-6;
-8,48305489183867E-7;
4,34485617711902E-6;
6,17703280939349E-6;
5,92425687028276E-6;
5,13823915301579E-6;
4,43090748975847E-6;
3,54166664785137E-6;
2,37214148575017E-6;
1,77549061675867E-6;
3,12970111710656E-6;
6,90274852390651E-6;
1,14954118453799E-5;
1,3631992536304E-5;
1,03770050604996E-5;
1,42964292408569E-6;
-1,00999954187792E-5;
-1,92334340819479E-5;
-2,20601948220727E-5;
-1,80402183596092E-5;
-1,00667905874292E-5;
-2,33405867579633E-6;
2,35196790219827E-6;
3,88170857362513E-6;
4,02973656910796E-6;
4,47535814067862E-6;
5,42266377465541E-6;
5,89745376372234E-6;
5,24138761699364E-6;
4,24876917283939E-6;
4,72576126976125E-6;
7,71249433088184E-6;
1,19307721206503E-5;
1,40215832316836E-5;
1,0732737181291E-5;
1,53111412246962E-6;
-1,04313354548876E-5;
-1,99406662534051E-5;
-2,29100205254029E-5;
-1,8865520515408E-5;
-1,09520011008211E-5;
-3,54857773616401E-6;
6,43923069733755E-7;
1,8973599795849E-6;
2,37805319957929E-6;
3,84818629214068E-6;
6,16778320304931E-6;
7,77931836143096E-6;
7,5648010079597E-6;
6,2572621550814E-6;
5,99491422489855E-6;
8,28189517471373E-6;
1,2127471919425E-5;
1,41515045138568E-5;
1,08833389162536E-5;
1,60246921859993E-6;
-1,05501611918999E-5;
-2,02388257503864E-5;
-2,32875228072891E-5;
-1,92838491761079E-5;
-1,15371938874982E-5;
-4,51811905570162E-6;
-8,00604269878475E-7;
2,02381293260612E-7;
9,53861105332721E-7;
3,26025257064339E-6;
6,69588101891325E-6;
9,2373916770607E-6;
9,39776976629365E-6;
7,84764728574149E-6;
6,97200246369608E-6;
8,64172791745316E-6;
1,21212910822637E-5;
1,40617882154706E-5;
1,08595432795425E-5;
1,64703897000284E-6;
-1,04898400092047E-5;
-2,01905314778584E-5;
-2,3264248372323E-5;
-1,93552907594982E-5;
-1,18624621395365E-5;
-5,26817309610812E-6;
-2,00322644086166E-6;
-1,22543224936347E-6;
-2,5890656211898E-7;
2,71402370668717E-6;
7,03496645220951E-6;
1,03198306662807E-5;
1,07937952866332E-5;
9,06506332780592E-6;
7,69042318188952E-6;
8,82078549945116E-6;
1,19451010582716E-5;
1,37891035181827E-5;
1,06895805009984E-5;
1,6679778660177E-6;
-1,02809178182946E-5;
-1,98532301449724E-5;
-2,29059023603745E-5;
-1,91351858448436E-5;
-1,19651484343232E-5;
-5,82325873713838E-6;
-2,98553140257404E-6;
-2,40851867090729E-6;
-1,27672258120376E-6;
2,21100136305102E-6;
7,21125246013755E-6;
1,10724037636933E-5;
1,18039919634028E-5;
9,95268667677215E-6;
8,1818508662007E-6;
8,84574822364775E-6;
1,16288462692549E-5;
1,33667654893018E-5;
1,03991720764989E-5;
1,6682475273501E-6;
-9,95113948337028E-6;
-1,92792219202509E-5;
-2,22723627345175E-5;
-1,86741043410589E-5;
-1,18797582332333E-5;
-6,20674331745821E-6;
-3,76878752073356E-6;
-3,36919470430288E-6;
-2,11618502357939E-6;
1,7518352959778E-6;
7,24906063822901E-6;
1,15382090173222E-5;
1,24767271887666E-5;
1,05514157843548E-5;
8,47606869738074E-6;
8,74116948899079E-6;
1,11996062867142E-5;
1,28248115100514E-5;
1,00115765681544E-5;
1,65061351851292E-6;
-9,5254914734422E-6;
-1,85157268325599E-5;
-2,14177533957925E-5;
-1,80178868299281E-5;
-1,16379172443834E-5;
-6,44068914477936E-6;
-4,37369189287111E-6;
-4,12936305955596E-6;
-2,79375652979588E-6;
1,33645558285631E-6;
7,17076734266039E-6;
1,1757483102525E-5;
1,28573791281342E-5;
1,08996658293768E-5;
8,60085290999303E-6;
8,52946297108589E-6;
1,06816719995175E-5;
1,21901154715048E-5;
9,54767526376283E-6;
1,61765207072876E-6;
-9,02626897161765E-6;
-1,76050090365646E-5;
-2,03905879152494E-5;
-1,72077428452063E-5;
-1,12683832338237E-5;
-6,54574527815101E-6;
-4,82015693693048E-6;
-4,7102576190359E-6;
-3,32555188885539E-6;
9,64181370981316E-7;
6,99680063177554E-6;
1,17674898537895E-5;
1,2988167637726E-5;
1,10332219033211E-5;
8,58190603534573E-6;
8,23094301396015E-6;
1,00966689419702E-5;
1,14865270335783E-5;
9,02606866307702E-6;
1,57176416935995E-6;
-8,47318837664017E-6;
-1,6584577205088E-5;
-1,92339740701591E-5;
-1,62804062695046E-5;
-1,07970885359277E-5;
-6,54107022248336E-6;
-5,1271531467427E-6;
-5,13225170796678E-6;
-3,72716953041717E-6;
6,33824368797266E-7;
6,74565289682733E-6;
1,16024562853124E-5;
1,29080512815628E-5;
1,0985146453888E-5;
8,44282779033161E-6;
7,86387598632277E-6;
9,4636787478237E-6;
1,07350214255114E-5;
8,46317879853511E-6;
1,5151650316244E-6;
-7,88351354998967E-6;
-1,54874038866644E-5;
-1,79858746722974E-5;
-1,52683352067099E-5;
-1,02472333807869E-5;
-6,44431741469915E-6;
-5,31259893938115E-6;
-5,41471046880028E-6;
-4,01355632710857E-6;
3,43781895462231E-7;
6,43391791617996E-6;
1,1293563849022E-5;
1,26526957556049E-5;
1,0785743763394E-5;
8,20510726993186E-6;
7,44454683779338E-6;
8,79937773218232E-6;
9,95386642099878E-6;
7,87337529488971E-6;
1,44989050038117E-6;
-7,27220560601103E-6;
-1,43421887533373E-5;
-1,66793862006833E-5;
-1,41999358231076E-5;
-9,63939214714156E-6;
-6,27160833516201E-6;
-5,39326929130603E-6;
-5,57588196072133E-6;
-4,1989052101477E-6;
9,2116903147468E-8;
6,0763558929479E-6;
1,08689938954359E-5;
1,22544893125521E-5;
1,04625703293976E-5;
7,8881633561317E-6;
6,98734823522457E-6;
8,11818926794118E-6;
9,15880198870276E-6;
7,26910116497895E-6;
1,37779512122539E-6;
-6,65207932104024E-6;
-1,31736398296357E-5;
-1,53430648491928E-5;
-1,30998127802932E-5;
-8,99164657622735E-6;
-6,03756978106622E-6;
-5,38474839716576E-6;
-5,63281691525114E-6;
-4,29657832254316E-6;
-1,23361513721197E-7;
5,68597442149671E-6;
1,03540001873338E-5;
1,17426017996927E-5;
1,00404814846276E-5;
7,50940272230532E-6;
6,50488484538747E-6;
7,43244638043162E-6;
8,36322517965351E-6;
6,66100581920826E-6;
1,30056249864836E-6;
-6,03396202720784E-6;
-1,20027600778661E-5;
-1,4001236718848E-5;
-1,19890315050823E-5;
-8,3197290063651E-6;
-5,75535047991717E-6;
-5,30139391988225E-6;
-5,60131687435531E-6;
-4,31904808383947E-6;
-3,05029899116084E-7;
5,27412110917253E-6;
9,77102166511889E-6;
1,1143096587952E-5;
9,54171562626293E-6;
7,08428987119892E-6;
6,00808181864628E-6;
6,75255601239005E-6;
7,57838688864033E-6;
6,05809506391983E-6;
1,21970659259102E-6;
0,00932800718558571;
0,0226188826771696;
0,0163600629302579;
0,0094222107879636;
0,0121617546114018;
0,00702073065688568;
0,00562966080073063;
0,0045772141385232;
0,00083622222169229;
0,00103193698621709;
-0,00118558890449636;
-0,00198281284401127;
-0,00279665788504082;
-0,00454469532282682;
-0,00488069854832285;
-0,00585039440207585;
-0,00593513011211897;
-0,00617567475172592;
-0,00698810880462134;
-0,00791956696353676;
-0,0186871601658147;
-0,0328823398307764;
-0,0269026159502005;
-0,0195514230052917;
-0,0213840119344912;
-0,0154615560381499;
-0,0134702127562973;
-0,0120455114194421;
-0,00789273702266387;
-0,00745164643704508;
0,0048528436401091;
0,0196716728069816;
0,0147365635037045;
0,00990440074682045;
0,013399038685349;
0,0098605080796983;
0,00935324516532899;
0,00919844559137761;
0,00647789673011634;
0,00728890274054083;
0,00592844946278329;
0,00565523740102914;
0,00529447042760072;
0,00388890111105558;
0,00368932137081252;
0,00288633567250865;
0,00284815293139634;
0,00264573686572826;
0,00181556227531669;
0,00077576300019655;
-0,0101291560144032;
-0,0245281229911521;
-0,0187641773363433;
-0,0116586555275956;
-0,013782824453366;
-0,00819193043659359;
-0,00657808900996201;
-0,00553285053840335;
-0,0017377321090372;
-0,0016227997639812;
0,00103536755193939;
0,00221412903504044;
0,00313592818709843;
0,00478368115083543;
0,00505177228062968;
0,00617369995587386;
0,00660362550282687;
0,00707487241081627;
0,0076807995708527;
0,00788244058917112;
0,00832942690723932;
0,00845935517919315;
0,00854423192169133;
0,00853999070972451;
0,00833730116147147;
0,00816308165492262;
0,00787511965245544;
0,00761017369419523;
0,00734556624900387;
0,00705152283136568;
0,00676710155551056;
0,00641695341934306;
0,006026090842074;
0,00557355590591186;
0,00506643438067354;
0,00454206651434978;
0,00401314334147785;
0,00352061562040612;
0,00307179720129524;
0,00266325330919862;
0,00227745349836069;
0,00188100419797772;
0,00145597981993986;
0,000993464836145834;
0,000507277438070951;
2,47140968316245E-5;
-0,000426535781622728;
-0,000824238244032028;
