3,4001279056798E-6;
6,63233697534364E-6;
7,69120851758239E-6;
6,59596662383901E-6;
4,70421067480586E-6;
3,55083108309883E-6;
3,60098368296512E-6;
3,936799108308E-6;
3,11797797464472E-6;
4,87683885062283E-7;
-3,1654896140157E-6;
-6,14001723879271E-6;
-7,11110594247218E-6;
-6,11914131338405E-6;
-4,45255802271454E-6;
-3,53478536666291E-6;
-3,74237001255064E-6;
-4,13027406340357E-6;
-3,28520359357128E-6;
-5,94743620937486E-7;
3,12222858000916E-6;
6,15156169486851E-6;
7,1555526907821E-6;
6,14888488774316E-6;
4,39469504260379E-6;
3,32340638513151E-6;
3,37132105101703E-6;
3,68792658925772E-6;
2,93505702466963E-6;
5,00309396695804E-7;
-2,88746574847887E-6;
-5,65163177459082E-6;
-6,56381828398889E-6;
-5,66036048539875E-6;
-4,13352209324199E-6;
-3,29996415868934E-6;
-3,50623302072333E-6;
-3,87522881545161E-6;
-3,09720477009667E-6;
-6,04952162211135E-7;
2,84303496427895E-6;
5,65905316318888E-6;
6,6030371334648E-6;
5,68553330124677E-6;
4,07225257729951E-6;
3,08548131061328E-6;
3,13109980785862E-6;
3,42730495084422E-6;
2,74074685068907E-6;
5,04995541199063E-7;
-2,6117140058992E-6;
-5,16008832566496E-6;
-6,01015899504776E-6;
-5,19424827338588E-6;
-3,80681075696201E-6;
-3,05608879141463E-6;
-3,25854411724867E-6;
-3,60664784759913E-6;
-2,89623200514904E-6;
-6,06050306617033E-7;
2,56698927678178E-6;
5,16399275295315E-6;
6,04447667977324E-6;
5,2152698130235E-6;
3,74360576799321E-6;
2,8421159356253E-6;
2,88538428098554E-6;
3,16045288508395E-6;
2,5395198906137E-6;
5,02765441397522E-7;
-2,3420381419469E-6;
-4,67314812314894E-6;
-5,45924911873989E-6;
-4,7287547337964E-6;
-3,47835914451495E-6;
-2,80807809295667E-6;
-3,00464607816763E-6;
-3,33046290957523E-6;
-2,68711756320339E-6;
-5,99304359386064E-7;
2,2977560724239E-6;
4,6740887773656E-6;
5,48900423646236E-6;
4,74603139776281E-6;
3,41447253395573E-6;
2,59763318526626E-6;
2,63850591188865E-6;
2,89209125497959E-6;
2,33523305706257E-6;
4,94587786478745E-7;
-2,08151648611686E-6;
-4,19722779613648E-6;
-4,91867844420217E-6;
-4,27052207842007E-6;
-3,15316449093641E-6;
-2,56011967660303E-6;
-2,74911398237059E-6;
-3,05176227320229E-6;
-2,47403710981991E-6;
-5,85906597464155E-7;
2,03828396941308E-6;
4,19571145922178E-6;
4,94421747856528E-6;
4,28444836494256E-6;
3,08965920257619E-6;
2,3556774773124E-6;
2,39411855567228E-6;
2,62621003865596E-6;
2,13117526364701E-6;
4,81380349547263E-7;
-1,83258255396232E-6;
-3,737535950544E-6;
-4,39464477066728E-6;
-3,82500780443081E-6;
-2,83537096513192E-6;
-2,3157257634699E-6;
-2,49580928033536E-6;
-2,77485349830722E-6;
-2,26056074563729E-6;
-5,66964900127229E-7;
1,79088955490599E-6;
3,73401530711259E-6;
4,41631732648341E-6;
3,83595727367643E-6;
2,77312556532285E-6;
2,11927039172957E-6;
2,1552524967217E-6;
2,36612762583507E-6;
1,93011723236622E-6;
4,6399791448673E-7;
-1,59709031056979E-6;
-3,29818211288382E-6;
-3,8920933561112E-6;
-3,39659787608517E-6;
-2,52834209039538E-6;
-2,07778956862726E-6;
-2,24794487772049E-6;
-2,503333549098E-6;
-2,0496989923272E-6;
-5,43507346191471E-7;
1,55732045847562E-6;
3,29306361196377E-6;
3,91024432243566E-6;
3,40492530358542E-6;
2,46807335431871E-6;
1,89086768412763E-6;
1,9243795707487E-6;
2,11454993946551E-6;
1,7343454368708E-6;
4,43233386566231E-7;
-1,37638108541085E-6;
-2,88230235866073E-6;
-3,41484897545881E-6;
-2,98871576031634E-6;
-2,23474482794457E-6;
-1,84865465748855E-6;
-2,00814332832646E-6;
-2,2401469198621E-6;
-1,84395027266376E-6;
-5,16472474538895E-7;
1,33882683662998E-6;
2,8759478858009E-6;
3,42981496896055E-6;
2,99475021529279E-6;
2,17701977594745E-6;
1,67242003192761E-6;
1,70346127872815E-6;
1,87363138111383E-6;
1,54571362394538E-6;
4,1981474774758E-7;
-1,17135242195285E-6;
-2,49217394731268E-6;
-2,96573791243549E-6;
-2,60392803074712E-6;
-1,95661890759942E-6;
-1,63015303541896E-6;
-1,77849064881416E-6;
-1,98765184800157E-6;
-1,64534401692907E-6;
-4,86715091773866E-7;
1,13622363339956E-6;
2,4849024473781E-6;
2,97784570038656E-6;
2,60797960485345E-6;
1,90187579154382E-6;
1,46542036176731E-6;
1,49400872419695E-6;
1,64503606432013E-6;
1,36568452016394E-6;
3,94405070333036E-7;
-9,82515973120377E-7;
-2,12932183843575E-6;
-2,54672074305082E-6;
-2,24405371923346E-6;
-1,69545175715082E-6;
-1,42367769831611E-6;
-1,56059690192931E-6;
-1,74767614007386E-6;
-1,45549187593791E-6;
-4,55003608782551E-7;
9,49950038704274E-7;
2,12141011680629E-6;
2,55628201386037E-6;
2,24640542508173E-6;
1,64401073689429E-6;
1,27095926539124E-6;
1,29712446273418E-6;
1,42998655515786E-6;
1,19537192529775E-6;
3,67599858351038E-7;
-8,10053946179705E-7;
-1,79461936059845E-6;
-2,15899581889424E-6;
-1,91024995973863E-6;
-1,4522468493795E-6;
-1,23022450682621E-6;
-1,35564754141856E-6;
-1,52158377098539E-6;
-1,27562915569123E-6;
-4,22022596900243E-7;
7,8012382238428E-7;
1,78630317603446E-6;
2,1663031332906E-6;
1,91116045350933E-6;
1,40432866867718E-6;
1,08977774227916E-6;
1,11356249279429E-6;
1,22932417348461E-6;
1,03557795996873E-6;
3,39932505218642E-7;
-6,53867093471099E-7;
-1,48837872131699E-6;
-1,8031052977463E-6;
-1,60310827135593E-6;
-1,22758987958386E-6;
-1,05044675550043E-6;
-1,16445710997573E-6;
-1,31032529053538E-6;
-1,10665692478933E-6;
-3,88377129557416E-7;
6,26596748652404E-7;
1,47986320035673E-6;
1,80843765923821E-6;
1,60281563966159E-6;
1,18332330424315E-6;
9,22304132563091E-7;
9,43766158800186E-7;
1,04355453028085E-6;
8,86839649054935E-7;
3,11874884086261E-7;
-5,13630427327541E-7;
-1,21044500282879E-6;
-1,47904643810496E-6;
-1,32274289819444E-6;
-1,02170149463871E-6;
-8,846945674025E-7;
-9,87513702522587E-7;
-1,11448915224693E-6;
-9,49184437145773E-7;
-3,54595561733916E-7;
4,88995831659459E-7;
1,2019006295029E-6;
1,48266297202736E-6;
1,32145832735022E-6;
9,81140959571219E-7;
7,68709052630761E-7;
7,87916949131642E-7;
8,72893125530753E-7;
7,49447943062117E-7;
2,83834830270507E-7;
-3,88828360627206E-7;
-9,60271186037165E-7;
-1,18634687925527E-6;
-1,06885538819007E-6;
-8,3449561878764E-7;
-7,33061532350331E-7;
-8,25027972200228E-7;
-9,34355526898451E-7;
-8,03563800563329E-7;
-3,21132679342523E-7;
3,66770481374566E-7;
9,51838642153989E-7;
1,18848589878632E-6;
1,06676982167593E-6;
7,9763438462342E-7;
6,28935156747362E-7;
6,45969289142647E-7;
7,17310595325277E-7;
6,23500716311465E-7;
2,56169800076204E-7;
-2,78795513713252E-7;
-7,36987397374068E-7;
-9,24153594038921E-7;
-8,40813504648809E-7;
-6,65638967040788E-7;
-5,95434052749041E-7;
-6,76972082537624E-7;
-7,69938579627706E-7;
-6,69929180967589E-7;
-2,88373432577517E-7;
2,59228639443843E-7;
7,28782628276337E-7;
9,25034436946274E-7;
8,38098873807676E-7;
6,32413392876836E-7;
5,02741632509999E-7;
5,17692961402756E-7;
5,76571569706784E-7;
5,089174044569E-7;
2,29177283304848E-7;
-1,82759388404802E-7;
-5,39476139990759E-7;
-6,91310562519008E-7;
-6,37716376034695E-7;
-5,14580284483172E-7;
-4,71507632505201E-7;
-5,43120518332522E-7;
-6,21032195702753E-7;
-5,4822915935042E-7;
-2,56639944978331E-7;
1,65567561215054E-7;
5,31587205149461E-7;
6,91133675912016E-7;
6,34519016019473E-7;
4,84884348512349E-7;
3,8973068519262E-7;
4,02697353954972E-7;
4,50271261787865E-7;
4,05475455817383E-7;
2,03106438995454E-7;
-9,98551553052916E-8;
-3,66418531596149E-7;
-4,86420578704523E-7;
-4,58445443101707E-7;
-3,80609418948908E-7;
-3,60840195219764E-7;
-4,23082455894365E-7;
-4,87241306821542E-7;
-4,38250487169363E-7;
-2,26194888918714E-7;
8,49092003068967E-8;
3,58917717252928E-7;
4,85369561218908E-7;
4,54897324434242E-7;
3,54301246245231E-7;
2,89383873646546E-7;
3,00472970217411E-7;
3,37868115100611E-7;
3,12835879901638E-7;
1,78162444986423E-7;
-2,91672647530558E-8;
-2,16355920582491E-7;
-3,07908922713049E-7;
-3,01719637055216E-7;
-2,62880692177652E-7;
-2,628671005912E-7;
-3,16333424501247E-7;
-3,68026019272404E-7;
-3,39658975988725E-7;
-1,97247933154514E-7;
1,63245119500599E-8;
2,09292539076771E-7;
3,06144424048393E-7;
2,979339392302E-7;
2,39793168755396E-7;
2,01087656811747E-7;
2,10410044792337E-7;
2,38711387356789E-7;
2,30562568320129E-7;
1,54502493645977E-7;
3,02537737929985E-8;
-8,77246085820797E-8;
-1,54069587737628E-7;
-1,66142158989858E-7;
-1,60454250884254E-7;
-1,76937897484189E-7;
-2,22251832899873E-7;
-2,62727847580208E-7;
-2,52010551996909E-7;
-1,69955983672151E-7;
-4,11443620115282E-8;
8,11364906484198E-8;
1,51738490448973E-7;
1,62215461979871E-7;
1,40400024131658E-7;
1,24152240628125E-7;
1,3182494397853E-7;
1,52072191107387E-7;
1,58148579169951E-7;
1,32249382106667E-7;
7,9373003132732E-8;
2,1092961816427E-8;
-2,31183611958382E-8;
-5,02325353764167E-8;
-7,23230515597554E-8;
-1,02333959386449E-7;
-1,40128336394005E-7;
-1,70594973204454E-7;
-1,74782417477341E-7;
-1,44436017203779E-7;
-8,84681358174952E-8;
-2,71847886871718E-8;
2,03486317518818E-8;
4,62465682099361E-8;
5,5098129418044E-8;
5,78418811481275E-8;
6,39848091890897E-8;
7,71594711100987E-8;
9,50293190642283E-8;
1,11490074334605E-7;
1,19149604191836E-7;
1,11743341446474E-7;
8,6773005059747E-8;
4,75299552069239E-8;
2,56287424460256E-9;
-3,82926203274087E-8;
-6,92054714078993E-8;
-9,08159577167616E-8;
-1,07391010290285E-7;
-1,20761537022948E-7;
-1,26608319130994E-7;
-1,17329276626739E-7;
-8,98666464043689E-8;
-5,1506220001052E-8;
-1,71690326683223E-8;
1,38748077791287E-9;
6,12094863145396E-9;
1,31478288617249E-8;
4,06019579147284E-8;
9,22762575461103E-8;
1,5052578994385E-7;
1,85870126919206E-7;
1,7743990211645E-7;
1,28682079808377E-7;
6,52750032760066E-8;
1,59772514748542E-8;
-8,68901319529898E-9;
-2,25335903949502E-8;
-4,92090992502462E-8;
-9,89737002529611E-8;
-1,56506165581052E-7;
-1,90951734308085E-7;
-1,80758457134999E-7;
-1,32591721386934E-7;
-7,74766261286683E-8;
-4,59966672072E-8;
-4,25515370802541E-8;
-4,08101928025385E-8;
-5,75958783101995E-9;
7,46377508569847E-8;
1,74419678302493E-7;
2,45093521990309E-7;
2,50701948867285E-7;
1,94754220285081E-7;
1,16883589740236E-7;
6,12780302676003E-8;
4,22382459800109E-8;
3,51327270414886E-8;
4,20789734371798E-10;
-7,90813634937792E-8;
-1,79072465849118E-7;
-2,49676960853667E-7;
-2,54161179088347E-7;
-1,98550375455172E-7;
-1,26894961666542E-7;
-8,50978043298046E-8;
-8,28212921514264E-8;
-8,55680564250276E-8;
-4,46932279464248E-8;
5,85773454451132E-8;
1,91704771654647E-7;
2,90983303344765E-7;
3,08329951057108E-7;
2,47240270647248E-7;
1,58445913891147E-7;
9,84086222426912E-8;
8,43951052883923E-8;
8,3074635391741E-8;
4,21666623245703E-8;
-6,10702091734701E-8;
-1,95178783730637E-7;
-2,95082824486557E-7;
-3,11856794118488E-7;
-2,50889343340392E-7;
-1,66481374917176E-7;
-1,16694647160773E-7;
-1,15467934815091E-7;
-1,21968588772222E-7;
-7,68394575011618E-8;
4,40744619007236E-8;
2,03211708314779E-7;
3,25051133201906E-7;
3,52039792121235E-7;
2,87593788201006E-7;
1,90992236005756E-7;
1,28157165607894E-7;
1,1859387746215E-7;
1,22172394466419E-7;
7,67006177578683E-8;
-4,49007066639343E-8;
-2,05650311535576E-7;
-3,28686188665676E-7;
-3,55572816419305E-7;
-2,9106663492245E-7;
-1,9725668764592E-7;
-1,41546536431126E-7;
-1,41253840386026E-7;
-1,50839512778578E-7;
-1,0283163290729E-7;
3,10960649044728E-8;
2,09724647140761E-7;
3,48733305608729E-7;
3,83466671465115E-7;
3,17205472024423E-7;
2,15517429521374E-7;
1,51291338197594E-7;
1,45629019277166E-7;
1,53295487352958E-7;
1,04690952984248E-7;
-3,05156982358434E-8;
-2,11260202474323E-7;
-3,5192875412694E-7;
-3,86954360433347E-7;
-3,20480820277265E-7;
-2,20210702009363E-7;
-1,60387417770474E-7;
-1,60915428828544E-7;
-1,72978722301446E-7;
-1,23282513907113E-7;
1,95900989028867E-8;
2,11967871036028E-7;
3,63384102290202E-7;
4,0415637342496E-7;
3,37391762493743E-7;
2,32967032628549E-7;
1,685459557091E-7;
1,66267420748944E-7;
1,77279991403631E-7;
1,26786148930005E-7;
-1,78428820947385E-8;
-2,12729911708054E-7;
-3,66166273110979E-7;
-4,07557213369469E-7;
-3,40458500668398E-7;
-2,36277687422352E-7;
-1,73915344022123E-7;
-1,75158666912776E-7;
-1,89155833994864E-7;
-1,38791863263539E-7;
9,49515402214067E-9;
2,1061814781927E-7;
3,7027069633251E-7;
4,15562682214787E-7;
3,49398303088222E-7;
2,44236968951932E-7;
1,80621245246352E-7;
1,8124523321354E-7;
1,94933364764155E-7;
1,43615889721107E-7;
-6,79811102579492E-9;
-2,10721579713704E-7;
-3,72668515767169E-7;
-4,18844427753422E-7;
-3,52246376086842E-7;
-2,46344522056191E-7;
-1,82795830313386E-7;
-1,84651119289745E-7;
-2,00094798794028E-7;
-1,4992535952543E-7;
7,40070586186697E-10;
2,06288306557987E-7;
3,70563456054878E-7;
4,19035945917981E-7;
3,54381737036532E-7;
2,5016730939307E-7;
1,88180816283925E-7;
1,9125734743172E-7;
2,0702050181891E-7;
1,55781855676337E-7;
2,71130005791509E-9;
-2,05839805825806E-7;
-3,72606952932056E-7;
-4,22171398151E-7;
-3,57007642014662E-7;
-2,51238643625142E-7;
-1,87648000747068E-7;
-1,90021274664523E-7;
-2,06481559780582E-7;
-1,57223134449421E-7;
-6,75700692151174E-9;
1,99536721493553E-7;
3,65341957770932E-7;
4,15820513401278E-7;
3,53411404195811E-7;
2,51537900690783E-7;
1,91845466288145E-7;
1,96960447652532E-7;
2,14261809249169E-7;
1,63856210928909E-7;
1,07857389065561E-8;
-1,9863668186316E-7;
-3,67060149589239E-7;
-4,18789874467208E-7;
-3,55816568090622E-7;
-2,51728724409618E-7;
-1,89053875544502E-7;
-1,9185289656868E-7;
-2,08954052848077E-7;
-1,61193797335308E-7;
-1,30775573924474E-8;
1,90867796069709E-7;
3,5558610880751E-7;
4,0705726666072E-7;
3,47472674017364E-7;
2,49067341385662E-7;
1,92188188532029E-7;
1,98965534559428E-7;
2,17333712776303E-7;
1,68375940817604E-7;
1,75294864678654E-8;
-1,8960207071134E-7;
-3,57009323354618E-7;
-4,09847895382069E-7;
-3,49658689942289E-7;
-2,48519028248972E-7;
-1,87548625175162E-7;
-1,90688297419554E-7;
-2,08101884361273E-7;
-1,62308209575352E-7;
-1,83102746841601E-8;
1,80731242973907E-7;
3,42184819912643E-7;
3,93779400808693E-7;
3,37460544193281E-7;
2,43415234281898E-7;
1,89740288172648E-7;
1,97835359963542E-7;
2,16857439788668E-7;
1,69842899357016E-7;
2,30480316017369E-8;
-1,79180741504045E-7;
-3,4334246500223E-7;
-3,96382639477831E-7;
-3,3943487369456E-7;
-2,422573710545E-7;
-1,83619606695582E-7;
-1,8702402114293E-7;
-2,04470966163915E-7;
-1,61003045485218E-7;
-2,25443030781905E-8;
1,69519350871299E-7;
3,25931777281956E-7;
3,76919479722429E-7;
3,24181623538268E-7;
2,35175598616076E-7;
1,84986115319023E-7;
1,94091196648129E-7;
2,13407693629854E-7;
1,68720669635114E-7;
2,74506495801049E-8;
-1,67757910510009E-7;
-3,26853390188474E-7;
-3,79329038235202E-7;
-3,25952601335046E-7;
-2,33527035002625E-7;
-1,77713922583691E-7;
-1,8131185483351E-7;
-1,98555195779233E-7;
-1,57679599762338E-7;
-2,58663628263578E-8;
1,57585991459265E-7;
3,0753604372927E-7;
3,57308345634466E-7;
3,08362844372682E-7;
2,2488845483062E-7;
1,78364286279011E-7;
1,8820452340859E-7;
2,07510311748577E-7;
1,65435211519883E-7;
3,08402434501211E-8;
-1,5567415990232E-7;
-3,08248548135432E-7;
-3,59523531730777E-7;
-3,09939214796193E-7;
-2,22853967216509E-7;
-1,70234559577997E-7;
-1,73960339322909E-7;
-1,90801909093759E-7;
-1,5270567330706E-7;
-2,83688072055233E-8;
1,4522958710057E-7;
2,87620705465985E-7;
3,35681685525309E-7;
2,90645411528295E-7;
2,13033049403189E-7;
1,70269576420304E-7;
1,80601978199571E-7;
1,996400309049E-7;
1,60376541587867E-7;
3,33233441645772E-8;
-1,43221700893194E-7;
-2,88149896756303E-7;
-3,37704862542348E-7;
-2,92039844512384E-7;
-2,10707702347518E-7;
-1,61540188337159E-7;
-1,65337628824495E-7;
-1,81617022112217E-7;
-1,46408867711073E-7;
-3,01348975293962E-8;
1,32707318036802E-7;
2,6672798992442E-7;
3,12684002696275E-7;
2,71595898169807E-7;
2,00033607909467E-7;
1,61054637041641E-7;
1,71668314840259E-7;
1,90222038286119E-7;
1,53894699813808E-7;
3,50024486866255E-8;
-1,30650211322152E-7;
-2,6709884294654E-7;
-3,14518563804381E-7;
-2,72818732523329E-7;
-1,97499560734674E-7;
-1,51950353757E-7;
-1,55766774514081E-7;
-1,71353107568868E-7;
-1,39087294785817E-7;
-3,12518578368915E-8;
1,20236891282426E-7;
2,45326697618942E-7;
2,88876185842374E-7;
2,51708122904277E-7;
1,86263533868371E-7;
1,51030581932024E-7;
1,6174029552417E-7;
1,79638131553546E-7;
1,46306466169686E-7;
3,59697669472289E-8;
-1,18170321105393E-7;
-2,45560900352442E-7;
-2,90528652536413E-7;
-2,52771231591412E-7;
-1,8359246419773E-7;
-1,41744597427057E-7;
-1,45534128920996E-7;
-1,60328684299231E-7;
-1,31003842916459E-7;
-3,17958496036854E-8;
1,08000784807244E-7;
2,23815708043498E-7;
2,64738925594141E-7;
2,31406635833889E-7;
1,72044240385893E-7;
1,4047242109477E-7;
1,51119200881995E-7;
1,68221010489082E-7;
1,37893341505517E-7;
3,63191602935144E-8;
-1,05958138645009E-7;
-2,23933919370101E-7;
-2,66216540624685E-7;
-2,32322641353793E-7;
-1,69298849461084E-7;
-1,31167255222963E-7;
-1,34892608594523E-7;
-1,48821807492114E-7;
-1,22389813049294E-7;
-3,18454218116912E-8;
9,61436464519143E-8;
2,02531645015156E-7;
2,40677148876683E-7;
2,11052674443381E-7;
1,57654385844079E-7;
1,29614738123296E-7;
1,40067011496344E-7;
1,56266405629774E-7;
1,28901152876154E-7;
3,61385254271102E-8;
-9,41528813169103E-8;
-2,0255229658991E-7;
-2,41988644745065E-7;
-2,11834137464963E-7;
-1,54888405997562E-7;
-1,20429696814303E-7;
-1,24054713747177E-7;
-1,3706820073607E-7;
-1,13450156096195E-7;
-3,14697103356826E-8;
8,47850403683049E-8;
1,81749590518532E-7;
2,17030817659393E-7;
1,90951441322683E-7;
1,43328508627583E-7;
1,18658536435385E-7;
1,28807243930622E-7;
1,44028455874257E-7;
1,19546903116153E-7;
3,55064705798135E-8;
-8,28684059536724E-8;
-1,81690534955358E-7;
-2,18186828573733E-7;
-1,91610904224698E-7;
-1,40584274909038E-7;
-1,09708347530511E-7;
-1,13207680668115E-7;
-1,25273238832817E-7;
-1,04358933820887E-7;
-3,07378608569941E-8;
7,4014368418137E-8;
1,61694242208347E-7;
1,94076784860692E-7;
1,71351121370497E-7;
1,29260387683515E-7;
1,07778861986304E-7;
1,17535074710687E-7;
1,3172486206895E-7;
1,10018808576925E-7;
3,44998460208009E-8;
-7,21881923331977E-8;
-1,61571059845475E-7;
-1,95085917402143E-7;
-1,71900112672453E-7;
-1,26579150289982E-7;
-9,91547839707156E-8;
-1,02503074002678E-7;
-1,13607940822768E-7;
-9,52658736873292E-8;
-2,97120563048746E-8;
6,38982045724372E-8;
1,42543163071104E-7;
1,72037678915299E-7;
1,52457029130572E-7;
1,15612571593067E-7;
9,71169390083129E-8;
1,06409409424073E-7;
1,19536881058285E-7;
1,00476192934931E-7;
3,31860396530299E-8;
-6,21772778581857E-8;
-1,42368764536419E-7;
-1,72911617577321E-7;
-1,5290783478353E-7;
-1,13021653305749E-7;
-8,88890077981194E-8;
-9,20693260891076E-8;
-1,0221415474451E-7;
-8,62966408675402E-8;
-2,84463397151399E-8;
5,44824693407493E-8;
1,24428735262128E-7;
1,51085551438247E-7;
1,34427022629667E-7;
1,02514064393526E-7;
8,67897079308251E-8;
9,55644680728695E-8;
1,07620213090865E-7;
9,10531384245002E-8;
3,16278816178728E-8;
-5,28748614660121E-8;
-1,24216376621169E-7;
-1,51833928125553E-7;
-1,34789109401169E-7;
-1,00037415026033E-7;
-7,90138484721552E-8;
-8,20119887447769E-8;
-9,12113891673053E-8;
-7,7555661782452E-8;
-2,69931241055325E-8;
4,57949406117122E-8;
1,07450236476598E-7;
1,31349118314402E-7;
1,17382499161347E-7;
9,00618226573565E-8;
7,68891349868799E-8;
8,51091186588074E-8;
9,6097249020176E-8;
8,18630289408522E-8;
2,98835744365665E-8;
-4,43054740029677E-8;
-1,07209461434394E-7;
-1,31985113210965E-7;
-1,17665226449885E-7;
-8,77173855982171E-8;
-6,9606287656002E-8;
-7,2409146296519E-8;
-8,06887495489066E-8;
-6,91294142885324E-8;
-2,54005013096995E-8;
3,78441952627926E-8;
9,16706058946892E-8;
1,12918058848916E-7;
1,01408674452029E-7;
7,83320456405245E-8;
6,74887361199243E-8;
7,51288598948415E-8;
8,50675881214575E-8;
7,29942528626977E-8;
2,80032821126503E-8;
-3,64787925794464E-8;
-9,14103793082234E-8;
-1,13449625018555E-7;
-1,01624551664442E-7;
-7,61329137557885E-8;
-6,07214596237996E-8;
-6,3326133891383E-8;
-7,07179123020635E-8;
-6,10824586769134E-8;
-2,37084823952666E-8;
3,06342266526525E-8;
7,71267636875269E-8;
9,58483926526332E-8;
8,65656635617646E-8;
6,7376724565633E-8;
5,86422668039508E-8;
6,56875629742596E-8;
7,46067789450872E-8;
6,45208497711615E-8;
2,60322978256382E-8;
-2,93908809705826E-8;
-7,68553809183383E-8;
-9,62867108060237E-8;
-8,67208460223726E-8;
-6,53309796896119E-8;
-5,24066466733127E-8;
-5,48079386951445E-8;
-6,13494400634728E-8;
-5,34644629013831E-8;
-2,19535947855382E-8;
2,41482966087761E-8;
6,38307817037656E-8;
8,01674083727209E-8;
7,28823278320358E-8;
5,72266950510069E-8;
5,03850292028087E-8;
5,68318470130633E-8;
6,47712285275735E-8;
5,64974810665274E-8;
2,40089107233216E-8;
-2,30282600993911E-8;
-6,3554237057632E-8;
-8,05220071365406E-8;
-7,29869572992683E-8;
-5,53404900426076E-8;
-4,46828721344498E-8;
-4,68813218804876E-8;
-5,26202309816929E-8;
-4,6315007046403E-8;
-2,01695802912893E-8;
1,83654357532554E-8;
5,17730492532072E-8;
6,58767163521707E-8;
6,03684335260637E-8;
4,78972636450827E-8;
4,2740028572409E-8;
4,85946653461819E-8;
5,56009669701997E-8;
4,89630462843927E-8;
2,19693626941106E-8;
-1,73653528083039E-8;
-5,14979695138563E-8;
-6,61567419007777E-8;
-6,04298767024566E-8;
-4,61733443080979E-8;
-3,75691148254107E-8;
-3,95652033105823E-8;
-4,45484386975908E-8;
-3,96590105127234E-8;
-1,83821579325556E-8;
1,32606515657974E-8;
4,0928136107182E-8;
5,29577082211079E-8;
4,90174780356824E-8;
3,93918167195258E-8;
3,57177299117932E-8;
4,09920794042759E-8;
4,7115978500523E-8;
4,19441278016424E-8;
1,99430695602929E-8;
-1,23743955870574E-8;
-4,06599081202208E-8;
-5,31715572125074E-8;
-4,90408451092526E-8;
-3,78273328611588E-8;
-3,10659348685235E-8;
-3,2864725236104E-8;
-3,71442549059413E-8;
-3,35116962015866E-8;
-1,66191559198417E-8;
8,79705433848166E-9;
3,12593101525774E-8;
4,13762149829811E-8;
3,88027526579341E-8;
3,16968631587004E-8;
2,93192396932251E-8;
3,40312298200854E-8;
3,93255134311489E-8;
3,54574845105843E-8;
1,79535063336252E-8;
-8,02156423523976E-9;
-3,09992779765562E-8;
-4,15326013883869E-8;
-3,87952930853335E-8;
-3,02899781066692E-8;
-2,5169577109519E-8;
-2,67741439584091E-8;
-3,0401708981317E-8;
-2,78729452294999E-8;
-1,48961151024635E-8;
4,93546180115013E-9;
2,27143087939646E-8;
3,1083136160445E-8;
2,96886936963971E-8;
2,47930139440282E-8;
2,35317788720146E-8;
2,77046651115973E-8;
3,22316920694522E-8;
2,95098796713381E-8;
1,60235730342044E-8;
-4,26347285141507E-9;
-2,24655462118593E-8;
-3,11884457396819E-8;
-2,96559764751765E-8;
-2,35382293178618E-8;
-1,986287271027E-8;
-2,12835564885979E-8;
-2,43125856392847E-8;
-2,27444400702321E-8;
-1,32323992601342E-8;
1,63891319853799E-9;
1,52357046423343E-8;
2,20163007488708E-8;
2,16276392473376E-8;
1,86510429028402E-8;
1,83431956644688E-8;
2,20031205206313E-8;
2,58183357495298E-8;
2,4096241277878E-8;
1,41691034963404E-8;
-1,06310131255388E-9;
-1,50003690056163E-8;
-2,20782307627532E-8;
-2,15741975217706E-8;
-1,75417744441372E-8;
-1,51279807564898E-8;
-1,63729534455407E-8;
-1,88555257049199E-8;
-1,81124427395362E-8;
-1,16402337529328E-8;
-1,13882068496883E-9;
8,75950580402039E-9;
1,41093463691804E-8;
1,4564576856401E-8;
1,32357953593313E-8;
1,37287693528044E-8;
1,69047514246439E-8;
2,00684944927142E-8;
1,9207831631219E-8;
1,24035281853786E-8;
1,62377034323036E-9;
-8,5394405473808E-9;
-1,41344409024023E-8;
-1,44959742813403E-8;
-1,22667504145452E-8;
-1,09420668204604E-8;
-1,20181079562873E-8;
-1,40072309818725E-8;
-1,39658330172791E-8;
-1,01303530799169E-8;
-3,44043059819081E-9;
3,21614418503726E-9;
7,2883688732386E-9;
8,44088475808633E-9;
8,50845645114751E-9;
9,66201317455564E-9;
1,23861054523839E-8;
1,49580568683125E-8;
1,48295000494978E-8;
1,07391436655094E-8;
3,84457444379292E-9;
-3,01197284138342E-9;
-7,28300111331213E-9;
-8,35971446806649E-9;
-7,668365096861E-9;
-7,27436597366052E-9;
-8,19422725694705E-9;
-9,73850162340656E-9;
-1,02831450540132E-8;
-8,71154362547496E-9;
-5,30968432616153E-9;
-1,46535015648363E-9;
1,47473733451963E-9;
3,19140342780739E-9;
4,42492239822106E-9;
6,11324472226806E-9;
8,41758601183839E-9;
1,04547546981199E-8;
1,0939127110789E-8;
9,17941845212569E-9;
5,63888655326362E-9;
1,65326024979766E-9;
-1,44371003807396E-9;
-3,10127521934977E-9;
-3,70605458459348E-9;
-4,09428454665142E-9;
-4,86672610513711E-9;
-6,01551409399031E-9;
-7,04319394300873E-9;
-7,3879921929357E-9;
-6,78856580626883E-9;
-5,35683740243283E-9;
-3,40968345309415E-9;
-1,24895928822666E-9;
9,39815032070095E-10;
3,04937401697639E-9;
4,967698228815E-9;
6,52757776271672E-9;
7,516525333044E-9;
7,7309871283488E-9;
7,05095772066567E-9;
5,52888563186059E-9;
3,46168646664768E-9;
1,34545908047078E-9;
-3,32018608254391E-10;
-1,36705981178447E-9;
-2,00420614056701E-9;
-2,80360288905672E-9;
-4,21853575868198E-9;
-6,16334846348507E-9;
-7,92099648915752E-9;
-8,53242018924989E-9;
-7,44772449671698E-9;
-4,94944769404246E-9;
-1,99484224476552E-9;
4,35173766192454E-10;
2,00049226737641E-9;
3,1357080156439E-9;
4,53210711452242E-9;
6,39714267382123E-9;
8,12106967140171E-9;
8,68553771569144E-9;
7,51580399928708E-9;
5,04958964438303E-9;
2,50043823626603E-9;
9,40404017221173E-10;
4,26653647900352E-10;
-6,72744445518995E-11;
-1,78455954475234E-9;
-5,03881798991283E-9;
-8,74335899979029E-9;
-1,10600398213773E-8;
-1,07169511077048E-8;
-7,97419642394332E-9;
-4,42476373517556E-9;
-1,76393627363795E-9;
-5,18164150362282E-10;
2,43390541049451E-10;
1,96062356182117E-9;
5,17979699736271E-9;
8,89151590025863E-9;
1,11974801013843E-8;
1,07980181270305E-8;
8,07559255043325E-9;
4,83563336449139E-9;
2,86232614329087E-9;
2,46242861799235E-9;
2,23242579814215E-9;
2,88460662795751E-10;
-4,01591766756274E-9;
-9,29947104543471E-9;
-1,30096016681221E-8;
-1,3294533771629E-8;
-1,03910847413821E-8;
-6,39612574318384E-9;
-3,5823164053653E-9;
-2,62475527406893E-9;
-2,18955047554027E-9;
-2,30745374694178E-10;
4,07546805119631E-9;
9,39916249753211E-9;
1,3131394034415E-8;
1,33847344629523E-8;
1,04916103863063E-8;
6,72447046743931E-9;
4,43391043229343E-9;
4,13594453956103E-9;
4,13351283350435E-9;
2,02812704335372E-9;
-3,09240243367209E-9;
-9,62078930332047E-9;
-1,44473388270838E-8;
-1,52566851742602E-8;
-1,22629522471573E-8;
-7,95635760692654E-9;
-5,05816114614988E-9;
-4,35602099811722E-9;
-4,20079276872278E-9;
-2,07139633520925E-9;
3,08244447801663E-9;
9,68093838601563E-9;
1,45539247821412E-8;
1,53533322150283E-8;
1,23630644753817E-8;
8,20979540159959E-9;
5,68946841056796E-9;
5,48378733601477E-9;
5,67190194505788E-9;
3,46426448881203E-9;
-2,26463938222873E-9;
-9,74325728868741E-9;
-1,54366653038274E-8;
-1,66753676771629E-8;
-1,36526469406412E-8;
-9,1496969627276E-9;
-6,2233844748416E-9;
-5,74812385172832E-9;
-5,83059304047695E-9;
-3,58898462037839E-9;
2,19756960876729E-9;
9,76769665036036E-9;
1,5528615434636E-8;
1,67773736356912E-8;
1,37504371196301E-8;
9,33616568211986E-9;
6,66201777650829E-9;
6,53684222700545E-9;
6,88362571002598E-9;
4,62357038142923E-9;
-1,53106126365079E-9;
-9,69588442370966E-9;
-1,60343023710245E-8;
-1,7619066199885E-8;
-1,46185730229782E-8;
-1,00175993773432E-8;
-7,11192924589006E-9;
-6,83508344611749E-9;
-7,11812470904862E-9;
-4,81588905448366E-9;
1,41679546836474E-9;
9,69163883761541E-9;
1,61155986966564E-8;
1,77232355418642E-8;
1,47111777312342E-8;
1,01445103240371E-8;
7,38174576207107E-9;
7,32967706714036E-9;
7,80665949291289E-9;
5,53568209416879E-9;
-8,87526833861554E-10;
-9,50969922936572E-9;
-1,62967493580118E-8;
-1,8150018144415E-8;
-1,52129975628252E-8;
-1,06001457885466E-8;
-7,75687716254953E-9;
-7,64981473498768E-9;
-8,09845484423724E-9;
-5,78054834401173E-9;
7,35241501264629E-10;
9,47944524885885E-9;
1,63667977296543E-8;
1,82543789738909E-8;
1,53015884092471E-8;
1,06777298358992E-8;
7,88166527120275E-9;
7,89055741153506E-9;
8,47031404735631E-9;
6,22459021640668E-9;
-3,26985218151875E-10;
-9,20816622381794E-9;
-1,62771299635589E-8;
-1,8329396515153E-8;
-1,54906038271587E-8;
-1,09353752043732E-8;
-8,18553010622024E-9;
-8,22650277693164E-9;
-8,80772468764209E-9;
-6,51131563389539E-9;
1,46301709506101E-10;
9,15993894214395E-9;
1,63345445740901E-8;
1,84318235937553E-8;
1,55760090406799E-8;
1,09706916622178E-8;
8,18870747869392E-9;
8,25019956315612E-9;
8,91009481052868E-9;
6,71964759731435E-9;
1,51878169487815E-10;
-8,81771771480627E-9;
-1,60196707002554E-8;
-1,82118574085231E-8;
-1,54972930920698E-8;
-1,10584945158439E-8;
-8,42930454935497E-9;
-8,59329947695736E-9;
-9,27968676205525E-9;
-7,03542867104369E-9;
-3,55567675852832E-10;
8,75178556096611E-9;
1,60680133375559E-8;
1,83126604361282E-8;
1,55781076574264E-8;
1,10567065704704E-8;
8,32869984694124E-9;
8,43654823606753E-9;
9,15348183618018E-9;
7,04104598861619E-9;
5,58242542137011E-10;
-8,35665523697206E-9;
-1,55670036823562E-8;
-1,78463199941725E-8;
-1,52787962402213E-8;
-1,10025711740237E-8;
-8,51334585388397E-9;
-8,77909400334379E-9;
-9,54427889413773E-9;
-7,37875439688505E-9;
-7,7656035063558E-10;
8,27813447303383E-9;
1,56057641706415E-8;
1,79446859222779E-8;
1,53536570494153E-8;
1,09695380350086E-8;
8,32852835888097E-9;
8,47250999247728E-9;
9,2295304421397E-9;
7,21620981651309E-9;
8,9718498473567E-10;
-7,84403478664425E-9;
-1,49595388987547E-8;
-1,72809424341631E-8;
-1,48738417777798E-8;
-1,07971849079325E-8;
-8,46256125007203E-9;
-8,81078783248841E-9;
-9,6330089898707E-9;
-7,56447294766743E-9;
-1,1234572458972E-9;
7,75649821679243E-9;
1,49905479514073E-8;
1,73737844613731E-8;
1,49431201392867E-8;
1,07401058335172E-8;
8,20897663659919E-9;
8,38450277141217E-9;
9,16471198874134E-9;
7,2613312410929E-9;
1,17188947941248E-9;
-7,29698806365869E-9;
-1,42299682653688E-8;
-1,65540454275292E-8;
-1,43190477001544E-8;
-1,04692427924729E-8;
-8,29863000051004E-9;
-8,71339108092816E-9;
-9,57081946107841E-9;
-7,61436408648355E-9;
-1,40351364883257E-9;
7,20320883905337E-9;
1,42543285047496E-8;
1,6642333581543E-8;
1,43825370245342E-8;
1,03918101228115E-8;
7,99231895979921E-9;
8,19121552652905E-9;
8,97982955652991E-9;
7,19879359783676E-9;
1,39087933355242E-9;
-6,72839498638823E-9;
-1,34107708375906E-8;
-1,57028271474286E-8;
-1,36459452148949E-8;
-1,00442272804589E-8;
-8,04209092670297E-9;
-8,50800318229612E-9;
-9,38398952228047E-9;
-7,55090124512523E-9;
-1,62217726944031E-9;
6,63226123921179E-9;
1,34297170596393E-8;
1,5788459646915E-8;
1,37042706007315E-8;
9,95067648082826E-9;
7,69714813571308E-9;
7,91333305961692E-9;
8,6988906624113E-9;
7,04651299701884E-9;
1,55736387341456E-9;
-6,15119232134245E-9;
-1,25276157001581E-8;
-1,47634010791902E-8;
-1,28844389028983E-8;
-9,5433734875695E-9;
-7,71344798844924E-9;
-8,21432649001019E-9;
-9,09520492345351E-9;
-7,39223313152063E-9;
-1,78547278260319E-9;
6,05258658994303E-9;
1,25393150891638E-8;
1,48417923126318E-8;
1,29388778097293E-8;
9,43868124493116E-9;
7,33889733991493E-9;
7,5682010169563E-9;
8,34060101573855E-9;
6,82099448744736E-9;
1,67903902323898E-9;
-5,57578185550685E-9;
-1,16029021007357E-8;
-1,37605524394852E-8;
-1,20607266917565E-8;
-8,98539204361672E-9;
-7,32747950966031E-9;
-7,85154453000277E-9;
-8,72393810101779E-9;
-7,15603152396076E-9;
-1,90021671742446E-9;
5,47680703137069E-9;
1,16119307961272E-8;
1,38335903816494E-8;
1,2108003063838E-8;
8,87312337069551E-9;
6,93485204520514E-9;
7,17142597096525E-9;
7,92271863045001E-9;
6,53586904417195E-9;
1,75855899688212E-9;
-5,00962029820314E-9;
-1,06588599202107E-8;
-1,2720667130584E-8;
-1,11960271792517E-8;
-8,3895199240598E-9;
-6,89848471597108E-9;
-7,43586617085104E-9;
-8,29002159747178E-9;
-6,85756247455999E-9;
-1,97260362460533E-9;
4,91262738273912E-9;
1,06658131254307E-8;
1,27881471281242E-8;
1,12374108358251E-8;
8,27122488610366E-9;
6,49587403340223E-9;
6,73689169699058E-9;
7,45974108838716E-9;
6,2046304229833E-9;
1,80415371496388E-9;
-4,46017519492878E-9;
-9,71321128178663E-9;
-1,1663512630156E-8;
-1,03076872815891E-8;
-7,76906009580712E-9;
-6,44152680014342E-9;
-6,98166677945608E-9;
-7,80712645241526E-9;
-6,51061429162553E-9;
-2,00615447042282E-9;
4,36709850774686E-9;
9,71437703804404E-9;
1,17258354395242E-8;
1,03463245608248E-8;
7,64767571672222E-9;
6,03552952176772E-9;
6,27663622246233E-9;
6,96655149242796E-9;
5,84135093286255E-9;
1,81759523794412E-9;
-3,93442649851977E-9;
-8,77853563237953E-9;
-1,0609836074905E-8;
-9,4151191257328E-9;
-7,13526065379306E-9;
-5,96473860235099E-9;
-6,50223451782684E-9;
-7,29316615241733E-9;
-6,12850245689502E-9;
-2,00880056033108E-9;
3,84419967088297E-9;
8,77761286318474E-9;
1,0666287553441E-8;
9,44908185440674E-9;
7,01513146671307E-9;
5,56318296557767E-9;
5,80127362872788E-9;
6,45437838743353E-9;
5,453604586225E-9;
1,8039823926673E-9;
-3,43513478085032E-9;
-7,86748130482027E-9;
-9,57224115351912E-9;
-8,53078586132213E-9;
-6,50391428059989E-9;
-5,48039996436406E-9;
-6,0052141636002E-9;
-6,75764611484633E-9;
-5,72091218756407E-9;
-1,98250383174095E-9;
3,34873017939329E-9;
7,86383327198066E-9;
9,62367840207263E-9;
8,56124563537234E-9;
6,38443513701167E-9;
5,08907337628679E-9;
5,32218574498737E-9;
5,93289570689695E-9;
5,05118678236611E-9;
1,76985316145515E-9;
-2,96506508660163E-9;
-6,98985605139552E-9;
-8,56485699911789E-9;
-7,66726058967041E-9;
-5,87942768951717E-9;
-4,99495407050555E-9;
-5,50503464913009E-9;
-6,21330274106724E-9;
-5,29930498783447E-9;
-1,93536708418664E-9;
2,88533694091822E-9;
6,98568245403371E-9;
8,61062054642127E-9;
7,693733568097E-9;
5,76332913419077E-9;
4,61593087187384E-9;
4,84234542776951E-9;
5,41258328958972E-9;
4,64393212383491E-9;
1,71590902424444E-9;
-2,5273749982628E-9;
-6,15162336294467E-9;
-7,59671580633814E-9;
-6,83324296836625E-9;
-5,27263554652195E-9;
-4,51785272284845E-9;
-5,00686252683928E-9;
-5,66789697143289E-9;
-4,86975532764735E-9;
-1,86773376760754E-9;
2,45312500846014E-9;
6,14633555145486E-9;
7,63771801837818E-9;
6,85602935935125E-9;
5,15961304924258E-9;
4,15519332630042E-9;
4,37278274513294E-9;
4,89764099914798E-9;
4,23551748543795E-9;
1,64749185562102E-9;
-2,12429371154024E-9;
-5,36013999525257E-9;
-6,67511378296163E-9;
-6,03491458797796E-9;
-4,68748584547734E-9;
-4,05372904332916E-9;
-4,51733107739878E-9;
-5,13081234887487E-9;
-4,44230458257581E-9;
-1,78556314192391E-9;
2,05488332118339E-9;
5,35553771107658E-9;
6,71237062132663E-9;
6,05427426148052E-9;
4,58129955402844E-9;
3,71047222154616E-9;
3,91584111724637E-9;
4,39763727769723E-9;
3,83423837483565E-9;
1,56758361565087E-9;
-1,75436454610955E-9;
-4,61938380820687E-9;
-5,80612255869998E-9;
-5,28046501503088E-9;
-4,13022359621004E-9;
-3,60360067611214E-9;
-4,04184205201602E-9;
-4,60621948232314E-9;
-4,01925379263421E-9;
-1,69225994695331E-9;
1,69164714752284E-9;
4,61491155772039E-9;
5,83949190433638E-9;
5,29581313718488E-9;
4,02923359157039E-9;
3,28245806350336E-9;
3,4762483348235E-9;
3,91572495073054E-9;
3,44302686030233E-9;
1,47761406791017E-9;
-1,4193661810401E-9;
-3,93304736368701E-9;
-4,99477158235054E-9;
-4,56871223779263E-9;
-3,60260470972406E-9;
-3,17746118434684E-9;
-3,58593655355253E-9;
-4,10192625590709E-9;
-3,60855812876935E-9;
-1,5883208687543E-9;
1,36229170562213E-9;
3,92613294533217E-9;
5,02403063689292E-9;
4,58408916861377E-9;
3,50888443986425E-9;
2,87741959208599E-9;
3,05918566867275E-9;
3,45566254504641E-9;
3,06484861369272E-9;
1,38229107670026E-9;
-1,11715759198072E-9;
-3,30130809592962E-9;
-4,24303824667332E-9;
-3,90884046218501E-9;
-3,10915869830029E-9;
-2,7726434094035E-9;
-3,15269898548504E-9;
-3,61981695929757E-9;
-3,21185219838854E-9;
-1,48137774591672E-9;
1,06583306595842E-9;
3,29341158486511E-9;
4,26759758182453E-9;
3,92143586298467E-9;
3,02228365530526E-9;
2,49745159752081E-9;
2,66567109000661E-9;
3,0199232670281E-9;
2,7058173071037E-9;
1,28254298804157E-9;
-8,47801142161502E-10;
-2,72296346111783E-9;
-3,55276063001165E-9;
-3,29939949103273E-9;
-2,65029885582631E-9;
-2,39437249148194E-9;
-2,74388436562512E-9;
-3,16372625921374E-9;
-2,83395928081919E-9;
-1,36897551034691E-9;
8,02399450046954E-10;
2,71556106709923E-9;
3,57327308095804E-9;
3,30910223409016E-9;
2,57091901459474E-9;
2,14207133038666E-9;
2,2970735225649E-9;
2,61278542846086E-9;
2,36578359197888E-9;
1,18176182368023E-9;
-6,09376238137686E-10;
-2,20001678511234E-9;
-2,92155954910516E-9;
-2,74013204721301E-9;
-2,22791476435374E-9;
-2,04290525905807E-9;
-2,36185327301197E-9;
-2,73688724100143E-9;
-2,47723220976468E-9;
-1,2555080933342E-9;
5,7029419489503E-10;
2,1924421911036E-9;
2,9400669411824E-9;
2,75025252050537E-9;
2,1562926431061E-9;
1,81341290177548E-9;
1,95539985156335E-9;
2,23282205209213E-9;
2,04555656944415E-9;
1,07845687490578E-9;
-4,01638922040248E-10;
-1,72990002307796E-9;
-2,35129392215632E-9;
-2,23362091492173E-9;
-1,84328596713342E-9;
-1,71964432436788E-9;
-2,0085236099699E-9;
-2,33898742386066E-9;
-2,14170688817211E-9;
-1,14322266318211E-9;
3,67359972599603E-10;
1,72305095022646E-9;
2,36652225587116E-9;
2,24064461242933E-9;
1,77709851857399E-9;
1,51211091491311E-9;
1,6411475428777E-9;
1,88320943370602E-9;
1,74987494873874E-9;
9,77078143021122E-10;
-2,23024407873367E-10;
-1,31166600437805E-9;
-1,84045705819414E-9;
-1,77704660143648E-9;
-1,4928135295374E-9;
-1,42216867243124E-9;
-1,682222478697E-9;
-1,97232544311121E-9;
-1,82974097159645E-9;
-1,03210782921069E-9;
1,91026218614255E-10;
1,30441115301566E-9;
1,85328236044513E-9;
1,782614670138E-9;
1,43449531821843E-9;
1,23793500259862E-9;
1,35284607517313E-9;
1,56208974743838E-9;
1,47578527051296E-9;
8,78166734580291E-10;
-6,84918387952536E-11;
-9,42014951340263E-10;
-1,38528262156075E-9;
-1,36842220633604E-9;
-1,17802163588106E-9;
-1,15291797126677E-9;
-1,38580594635627E-9;
-1,63699473750742E-9;
-1,54231103623084E-9;
-9,24451814062482E-10;
4,21072516139087E-11;
9,36468634303009E-10;
1,396710699437E-9;
1,37259321881997E-9;
1,12633299788155E-9;
9,90256772137876E-10;
1,09301436021201E-9;
1,2715056704628E-9;
1,22393256616736E-9;
7,82441550004375E-10;
6,1961407661232E-11;
-6,19896885498054E-10;
-9,84897277622089E-10;
-1,00655855368995E-9;
-8,97411559512045E-10;
-9,11121176701489E-10;
-1,11684674474648E-9;
-1,33159285192091E-9;
-1,27844843284959E-9;
-8,18378389685778E-10;
-8,17574046979598E-11;
6,13754110923953E-10;
9,93335130629519E-10;
1,00942895639175E-9;
8,51226210457991E-10;
7,67740962409112E-10;
8,59559462618991E-10;
1,00934105449892E-9;
9,95773215595939E-10;
6,89820110042451E-10;
1,68098798439045E-10;
-3,40346386727937E-10;
-6,34837088096853E-10;
-6,89406686657809E-10;
-6,48813821440692E-10;
-6,94297064621613E-10;
-8,74440694806374E-10;
-1,05630724832995E-9;
-1,03957174573074E-9;
-7,1931030104116E-10;
-1,85101726330684E-10;
3,35447436813896E-10;
6,42397323639367E-10;
6,91358923060913E-10;
6,08794310760587E-10;
5,70030541094954E-10;
6,49923407540361E-10;
7,74509330140049E-10;
7,90098882604662E-10;
6,02035672432854E-10;
2,55662833289508E-10;
-1,01972824091582E-10;
-3,33505731103339E-10;
-4,13428934151294E-10;
-4,32541321390968E-10;
-5,04506689236557E-10;
-6,59116515823086E-10;
-8,10543201894185E-10;
-8,23268289304132E-10;
-6,24456522374581E-10;
-2,69010971272936E-10;
9,78907247626862E-11;
3,38204148865797E-10;
4,14161172810535E-10;
3,98151850901385E-10;
3,96723866656616E-10;
4,65827658066512E-10;
5,65656248188133E-10;
6,05155344813584E-10;
5,21107621245386E-10;
3,24541228646015E-10;
9,84144357194597E-11;
-7,54513414706336E-11;
-1,76159893989499E-10;
-2,43489087292781E-10;
-3,36175102306064E-10;
-4,68723685927973E-10;
-5,92533625731028E-10;
-6,30779041765841E-10;
-5,3661320632647E-10;
-3,34114863108443E-10;
-1,01725177422292E-10;
7,98062454258573E-11;
1,76907041132456E-10;
2,14400863343982E-10;
2,45126146773967E-10;
3,04845173994318E-10;
3,83276233695945E-10;
4,41936249561325E-10;
4,43992641798045E-10;
3,77076474954008E-10;
2,64995636883676E-10;
1,41369971012468E-10;
2,51101480926135E-11;
-8,21650179531425E-11;
-1,90568054008068E-10;
-3,02902027311931E-10;
-4,02065129405766E-10;
-4,59425979506076E-10;
-4,53814518023697E-10;
-3,83924515085147E-10;
-2,68211644143279E-10;
-1,3811107957139E-10;
-2,39750296652563E-11;
5,8709101096692E-11;
1,15436359030986E-10;
1,65469026574772E-10;
2,25889739699572E-10;
3,00450289828701E-10;
3,72842493663154E-10;
4,14493394374074E-10;
3,99912717627564E-10;
3,19616604916674E-10;
1,92032911127519E-10;
5,36435877271098E-11;
-6,58765504040322E-11;
-1,58629010434406E-10;
-2,35675726460372E-10;
-3,09671570587427E-10;
-3,78393946522576E-10;
-4,19690460305514E-10;
-4,03168683800718E-10;
-3,18223593746952E-10;
-1,92507108750845E-10;
-7,38219154175707E-11;
4,65965963343119E-12;
4,57838571822684E-11;
8,82901654864841E-11;
1,74499589468767E-10;
3,0717666289524E-10;
4,40145123645849E-10;
5,06884048692087E-10;
4,64959808682333E-10;
3,30744549132763E-10;
1,68231373512716E-10;
3,95987431548481E-11;
-3,57883564782654E-11;
-9,17655016837119E-11;
-1,78513443837013E-10;
-3,0922561928425E-10;
-4,42912880504836E-10;
-5,09031107760181E-10;
-4,63752573413618E-10;
-3,30986765748196E-10;
-1,84017920118233E-10;
-8,88446392510691E-11;
-5,56632188873172E-11;
-2,83489151773455E-11;
6,70285310103554E-11;
2,47816400651019E-10;
4,54758033795504E-10;
5,88744620469369E-10;
5,7914065522092E-10;
4,40828825364047E-10;
2,59622707411447E-10;
1,27207903703369E-10;
6,86414330766834E-11;
2,92208506761853E-11;
-6,62376750273429E-11;
-2,46873269143769E-10;
-4,57063669111124E-10;
-5,90902342480145E-10;
-5,78584526999145E-10;
-4,4140780330586E-10;
-2,73379344496117E-10;
-1,65951943696843E-10;
-1,39384806249205E-10;
-1,24128858771713E-10;
-2,30907424350383E-11;
1,93988447859523E-10;
4,60152639569129E-10;
6,49577693763101E-10;
6,6769209112203E-10;
5,27240774450454E-10;
3,34054398254902E-10;
1,99659977156101E-10;
1,54142159351954E-10;
1,31565149614679E-10;
2,96851082772159E-11;
-1,90886877139005E-10;
-4,6051080833353E-10;
-6,50911256189407E-10;
-6,67654858805326E-10;
-5,27545797562413E-10;
-3,42542030917281E-10;
-2,26863191001567E-10;
-2,08018314372173E-10;
-2,05125668381743E-10;
-1,01478008824624E-10;
1,45790647846277E-10;
4,57753607657659E-10;
6,89320933223502E-10;
7,30836437797911E-10;
5,91068586202524E-10;
3,90411812095389E-10;
2,5659046434624E-10;
2,23690751198188E-10;
2,13827432262439E-10;
1,08837125357608E-10;
-1,40686575574025E-10;
-4,56830327853771E-10;
-6,89790891414409E-10;
-7,31631635038972E-10;
-5,93281385990706E-10;
-3,9762262285524E-10;
-2,76975772115011E-10;
-2,6252039168385E-10;
-2,67518484591886E-10;
-1,63750263488723E-10;
1,02667824251635E-10;
4,48811514006208E-10;
7,12816444937396E-10;
7,72538787356594E-10;
6,36947584643053E-10;
4,34461630248142E-10;
3,01510395317633E-10;
2,79410980898828E-10;
2,81604598118536E-10;
1,73769711771688E-10;
-9,51363922089521E-11;
-4,44957471671882E-10;
-7,1320437436951E-10;
-7,73910844842595E-10;
-6,38662529205825E-10;
-4,37979688837352E-10;
-3,13336962276123E-10;
-3,0449030040898E-10;
-3,18303340033921E-10;
-2,14287605846352E-10;
6,5020565912892E-11;
4,34110597116155E-10;
7,2207036331016E-10;
7,96594851422043E-10;
6,65411801273081E-10;
4,62966182052145E-10;
3,34835869641754E-10;
3,22624055181404E-10;
3,33774963587363E-10;
2,27292575000292E-10;
-5,6492533397571E-11;
-4,31229963438883E-10;
-7,22259703318722E-10;
-7,98366305705757E-10;
-6,67126488605832E-10;
-4,64331623691665E-10;
-3,39983742292169E-10;
-3,35549113004865E-10;
-3,55556289434648E-10;
-2,53473902651542E-10;
3,2737272228429E-11;
4,1588572636383E-10;
7,19291700121886E-10;
8,05447672448193E-10;
6,80034627394836E-10;
4,80567935726446E-10;
3,57639031329192E-10;
3,5365692634745E-10;
3,72625841480313E-10;
2,6833394966386E-10;
-2,22485761850129E-11;
-4,11734791071554E-10;
-7,19003240564621E-10;
-8,06640402439268E-10;
-6,80921014560892E-10;
-4,79627414469223E-10;
-3,56893097933239E-10;
-3,56974325589033E-10;
-3,82951462278038E-10;
-2,838477967129E-10;
4,44178480816878E-12;
3,94477097132591E-10;
7,06714464370202E-10;
8,00374287421059E-10;
6,81921570700008E-10;
4,88192024302975E-10;
3,71318310986273E-10;
3,74966270592795E-10;
4,00018180060392E-10;
2,99181950653015E-10;
7,18824140723809E-12;
0,00933343365702132;
0,0226297291193973;
0,0163727364735733;
0,00943309549387863;
0,0121693912992799;
0,00702616696377091;
0,00563481675950041;
0,00458270965379748;
0,000840499785220988;
0,00103239235198745;
-0,00119043912598927;
-0,00199195197308055;
-0,0028071361509211;
-0,00455368064627005;
-0,00488732451178811;
-0,00585590033085283;
-0,00594121688579209;
-0,0061824879053894;
-0,00699357634743741;
-0,00792070351540099;
-0,00934888835792208;
-0,0102428893955513;
-0,0105185001820821;
-0,0101085238186302;
-0,00920766515089654;
-0,00843029717142545;
-0,00783043454468503;
-0,00745747190511565;
-0,00704805359721359;
-0,00641867710915147;
-0,00567545328913532;
-0,00495848661582128;
-0,00445308065330568;
-0,00409076675396695;
-0,00366382538831846;
-0,00302656705990443;
-0,00222823215228249;
-0,00157282864665043;
-0,0013610761249514;
-0,00166524552270328;
-0,00222572576018224;
-0,00258706242937138;
-0,00240676308420602;
-0,00165718537481206;
-0,00062473449165654;
0,000316669330573938;
0,000963663147929991;
0,00137586845959307;
0,00176513142259134;
0,00227846187451481;
0,00287371215342247;
0,00337820967583032;
0,00366494300332293;
0,00378442622504278;
0,00392474810351862;
0,00423344843526064;
0,00465410353883708;
0,00492912991378219;
0,00478539645769168;
0,00416205597645031;
0,00329839380462583;
0,00260120431343629;
0,00238404602765954;
0,002671333836082;
0,00320917016770335;
0,00366539519908466;
0,0038587678982782;
0,00384594424324131;
0,00381730469709591;
0,00390618880389983;
0,00407638959619824;
0,00417462054366343;
0,00408914885466085;
0,00386593911612716;
0,0036739512237459;
0,00364551971925018;
0,00373088414564852;
0,00370125668207865;
0,00331394928180115;
0,00251555492078796;
0,00151956408962676;
0,000688088196251409;
0,000299920812803186;
0,000376495728794324;
0,000692034565279579;
0,000951432034578831;
0,000993754911743691;
0,000869183095067589;
0,000746304326787747;
0,000742935755788141;
0,000826536179491727;
0,000860915428211982;
0,000746776104650337;
0,000524377318942887;
0,00034264224276956;
0,000317919154062348;
0,000405552874820482;
0,000402860817602189;
9,51200049361344E-5;
-0,000565180857881186;
-0,0107236167445556;
-0,0246910043294648;
-0,0187063551405525;
-0,0116223598678334;
-0,0139972391588594;
-0,00853592323060792;
-0,00701192161785152;
-0,00596902324234256;
-0,00223034021184834;
-0,00231727188231311;
8,97663694152789E-5;
0,00103463660270086;
0,00186474352155141;
0,0035326031343284;
0,00382392704821558;
0,00488786360250794;
0,00516656290114935;
0,00552145659826465;
0,00617835312752077;
0,00664177274993276;
0,00746064851623947;
0,00787759547105858;
0,00802158564674244;
0,00784052958753865;
0,00735462408800146;
0,00695105561691196;
0,00655991757551971;
0,00626843138041444;
0,00594145045414486;
0,00548465803005379;
0,00497855096559618;
0,0044587970556528;
0,00403463738819116;
0,0036678341395434;
0,00326335466738641;
0,00276323524626813;
0,00218227019277686;
0,00167055034311221;
0,00136622463298901;
0,00130576074154916;
0,00137147106568685;
0,00134804300397189;
0,00107699016843407;
0,000543583301230079;
-0,000116334874896282;
-0,000724583458170657;
-0,00118434735152426;
-0,00152244970626509;
-0,00184024542746863;
-0,00220794469256506;
-0,00260531798710078;
-0,00294924111513924;
-0,00317776810862008;
-0,00331523351780233;
-0,00345292195390647;
-0,00366309197379989;
-0,00391872167416728;
-0,00409377804101074;
-0,00405387328461215;
-0,00376838319477214;
-0,00335502062654428;
-0,00301538567592816;
-0,00290602887493658;
-0,00304040690783791;
-0,00329290997894476;
-0,00349792704900338;
-0,00356466154039263;
-0,00352164953538133;
-0,00346521669775903;
-0,00346340016427685;
-0,00349852981861846;
-0,00349315040132631;
-0,00339049989628501;
-0,0032141948479392;
-0,00305115629166223;
-0,00297002094605268;
-0,00294586713866238;
-0,00286092425393464;
-0,00258939467378885;
-0,00210309144700721;
-0,00151283628384368;
-0,00100788098575348;
-0,000734996708927681;
-0,000706571234870017;
-0,00080473258050936;
-0,000874202975776426;
-0,000829830256442549;
-0,000698123105937325;
-0,000568859228650595;
-0,000505246980924931;
-0,00049030730285018;
-0,00045122466778433;
-0,00033454830638345;
-0,000161838950084196;
-1,36440081795009E-5;
4,6654665923778E-5;
4,29418431255212E-5;
8,55697904979341E-5;
0,000292251224113987;
0,000689730570298334;
0,0105088470341463;
0,0242036182440001;
0,0181221661886734;
0,0111244132754548;
0,0136792175667403;
0,00837599933404267;
0,00692578971965351;
0,00589191931117503;
0,00216235047955956;
0,00230329600078109;
-1,77248079505334E-5;
-0,000896648701147114;
-0,00171846516606628;
-0,00342035179383431;
-0,00373210089840236;
-0,00475966977482486;
-0,00496229454754948;
-0,00527677574759902;
-0,00600789896629238;
-0,00667693035796045;
-0,007763345076267;
-0,00839345710861793;
-0,00860788518677738;
-0,00834892829737077;
-0,00770932347596988;
-0,00716972914603527;
-0,00671066279423258;
-0,00640352581103014;
-0,00606092534850804;
-0,00555255786071294;
-0,00496937483115893;
-0,00438888083676737;
-0,00395041429423327;
-0,00360340406057049;
-0,00320810433224432;
-0,00267213771632122;
-0,00202402193675317;
-0,00147389489435368;
-0,00122260927555866;
-0,00131973353858611;
-0,00159232189105892;
-0,0017329265264481;
-0,00151332976040344;
-0,000914597635636544;
-0,000129950708083535;
0,000588791123830261;
0,00110524301305984;
0,00145873812410272;
0,00179160378633355;
0,00220215846094477;
0,00266194268647746;
0,00305520037759186;
0,00329662086326843;
0,00342020659717762;
0,00355195438414341;
0,0037907152733168;
0,00409878023976983;
0,00430378696343338;
0,00422319769155841;
0,00381655247389004;
0,00324415822162225;
0,00277820554493504;
0,00262839175280279;
0,00281114957269089;
0,003157023518436;
0,00344444211227845;
0,00355270986915372;
0,00351993272032723;
0,00347338798883376;
0,00350222603016907;
0,00358253322224494;
0,00361240478240514;
0,00351769281106078;
0,00332931465183968;
0,00316003128641836;
0,00309813942616858;
0,00311072486905529;
0,00304584036709126;
0,00274241907172669;
0,00216531556295298;
0,0014567279432886;
0,000857437447543063;
0,000552700807629549;
0,000556798496523359;
0,000719963952306848;
0,000846559109030213;
0,000830055152449263;
0,000703925506845539;
0,00058005628474124;
0,000536599005114649;
0,000552074588415478;
0,000536412360757555;
0,000424024444991685;
0,00024167760842168;
8,79493006270503E-5;
3,9782984010915E-5;
6,76618317644222E-5;
3,77158144242582E-5;
-0,000191749717775728;
-0,000651932174843369;
-0,00121870979342591;
-0,00168185395148023;
-0,00187999439538166;
-0,00180147058743036;
-0,00157799760873966;
-0,00138117944522502;
-0,00130459233345343;
-0,0013195197110655;
-0,00132889020028308;
-0,00126515701954423;
-0,00114764897125628;
-0,00105537562054787;
-0,00104590931687968;
-0,00109638806978633;
-0,00112153222607355;
-0,00105496313671131;
-0,000922834108190418;
-0,000841816421618289;
-0,000935173167298731;
-0,00123014812788797;
-0,00161931362282954;
-0,0019207914323573;
-0,00199524391824717;
-0,00183304974931018;
-0,00154856611671654;
-0,00129043797526576;
-0,00113967357029777;
-0,00107156767479626;
-0,00100245486402755;
-0,000874231886510131;
-0,000703729190747615;
-0,000559130906039809;
-0,000490040744046542;
-0,000476768096882468;
-0,00044596929920105;
-0,000340641095367207;
-0,0001833179215086;
-7,41679295079081E-5;
-0,000118832011615656;
-0,000340448408184021;
-0,000646723503919085;
-0,000881754807649544;
-0,000926285117788193;
-0,000772172200542294;
-0,000517236013531256;
-0,000288415493565878;
-0,00015470547588409;
-9,48100907560089E-5;
-3,72049429356129E-5;
6,77438459713789E-5;
0,00020580076551147;
0,000319072991149143;
0,000365570766355192;
0,000362254417901928;
0,000371608352816143;
0,000442140292119837;
0,000554831499401017;
0,000624920537863921;
0,000563171963390233;
0,000350328649975391;
6,47753926471757E-5;
-0,000161503592152783;
-0,000227718090513684;
-0,000127028686980113;
5,80413136324039E-5;
0,000220583116470526;
0,000302666651421677;
0,0003224238143137;
0,000340167881034301;
0,00039770099867521;
0,000483131189320941;
0,00054797315529809;
0,000557164021278455;
0,000525070649138104;
0,000504113042790656;
0,000534908227483263;
0,000601571373728484;
0,000633373599397097;
0,000556007241605351;
0,000353642003506745;
9,17814037432936E-5;
-0,000119629068359058;
-0,000196826355783236;
-0,000134273703409444;
-6,11151448635776E-7;
0,000115449498559485;
0,000165961092636196;
0,000166027197854359;
0,00016558656576766;
0,000199164002199028;
0,000256885544410634;
0,000298727995712418;
0,000295821861596802;
0,000260045180862417;
0,000234527185081171;
0,000252587055638757;
0,00030109110729835;
0,000321981766538379;
0,000254427924825597;
8,56067041658352E-5;
-0,00946422915313823;
-0,0229346837086077;
-0,0167413884779251;
-0,00975069283797912;
-0,0123772787920856;
-0,00713795155101144;
-0,00570306318708288;
-0,00464768854310271;
-0,000902001510737258;
-0,0010623213595874;
0,00121209313851745;
0,00205279994483739;
0,00287148774351145;
0,00459543905815113;
0,00491509568968935;
0,00590499674259099;
0,00603629247887134;
0,00630157269053302;
0,0070660218862797;
0,00786573738208025;
0,00912875565065677;
0,00989151659032182;
0,0101240355290888;
0,00976230518750907;
0,00895625290064903;
0,00826281691342724;
0,00770515835567562;
0,00734245467957459;
0,00694334709151152;
0,00634627943322977;
0,00565091453258267;
0,00497183323026518;
0,00447606324409741;
0,00410270679385579;
0,00367122013780713;
0,00305672752918948;
0,00230006682731953;
0,00166889928772596;
0,0014261769516882;
0,00163648735704597;
0,00207371769601885;
0,00233790328873902;
0,00212830235320388;
0,00141952327843411;
0,000463346107430551;
-0,000410470165200531;
-0,0010221539070837;
-0,00142375587086205;
-0,00180265940986068;
-0,00228918899017726;
-0,00284615373690904;
-0,0033202526397119;
-0,00359825192717505;
-0,00372487143795831;
-0,00386769392230414;
-0,00415865728569037;
-0,00454770942889677;
-0,00480446368878981;
-0,00468385487727389;
-0,00413054348928611;
-0,00335875039056153;
-0,00273412148515622;
-0,00253949670345161;
-0,00279784969054457;
-0,00328089984969881;
-0,00368888868693452;
-0,00385773540346507;
-0,00383847656693062;
-0,00380368263702981;
-0,00387464756971557;
-0,00401879697018868;
-0,00409678184383416;
-0,00400667850437642;
-0,00379022541800153;
-0,00360175542819099;
-0,00356259081915512;
-0,00362755240936422;
-0,0035869976413806;
-0,00321777696490429;
-0,0024700895307882;
-0,0015397851589301;
-0,00076043206470715;
-0,000389793225628996;
-0,000448570203986325;
-0,000728700156141966;
-0,000957173882814772;
-0,00098459256468077;
-0,000857237162149027;
-0,00073171917375376;
-0,000717876965510366;
-0,000785649937502041;
-0,000808043367951927;
-0,000692112445052948;
-0,000475271475116696;
-0,000296958111345525;
-0,000266519586942253;
-0,000342326949239582;
-0,000333834050125069;
-3,84410953421253E-5;
0,000589396614961222;
0,00137298551097803;
0,00201128431653305;
0,00227205929331867;
0,00213747641414118;
0,00179631457678899;
0,00149580243318061;
0,00137139127155476;
0,00138189852039013;
0,00138669607737772;
0,0012874303653255;
0,00111185596486531;
0,000974969635834196;
0,000960985202773985;
0,00103671932457728;
0,00107723936825239;
0,000984766216587189;
0,000797272765248721;
0,000686444285467624;
0,000834594660971889;
0,00128286071620382;
0,00187291248357381;
0,00233502055664054;
0,00246136959605305;
0,00223644181440155;
0,00182978199220545;
0,00146308820929134;
0,00125779191407653;
0,0011771736634802;
0,00109560106894966;
0,000925323553811804;
0,000691320325871919;
0,00049643364397788;
0,000415900959521951;
0,000420108117531041;
0,000397614906377842;
0,000261280857530325;
4,50129180686289E-5;
-9,82221909956772E-5;
-6,16341406524792E-6;
0,000357616843183695;
0,000852031282570466;
0,00123704460304724;
0,00132787226445366;
0,00111075356579362;
0,000736290969460104;
0,000401236644394458;
0,000213182705544956;
0,000139346582783262;
6,81489664009282E-5;
-7,83192093903585E-5;
-0,000278050237674305;
-0,000440131262013288;
-0,000498174588055169;
-0,000478608002799362;
-0,000480179937695582;
-0,000580064361062746;
-0,000748429919521404;
-0,000850351836235446;
-0,000742840073868656;
-0,000394054738822645;
7,12863409503703E-5;
0,0004413811420947;
0,000553310906902987;
0,000394912137381594;
9,86977584416872E-5;
-0,000162342490173392;
-0,000293773615983917;
-0,000324610280008951;
-0,000353045240794881;
-0,000447603753328871;
-0,000589054120331856;
-0,000697742260460136;
-0,000715594587165703;
-0,000665925634448435;
-0,000635360739603621;
-0,000691538057954797;
-0,000808385174477053;
-0,000867937949516882;
-0,000745302782930162;
-0,000412830285335625;
2,03812896258434E-5;
0,00036933926877186;
0,000491895632347676;
0,000377511525537792;
0,000141756629695616;
-6,46509866350294E-5;
-0,000159529767582208;
-0,000168193152955081;
-0,000176081823112349;
-0,000242750893645742;
-0,00035144796259619;
-0,000432973228230246;
-0,000436930721961161;
-0,000383571723671299;
-0,000348004339226721;
-0,000388794161951036;
-0,000483283658518664;
-0,000529305219071591;
-0,000418813931278506;
-0,00012796480072244;
0,000248894723051025;
0,000551979680590437;
0,000658667484929306;
0,000560008342808412;
0,000355790691292555;
0,000175980643519418;
9,13827330586942E-5;
8,02124836924841E-5;
6,89984500467235E-5;
6,60851454715176E-6;
-9,24749275142682E-5;
-0,00016876052229583;
-0,000178968334790912;
-0,000140457340081452;
-0,000117578541529654;
-0,000160431491051825;
-0,000249524905958653;
-0,000297375117773994;
-0,000211589491516394;
2,81585346973378E-5;
0,000341240313223563;
0,000591283869878409;
0,000673780045680355;
0,00058122991581603;
0,000398757157510647;
0,000237064367694923;
0,000156394493522176;
0,000138216086411328;
0,000120120693599519;
5,87446876485975E-5;
-3,35633019276141E-5;
-0,000106324816503147;
-0,000122869449510851;
-9,79121469174004E-5;
-8,58983271619376E-5;
-0,000129147485928262;
-0,000211133108306033;
-0,00025796135691196;
-0,000191710945402797;
4,67268729226276E-6;
0,000263177554942875;
0,000468968500104705;
0,000534175266405105;
0,000452586409842918;
0,000295783709193772;
0,000156709309608507;
8,58608693834763E-5;
6,76658729391561E-5;
4,98476081529691E-5;
-3,85851933583104E-6;
0,00925033505001366;
0,0224840303693858;
0,0162116563564221;
0,00929153682867153;
0,0120368649360411;
0,00685696416895569;
0,00539701071790665;
0,00430579995252929;
0,000618644885485037;
0,000973799465774332;
-0,00103404841198412;
-0,00166401909732298;
-0,00242378926924432;
-0,00423610623433942;
-0,00469751179482644;
-0,00577912008661517;
-0,00592114134236337;
-0,00617566924518939;
-0,0069996142479781;
-0,00796900199414683;
-0,00946032356803391;
-0,0104037293472598;
-0,0106899792185747;
-0,010262008613074;
-0,00935168071252042;
-0,00860213563506389;
-0,00805610221045926;
-0,00771287225035204;
-0,00725646675366224;
-0,00649205179016164;
-0,0149051892157782;
-0,0273427257880126;
-0,0205327341040906;
-0,0132813978166198;
-0,0156916010259678;
-0,0100001621744423;
-0,00785416157907089;
-0,00615540875719022;
-0,00220996861982831;
-0,00273827401253653;
-0,00112500210816954;
-0,000722958440932108;
0,000265377582386031;
0,00277718816451266;
0,00415208806715014;
0,00604104994733982;
0,00673156267223855;
0,00736236957744208;
0,00860097475204681;
0,0101495093021367;
0,0123142641816075;
0,0138260791791629;
0,014427205074326;
0,0140978910461325;
0,0132588397846042;
0,0127208191826326;
0,0125077624821802;
0,0124032542364116;
0,0118436199577199;
0,0105658018912133;
0,00892061392500212;
0,00747662849692648;
0,00674827959435843;
0,00668514707396454;
0,00680255694153573;
0,00660493548058505;
0,00596732186413746;
0,00528118065050489;
0,00506973978614742;
0,00554534632547276;
0,00638403144740999;
0,00693014757564394;
0,00669398559431441;
0,00569164007661098;
0,00440740940078002;
0,00338466574169472;
0,00279693565198614;
0,00234954826138218;
0,00156745591730243;
0,000236198498505196;
-0,00138447454739129;
-0,00274353356292346;
-0,00342356708034658;
-0,00345843908318102;
-0,00327916427010529;
-0,00334149040410064;
-0,00374466650202002;
-0,00415820005173444;
-0,00411680537587786;
-0,00343699505327012;
-0,00241128703264031;
-0,00161689217006053;
-0,00149238843810061;
-0,00202342188223119;
-0,00278616998806132;
-0,00330537144760452;
-0,00343018078861133;
-0,00342446666050343;
-0,00370796535693133;
-0,00447146505669329;
-0,00548794338954899;
-0,00627403851546485;
-0,00646506366461788;
-0,00609242748917622;
-0,00553668065277515;
-0,00519959045585518;
-0,00516981812086394;
-0,00515935507787077;
-0,00476191682050872;
-0,00381814483947166;
-0,00258492387337245;
-0,00156757859873302;
-0,00114966471031484;
-0,00131863780032127;
-0,0017046870200277;
-0,00189370199024301;
-0,00175509940613638;
-0,00151985948258801;
-0,00155412499373958;
-0,00202377142314786;
-0,00273039731617052;
-0,00325266142921476;
-0,00327301420044606;
-0,00281878942231843;
-0,00222085516711931;
-0,00182826464408529;
-0,001717955138522;
-0,00163993762782064;
-0,0012417496730072;
-0,000385002499251837;
0,00070835395107397;
0,00160178725099954;
0,00196462462915259;
0,00180885300468091;
0,00145484386159556;
0,00126055714842998;
0,00133869060975827;
0,00149003645370959;
0,0013994147682432;
0,000924948830816417;
0,000238877461841206;
-0,000294863487072472;
-0,000402229509359305;
-0,000106272046902335;
0,000308927528132585;
0,000543829993284832;
0,000532700521385408;
0,000490304499523653;
0,000719116431191736;
0,00133808370683917;
0,00215776877674713;
0,00280554242049351;
0,00299973345550894;
0,00275159291180737;
0,00233533846310137;
0,00205657939390084;
0,00201120736585555;
0,00202925261058611;
0,00184247966066728;
0,00133084693681454;
0,000641869857008723;
8,58152490180958E-5;
-0,00010402282043294;
5,2835762922037E-5;
0,00031517838852587;
0,000428823862853823;
0,000337929881338571;
0,000224225619544275;
0,000343516789404467;
0,000796303370767921;
0,00142264743120693;
0,00190834273099711;
0,00201635000316792;
0,00175668262336118;
0,00136050375234688;
0,00108473465788448;
0,00100937483395295;
0,000990959102735573;
0,000804008438154632;
0,000348085726042458;
-0,000252520221783302;
-0,000737338727794069;
-0,000910929051695445;
-0,000789924352864872;
-0,000576500235592918;
-0,000483514612713528;
-0,000558027473831917;
-0,000648882175722063;
-0,000543311301074081;
-0,000157965186328907;
0,000373988809160416;
0,000791575811849639;
0,000898345410624409;
0,000702947317664588;
0,000396995316695514;
0,000192790086002456;
0,000155739544335922;
0,000166526027489423;
3,86254668080441E-5;
-0,000310616729821733;
-0,000778217587816242;
-0,00114920854064022;
-0,00126269908936489;
-0,00113268800248555;
-0,000925757544791114;
-0,000817090211647243;
-0,000845696058394374;
-0,000888168534186063;
-0,000770807037661915;
-0,000425776772931661;
3,81480048210364E-5;
0,000408395496951769;
0,00052541275190563;
0,000396670644261508;
0,000177998431517722;
4,13719752025647E-5;
3,91402214109475E-5;
7,40319712162392E-5;
-5,05702550052751E-6;
-0,000264582159134131;
-0,000620764344868132;
-0,000899713033165124;
-0,000971666374174541;
-0,00084809451849571;
-0,000663252067138314;
-0,000558123964215978;
-0,000564290960405319;
-0,000583236716635643;
-0,000476355672641393;
-0,000189665103828988;
0,000190169103997108;
0,000494285025935232;
0,000596442807960149;
0,000503135498922287;
0,000338094980217475;
0,000237158155343948;
0,00024108316272357;
0,000272555407491165;
0,000212399425352183;
8,77272250400258E-6;
-0,000271746696766122;
-0,000492091650380824;
-0,000550365271607286;
-0,00045569136920318;
-0,00031325997614271;
-0,00023332996195082;
-0,000240749180000598;
-0,000259211474843588;
-0,000181452640751329;
3,41677271592353E-5;
0,000320775052514708;
0,000548570890430959;
0,000621060293531796;
0,000543854037068972;
0,000412048807893575;
0,000329278828945537;
0,000326016768421672;
0,000342775778865779;
0,000288835712128345;
0,000125339907713637;
-9,64963099018281E-5;
-0,00027242158208633;
-0,000325355025800924;
-0,000262344989829696;
-0,000162750341755903;
-0,000109532326183764;
-0,00012156119849306;
-0,000142248901753924;
-9,21476781262987E-5;
5,94147556096758E-5;
0,000263064636911578;
0,000423552214392785;
0,000470654425415048;
0,000409140351067256;
0,000308734481024488;
0,000244582315627035;
0,000238068579076248;
0,00024545405132821;
0,000201118736248257;
7,76099868385582E-5;
-8,74872265758334E-5;
-0,000218934300340013;
-0,000261578894158827;
-0,000220671447120944;
-0,000152837020783408;
-0,000117017174659201;
-0,000126833059650369;
-0,000143050555626504;
-0,00011069037189118;
-8,74218345723492E-6;
0,000128750581176111;
0,00023681112395819;
0,000268207410799081;
0,000226921786301984;
0,000160415356685311;
0,000118877453932126;
0,000115751682491116;
0,000121092175479487;
9,1224266494388E-5;
8,62882248726731E-6;
-0,000101072619739679;
-0,000188030916993027;
-0,000216267574091711;
-0,000189472317315183;
-0,000144435734595891;
-0,000119147604265237;
-0,000122641457882952;
-0,000130782645788628;
-0,000109879657430285;
-4,73269414684334E-5;
3,61480469690725E-5;
0,000101849214288984;
0,000122481894718;
0,000101324256197616;
6,65229618474388E-5;
4,66528751835561E-5;
4,83142168331327E-5;
5,35415487447808E-5;
3,76695205907082E-5;
-8,24021607361697E-6;
-6,89400617679412E-5;
-0,000116550180996797;
-0,000131664003054009;
-0,000116613949448367;
-9,10529294184152E-5;
-7,48734786855631E-5;
-7,31256377367608E-5;
-7,46537481840835E-5;
-6,40699971899814E-5;
-3,59871754694441E-5;
3,16057602003234E-7;
2,87133621130537E-5;
3,90133317747406E-5;
3,3878891477857E-5;
2,48986451005465E-5;
2,21501531931839E-5;
2,64142911828314E-5;
3,00205022553796E-5;
2,45847764484336E-5;
8,49710078241236E-6;
-1,18851457734223E-5;
-2,74686315904726E-5;
-3,29999450120871E-5;
-2,96439215098042E-5;
-2,24214759695553E-5;
-1,57799447422691E-5;
-1,13504885114963E-5;
-8,9955811923702E-6;
-8,8710747599867E-6;
-1,17138496978883E-5;
-1,70860922869228E-5;
-2,19812598662611E-5;
-2,21115209397385E-5;
-1,53504013245031E-5;
-4,12551820793241E-6;
6,01481571637292E-6;
1,09676680984759E-5;
1,17914653181088E-5;
1,38583654157079E-5;
2,1726054483963E-5;
3,4225905035471E-5;
4,45941559387122E-5;
4,61536676117322E-5;
3,87245874056522E-5;
2,96019953463024E-5;
2,73335939660607E-5;
3,31783793985205E-5;
3,80499347325638E-5;
2,87774199276444E-5;
-5,02056772346145E-7;
-4,12312390758169E-5;
-7,44305921036774E-5;
-8,37450089795343E-5;
-6,75165701969603E-5;
-3,98642646737172E-5;
-1,9338070780372E-5;
-1,40762065482284E-5;
-1,57333474077146E-5;
-7,49872987783432E-6;
2,02877391091198E-5;
6,01779563930671E-5;
9,22285559227245E-5;
9,9861147298983E-5;
8,37102070599823E-5;
6,12666589421903E-5;
5,183121577324E-5;
5,90658525875779E-5;
6,62930407666423E-5;
4,96297674996283E-5;
-1,00513131507307E-6;
-7,03909337641685E-5;
-0,000126452796140713;
-0,000142963301071991;
-0,000118670641316075;
-7,72708630917241E-5;
-4,79314492465006E-5;
-4,20575727220316E-5;
-4,53296998782149E-5;
-3,16039447575623E-5;
1,29167218167406E-5;
7,56393039189853E-5;
0,000125873320557851;
0,000138981857369557;
0,000116260058216815;
8,34734771236315E-5;
6,86445632192413E-5;
7,73968120110529E-5;
8,6939518856564E-5;
6,47616511833436E-5;
-2,61364316290883E-6;
-9,46156277251305E-5;
-0,000168670867057854;
-0,000190658367222185;
-0,000159672868364102;
-0,000107077498068591;
-7,05061052688027E-5;
-6,39384612177501E-5;
-6,82641770228283E-5;
-4,99019652409691E-5;
8,21577416524558E-6;
0,00942281104332972;
0,0227840674453032;
0,0165448005838664;
0,00957746989442894;
0,0122729747687013;
0,00711077773495185;
0,00572946172853461;
0,00468881891069385;
0,000920235384235612;
0,00103178325208465;
-0,00130061832160726;
-0,00219017868155102;
-0,00303164266575282;
-0,00474208485393111;
-0,00501456401201985;
-0,00594108881652196;
-0,00601940445165379;
-0,00626588209953846;
-0,00705505954712463;
-0,00791359182771532;
-0,00924641020956049;
-0,0100641104435043;
-0,0103184340184438;
-0,00993996051190181;
-0,00908607082453122;
-0,00833094864126909;
-0,00772020911631305;
-0,00733442925652961;
-0,00695461375749423;
-0,00641539134622248;
-0,0151284301963021;
-0,0278064039623815;
-0,0210736673402645;
-0,013732017649973;
-0,0159740790853381;
-0,0101477182866307;
-0,00795091728982502;
-0,00624941872586114;
-0,00227102848776493;
-0,00269084072844453;
-0,000922715583175832;
-0,000397935389528502;
0,000621433993330029;
0,00308324451374583;
0,00439780293387926;
0,00628304223285931;
0,00702670391279297;
0,00769387493933038;
0,0088622784265849;
0,0102055957704585;
0,0120967869845556;
0,0133890906480656;
0,0139192601718795;
0,0136707903987836;
0,0129816113547554;
0,0125612829021573;
0,012389114617191;
0,0122845157144054;
0,0117574911134038;
0,0105862899506178;
0,00909234134018604;
0,00776851672789742;
0,00707168114975613;
0,00696050494587478;
0,00701680068084337;
0,00680931066890325;
0,00621594902262945;
0,00556197275194092;
0,00528815065963211;
0,00557963102036035;
0,00617209509646941;
0,00652066543128829;
0,00622105746167999;
0,00529161407269245;
0,00414089257338342;
0,00322075615264766;
0,00266600466544749;
0,00221706919020964;
0,00146768462733164;
0,000240730468483968;
-0,0012331685428488;
-0,00247526578303771;
-0,00312320244546938;
-0,00320321202405563;
-0,00308430836066269;
-0,00316106605130871;
-0,00352770185992763;
-0,00391273476716443;
-0,00392601645664907;
-0,00340981992879439;
-0,00260375260443905;
-0,00198558914304608;
-0,00191731138009462;
-0,0023831770289703;
-0,00302811785869707;
-0,00345893720807142;
-0,00355801963051917;
-0,0035552425919101;
-0,00380664843292573;
-0,00446953925581089;
-0,00534537229647353;
-0,00601916028635647;
-0,00617836902069448;
-0,00584811317911466;
-0,00535159607686488;
-0,00503292545329926;
-0,00497399266071921;
-0,00493891934259094;
-0,00458934123382042;
-0,00379008439051221;
-0,00275153026792479;
-0,00189049067611907;
-0,00152241794947048;
-0,00163411337775426;
-0,00191767343514425;
-0,0020319585532333;
-0,00187453373052939;
-0,00164380809511941;
-0,00164740709438333;
-0,00202142432395565;
-0,00259498148709966;
-0,00301085063080211;
-0,00300045617126937;
-0,00258605255134322;
-0,00204588839356109;
-0,00167513225296516;
-0,00154259238774731;
-0,00144389348320413;
-0,00108746944544575;
-0,000357448830048066;
0,000564684106761141;
0,00132048624949273;
0,00163929657697674;
0,0015331354828675;
0,00126709553473447;
0,00113483293053092;
0,00122555659667652;
0,00137096990849033;
0,0013092330346299;
0,000924723462387282;
0,000363358137492394;
-7,05468520966212E-5;
-0,000148556169990006;
0,000110262304757669;
0,000469723820756725;
0,000680233349713793;
0,000685206232614024;
0,000659909812350838;
0,000852682141420112;
0,00136167257492776;
0,00203226794585003;
0,00256007290253999;
0,00271578767508037;
0,002510177971763;
0,00216853082335684;
0,00194033554128541;
0,00190223335406068;
0,00191332871909526;
0,00175362279137845;
0,00132599849218384;
0,000753037552290235;
0,000290009817241183;
0,000128072535084873;
0,000250709415235044;
0,00045995446660584;
0,000547548513386696;
0,000467522589023007;
0,000367799517811785;
0,000456490161407565;
0,000815035273755572;
0,00131309398946805;
0,00169545674594289;
0,00177030326783001;
0,00154673521256026;
0,0012130068737143;
0,000977580740279589;
0,000905031103914979;
0,000879009063985022;
0,000717304604131;
0,000339289293195648;
-0,000154157046328559;
-0,000552896070860163;
-0,000700110745901889;
-0,000610298405002237;
-0,000446909003747335;
-0,000380910402097576;
-0,000449025738554445;
-0,000528649849613138;
-0,000448627374502608;
-0,000142936863487474;
0,000280047104177179;
0,000609760669975554;
0,000688331771239533;
0,000523155289368595;
0,000268597494034953;
9,56136226049237E-5;
5,76111154534081E-5;
6,03581892886364E-5;
-4,41820505951401E-5;
-0,000321747253325898;
-0,00069114649359586;
-0,000983110913423034;
-0,00107187655181029;
-0,000970066811701879;
-0,00080988528582329;
-0,00072860606031822;
-0,0007546628749752;
-0,000788387317981695;
-0,000691995953442218;
-0,000413282111895432;
-4,06074638407174E-5;
0,000255951193907616;
0,000349302732073577;
0,000245394259261322;
6,80850112500411E-5;
-4,54426741656366E-5;
-5,18001468672029E-5;
-2,52342341017175E-5;
-8,29193318025129E-5;
-0,00027705658900609;
-0,000543988489277325;
-0,00075098536024938;
-0,000799978257800471;
-0,00070172112549544;
-0,000560228110760162;
-0,000482457762517754;
-0,000489366339285229;
-0,000501801697049519;
-0,000411787518962765;
-0,000179319322257308;
0,000125387935535307;
0,00036872621982672;
0,000451327657737485;
0,000377957974394456;
0,000245258440680009;
0,000160259508155841;
0,000157433386118823;
0,00018043206727403;
0,000139706182527134;
-4,76548468205903E-6;
-0,000204835758263203;
-0,000360203717645989;
-0,000397334399194027;
-0,000325199904479494;
-0,000222653255012609;
-0,000169669533133158;
-0,000180585043851138;
-0,000194515171364135;
-0,000129954177663381;
4,2344296349058E-5;
0,000268402745267752;
0,00044710502804232;
0,000503759647917072;
0,000442103673889078;
0,000334618443397633;
0,000261559315799341;
0,000249442567764478;
0,000257723008010937;
0,000221277081070928;
0,000110863559829703;
-3,90501204711158E-5;
-0,00015676856618919;
-0,000190375588208231;
-0,000147244539177433;
-8,40475163486065E-5;
-5,70337817899882E-5;
-7,48084186948722E-5;
-9,26804416993374E-5;
-5,2509330488323E-5;
6,54896726107443E-5;
0,000221678949066033;
0,000343574940218948;
0,000378198932527907;
0,000328349560894806;
0,000245208013205493;
0,000185421692043601;
0,000168426259903631;
0,000167456069369504;
0,000138745906384821;
6,24744583144274E-5;
0,00929456472502619;
0,022511122207888;
0,0162290237805139;
0,00931293785497515;
0,0120841261875211;
0,00695152530305528;
0,00554281894218213;
0,00447583639275621;
0,000758939426595104;
0,00102787591733631;
-0,0104267079567971;
-0,0244456894723636;
-0,0189819629572391;
-0,0138218992966707;
-0,0169472296091216;
-0,0128142861077356;
-0,0115230686819464;
-0,0107150241145432;
-0,00779993606897394;
-0,00895988873353243;
0,00111448662759907;
0,0142768618835642;
0,0085469996201749;
0,00377569265876399;
0,00776195757757471;
0,00436597732308554;
0,003647377304817;
0,00320144860619259;
0,000696113156699191;
0,00248976481802227;
0,00249627617832816;
0,00335045825624609;
0,00333009812038948;
0,00152001462166659;
0,000683461906470049;
-0,000449053887277842;
-0,000346773381426497;
-0,000308208121285797;
-0,00132070388653976;
-0,00319089771218476;
-0,0152682309514974;
-0,0305447510088539;
-0,0248894861410487;
-0,0171503365726753;
-0,0183810241582018;
-0,0121627394233954;
-0,0103310989008468;
-0,00915172889725218;
-0,00481437935584187;
-0,00354199536980454;
0,000599519511435921;
0,00299847651684925;
0,0044312980606837;
0,00590764732526914;
0,00576840802415068;
0,00673171034547388;
0,00738022013644135;
0,00813584980310257;
0,00863078220484824;
0,00813242487178828;
0,00756269999600013;
0,00691232233690147;
0,00687129292513484;
0,00737129882707822;
0,00788440533891183;
0,00818143335534433;
0,00799499812277729;
0,00774689378769045;
0,00784142336075982;
0,00842976508638167;
0,0093014539039512;
0,00987200200047364;
0,00978239782895641;
0,00903637214615753;
0,00802863482782026;
0,00721597255444459;
0,00672191379829975;
0,00631849137076069;
0,00561542822672889;
0,00444369339658419;
0,00302236564097059;
0,00179633510690416;
0,00110868770455444;
0,000929848345915465;
0,000913344150194009;
0,000694077084823247;
0,00019208254316828;
-0,000325583847354825;
-0,000487319874103452;
-0,000146181091726507;
0,000465416923962214;
0,000889640437569069;
0,000781390548879711;
0,00015466899826654;
-0,000652923372356197;
-0,00126519629167973;
-0,00156325941400664;
-0,00175431389522946;
-0,00216687847753152;
-0,00294846803784134;
-0,00391976741506047;
-0,00470297763325137;
-0,00501505683625681;
-0,00488239455722197;
-0,00460153330705421;
-0,00448307128146743;
-0,00459327449074855;
-0,0047074400536033;
-0,00451184373342936;
-0,00388558402106939;
-0,00302900570453367;
-0,0023321272002576;
-0,00208933207940906;
-0,00229005285380413;
-0,00265034109796181;
-0,00285304062020464;
-0,00279733570019541;
-0,00265699890741102;
-0,00270800693651671;
-0,00307532509294537;
-0,00361067744490943;
-0,0040002333206927;
-0,00400969065729202;
-0,00366274672456307;
-0,00320738209730193;
-0,00290160326418509;
-0,00279861654110759;
-0,00270941531818695;
-0,00237229699618074;
-0,0016878360554248;
-0,000824834007565069;
-0,000109556480361661;
0,000212315395679321;
0,000149609268547338;
-6,10818728890303E-5;
-0,000155143642014379;
-4,70133587637865E-5;
0,000121503137040135;
0,000123610514447218;
-0,000143674947283772;
-0,000559038888034413;
-0,00086564058955446;
-0,000872286657729493;
-0,000599125211431279;
-0,000248958263311538;
-3,11855251440756E-5;
1,34823367625076E-5;
4,21793634224417E-5;
0,000269936200549987;
0,000777376599174723;
0,00142508702079249;
0,00194537444370961;
0,00213731115535311;
0,00200851015054117;
0,00175281932842958;
0,00158730189124523;
0,00158372279926418;
0,00162924664468434;
0,00154164168321712;
0,00123788533510038;
0,000814991844125717;
0,000478359352630338;
0,000380263821840338;
0,000503714120738476;
0,000686522397329322;
0,000762839178666919;
0,000702808393195254;
0,000634388079577059;
0,000730178192129832;
0,00105361987245729;
0,00149161786910672;
0,00182906741170495;
0,00190508200289979;
0,00172580606807361;
0,00144614527015694;
0,00123984741932124;
0,00116570857944301;
0,00113639125429746;
0,00100921801750852;
0,00071869071148509;
0,00033968968647545;
3,11848850607895E-5;
-8,97272958302992E-5;
-3,754788961453E-5;
6,14884521405274E-5;
8,00077907094038E-5;
-2,69599606128579E-6;
-8,52997392539871E-5;
-3,35745129511069E-5;
0,000200270516813832;
0,000526469586072279;
0,000776730203476792;
0,000825708732088001;
0,000677943506619801;
0,000453223680058277;
0,0002862562028499;
0,000223874021988913;
0,000201108156244439;
0,000110237380399426;
-9,88189487298547E-5;
-0,000370978197803699;
-0,000588613097532992;
-0,00066594033320873;
-0,00061532478518188;
-0,000531217992421918;
-0,000507061129401865;
-0,000555699881044323;
-0,000599658205198569;
-0,000538845998908208;
-0,000339332091939596;
-7,01078993379986E-5;
0,000142120775573211;
0,000203561230592814;
0,000117340604004952;
-2,78744303781509E-5;
-0,00013199593328076;
-0,000158865230234856;
-0,000153756996486144;
-0,000193527093930033;
-0,000314567587582598;
-0,000479101460034515;
-0,000605747910592348;
-0,000636115551963056;
-0,000580537937448464;
-0,000505420491651312;
-0,000474360640590564;
-0,00049334205507614;
-0,000505873503516729;
-0,000441794946518714;
-0,000279174652302261;
-6,85188361885093E-5;
0,000100217853836015;
0,000161125964126575;
0,000116224568777822;
2,69594081026502E-5;
-3,69022079543821E-5;
-4,8557788577992E-5;
-3,60367576420224E-5;
-4,91358266571771E-5;
-0,000112148744522999;
-0,00020222267917527;
-0,000269398261436256;
-0,000278972624721712;
-0,000239349362295371;
-0,000192413973917153;
-0,000175774531457367;
-0,000189495079501914;
-0,000195384740886806;
-0,000149280242522557;
-3,95482230266714E-5;
9,95711452850443E-5;
0,000210254527041981;
0,000250957241877515;
0,000222810453585011;
0,000163644163465592;
0,000116882545215027;
0,000101147293676603;
0,000103288290233098;
9,69216388409612E-5;
6,82748436299737E-5;
2,74129492758369E-5;
-2,70763680063394E-6;
-7,70657221052528E-6;
5,75201030959815E-6;
1,69181453134751E-5;
1,04929175167619E-5;
-8,6201498735864E-6;
-1,80961373447779E-5;
3,82278470728494E-6;
5,9967961516033E-5;
0,000130197170773227;
0,000184413180804832;
0,000202067317512573;
0,000183530897802748;
0,00014631031508687;
0,000111131526068264;
8,94740334038192E-5;
8,08101241922556E-5;
7,87193904330596E-5;
7,84228045453194E-5;
7,91182449158389E-5;
8,0798293950346E-5;
8,05849413768709E-5;
7,33243873563111E-5;
5,62220969159838E-5;
3,28468458810957E-5;
1,21658762308118E-5;
2,87324860828676E-6;
7,62222210124168E-6;
2,17953845747957E-5;
3,73060789681746E-5;
4,76742119170175E-5;
5,02062284636455E-5;
4,46174390476399E-5;
3,11285882561084E-5;
1,11373801691175E-5;
-1,00533263871043E-5;
-2,24254437340182E-5;
-1,56144136028722E-5;
1,31851984992795E-5;
5,40711328920695E-5;
8,77895188013906E-5;
9,70245584918063E-5;
7,79268703167914E-5;
4,27450926914045E-5;
1,07730919518274E-5;
-5,76101029465289E-6;
-9,71208495910859E-6;
-1,44770667373414E-5;
-3,0865612166711E-5;
-5,67758180165018E-5;
-7,88337534619759E-5;
-8,4746356149003E-5;
-7,53382349721447E-5;
-6,48610167253625E-5;
-6,81241668200698E-5;
-8,50830975048129E-5;
-9,70437981339283E-5;
-7,97391634863233E-5;
-2,40473175083471E-5;
5,26613426688693E-5;
0,000115297862410895;
0,000134699676916961;
0,000108151521468518;
6,03103832453825E-5;
2,33572268107257E-5;
1,20814390857223E-5;
1,40080989661263E-5;
2,49754911559291E-6;
-3,82927241696426E-5;
-9,77650750609192E-5;
-0,000146112090276732;
-0,00015865607467876;
-0,0001366413016222;
-0,000106212914984241;
-9,55266571832203E-5;
-0,000108938367954281;
-0,000120756774050318;
-9,54150280125219E-5;
-1,86173714569973E-5;
8,62813278548996E-5;
0,000171450615054866;
0,000198229762679104;
0,000164886247181842;
0,000106107017953318;
6,44037821831274E-5;
5,65092706085095E-5;
6,20863367231802E-5;
4,37976995849505E-5;
-1,81858728637187E-5;
-0,000106308800256503;
-0,000177429875271256;
-0,000196843487359176;
-0,000166106974626749;
-0,000120928810145178;
-0,000100224107319816;
-0,000111968842865112;
-0,000124982957636362;
-9,47448656579133E-5;
-2,81953914782842E-6;
0,000122778589255774;
0,000224247811094951;
0,000255528924832005;
0,000215727336063043;
0,000147419624689264;
0,00010115402960099;
9,50559960968959E-5;
0,000102505922524458;
7,77487681140379E-5;
-2,10332929804238E-6;
-0,000113930234709907;
-0,000204050307255864;
-0,000229853948763534;
-0,000193123980244326;
-0,000137049287510798;
-0,000108988957027241;
-0,000119839100839739;
-0,000134278635325633;
-0,000100929612924831;
1,85039029477211E-6;
0,000142558149451164;
0,000255878713698446;
0,000290214452684664;
0,000245371031751478;
0,000169904511214287;
0,000120358395201581;
0,000115765146573277;
0,000124631667864439;
9,48115478690712E-5;
1,17601680625959E-6;
-0,000128840369709156;
-0,000233509701804073;
-0,000264214179707786;
-0,000222888926478443;
-0,000158354394688167;
-0,00012435567202228;
-0,000134082795817428;
-0,000149263700851607;
-0,000113521864277289;
-2,83601843999447E-6;
0,000148830591792422;
0,00027081496420404;
0,00030761777182295;
0,000259619506804887;
0,000179670109436274;
0,00012851249992519;
0,000125666007275738;
0,000136013765587268;
0,000102807016435142;
-6,06275502887377E-7;
-0,000143585267131015;
-0,000258559533067979;
-0,000292576743439615;
-0,000247660683095083;
-0,000176633701513152;
-0,000137810737199486;
-0,000146117013679028;
-0,000161367078510784;
-0,000123812329546716;
-7,77989053291935E-6;
0,000151204699532291;
0,000279021737968352;
0,000317698802927787;
0,000268080162932258;
0,000185838529844791;
0,000134353753046702;
0,000133274562659492;
0,000144960295004133;
0,000109625805886602;
-2,79364333935798E-7;
-0,000151880127024077;
-0,000273691331362004;
-0,000309888870845227;
-0,000262529832015672;
-0,000187015319353037;
-0,000144642245513426;
-0,000151576525484299;
-0,000166614107729842;
-0,000128043645161161;
-9,17264621052129E-6;
0,000153685890114638;
0,000284590026110987;
0,000324327629804505;
0,000274108901549673;
0,00019115849794933;
0,000140148006429729;
0,0001405549941038;
0,000153172925398181;
0,000116536031869166;
2,73269107650746E-6;
-0,000153972741569599;
-0,000279850296752487;
-0,000317470196190391;
-0,000268876314795331;
-0,000190819967364111;
-0,000146207330932465;
-0,00015201255876972;
-0,000166776426611978;
-0,000128033138541138;
-8,61488649536932E-6;
0,00015503747831652;
0,00028655446234928;
0,000326535231523918;
0,00027646947434491;
0,000194047928878479;
0,000144089015761266;
0,000145649525096134;
0,000158781187142404;
0,000121496852974209;
5,9790024168966E-6;
-0,000152846024337247;
-0,000280434184875135;
-0,000318834082547365;
-0,000270038767326687;
-0,000191102654832678;
-0,000145369166759925;
-0,000150247087156355;
-0,000164665046855524;
-0,000126425908172086;
-8,35010417452053E-6;
0,000153546775714246;
0,00028364101634804;
0,000323225830484761;
0,000273994390693157;
0,000193187883530481;
0,000144810585816842;
0,000147294913532647;
0,000160650914507553;
0,000123347872719219;
8,04231543860358E-6;
-0,000150295749372726;
-0,000277518121758749;
-0,000316067768488127;
-0,000267857306701594;
-0,000189364144446566;
-0,000143381793896105;
-0,00014743461652726;
-0,00016137191478448;
-0,000124118351168142;
-8,87166665209334E-6;
0,000149233972496461;
0,000276291901195966;
0,000315018758159948;
0,000267245265631625;
0,00018900340639306;
0,000142690492897784;
0,000145952707919418;
0,000159344746713469;
0,00012260444366821;
9,17406760763339E-6;
-0,00014645055625114;
-0,000271524297852712;
-0,000309646246455528;
-0,000262625798722529;
-0,000185635448850397;
-0,000140100383904945;
-0,00014339147613708;
-0,000156711238175649;
-0,000120804335565473;
-9,56662189839457E-6;
0,000143117856179711;
0,00026584785521446;
0,000303354112463473;
0,000257548601880854;
0,000182636260183789;
0,000138767055514506;
0,000142676598264951;
0,000155947123390921;
0,000120246876866839;
1,00541185041709E-5;
-0,000141035588874006;
-0,000262503025924726;
-0,000299724860800922;
-0,000254390358413776;
-0,000179777006809904;
-0,000135276216276926;
-0,000137881925981742;
-0,000150492097183405;
-0,000116229722993852;
-9,94768556971931E-6;
0,000136010322076446;
0,000253372381271851;
0,000289349384201065;
0,000245887134193076;
0,000174873329701851;
0,000133707112473504;
0,00013812239242936;
0,000151118269252125;
0,000116819894452214;
1,09366755815984E-5;
-0,000134179209834286;
-0,000250891068467566;
-0,000286848204273777;
-0,000243608031123157;
-0,000172086879440432;
-0,000129114656539343;
-0,000131126422321678;
-0,000142977366968037;
-0,000110602001133325;
-1,00136495299488E-5;
0,000128204632116365;
0,00023938737556815;
0,000273580515598125;
0,000232724279538502;
0,000166012766417797;
0,000127712596842479;
0,000132493921338579;
0,000145077974907815;
0,000112452292358599;
1,17035591377095E-5;
-0,000126328274107958;
-0,000237397080675305;
-0,000271806938617982;
-0,000230976268716606;
-0,000163104637034489;
-0,000122055732762581;
-0,000123561243991787;
-0,000134624293749221;
-0,00010431315294423;
-9,95563544906433E-6;
0,000119784348412201;
0,000224195070614403;
0,000256414124088098;
0,000218343933187009;
0,000156209301545749;
0,000120870060155134;
0,000125895721548036;
0,000137960141400213;
0,000107211497745979;
1,22166551328831E-5;
-0,000117899459908883;
-0,000222657641283062;
-0,000255298829948606;
-0,000217099223886206;
-0,000153283706757042;
-0,000114453877404994;
-0,000115527028588556;
-0,000125782679318585;
-9,76475540986654E-5;
-9,87442222527991E-6;
0,000110896474428535;
0,000208140723963899;
0,000238258186670943;
0,000203087697828313;
0,000145697303666426;
0,000113359680092006;
0,000118528465101247;
0,000129994699833294;
0,000101271405223562;
1,24708414520662E-5;
-0,000109141676221138;
-0,000207114512796174;
-0,000237819682536662;
-0,000202391196018316;
-0,000142906795873036;
-0,00010650549001591;
-0,00010720877135117;
-0,000116647042059212;
-9,07452222599813E-5;
-9,75337636665904E-6;
0,000101769795191184;
0,000191622230301881;
0,000219562179012559;
0,000187344846955722;
0,000134770629160469;
0,000105425915518828;
0,000110651615900322;
0,000121462983073059;
9,48603975256156E-5;
1,25342427275411E-5;
-0,000100203557695569;
-0,000191088941672492;
-0,00021974277663643;
-0,000187159598393102;
-0,000132171540929907;
-9,83372396700576E-5;
-9,87269575187673E-5;
-0,0001073502040235;
-8,36966717845844E-5;
-9,55303774147211E-6;
9,26215545316046E-5;
0,000174997980168982;
0,00020072524480187;
0,000171459941092384;
0,000123689598493991;
9,72846332616922E-5;
0,000102491737437321;
0,000112607715759235;
8,81726556704674E-5;
1,24600877206296E-5;
-9,12213629747987E-5;
-0,000174868629779284;
-0,000201403493863897;
-0,000171685888467462;
-0,000121267205197642;
-9,0078882908679E-5;
-9,02070814956574E-5;
-9,80295120559626E-5;
-7,66049934948499E-5;
-9,26789064080689E-6;
8,36066199827986E-5;
0,000158541514416455;
0,000182055037252513;
0,000155694582463925;
0,000112645196440429;
8,9090199269919E-5;
9,42131809979575E-5;
0,000103607406587152;
8,13455176200965E-5;
1,22659156874426E-5;
-8,23385678245415E-5;
-0,000158725755454768;
-0,000183114605932341;
-0,00015623700958905;
-0,000110381992382307;
-8,18670506012546E-5;
-8,17807590341157E-5;
-8,88255376361851E-5;
-6,95815198644176E-5;
-8,91801697335555E-6;
7,48303042543487E-5;
0,000142458180310695;
0,000163786731607813;
0,00014024736284044;
0,000101779370712312;
8,09564499372828E-5;
8,5940328285015E-5;
9,45999167696657E-5;
7,44835229755522E-5;
1,19568577628398E-5;
-7,36840624829417E-5;
-0,000142896280560134;
-0,000165145518517527;
-0,000141043461963155;
-9,9679646744971E-5;
-7,38209928104069E-5;
-7,35614434269366E-5;
-7,98580093477539E-5;
-6,27213339022948E-5;
-8,52312882796236E-6;
6,63762905134155E-5;
0,000126914435997921;
0,000146112325438126;
0,000125281792928115;
9,12110915918896E-5;
7,29813165920719E-5;
7,7781456726296E-5;
8,57056666595505E-5;
6,76801993497285E-5;
1,15448907573878E-5;
-6,53560331231697E-5;
-0,000127566531539865;
-0,000147710280223391;
-0,000126287519490275;
-8,92874788090852E-5;
-6,60308938976899E-5;
-6,56337785964895E-5;
-7,12163290699221E-5;
-5,60942138435967E-5;
-8,09286662673082E-6;
5,83175967998808E-5;
0,000112049601276678;
0,000129191895422548;
0,000110935863070508;
8,10437869174321E-5;
6,52526258476952E-5;
6,98336666062293E-5;
7,70318681877108E-5;
6,10209350953188E-5;
1,10492945616504E-5;
-5,74244653410306E-5;
-0,000112878141591111;
-0,00013097366575795;
-0,000112109178897371;
-7,93017282857932E-5;
-5,85630932722538E-5;
-5,80593334618986E-5;
-6,29659490520307E-5;
-4,97509007505405E-5;
-7,63183016227754E-6;
5,07133610107733E-5;
9,79740378711094E-5;
0,000113151949549928;
9,73193877094236E-5;
7,13613332267266E-5;
5,78432336985817E-5;
6,21778818912775E-5;
6,86675641258624E-5;
5,45773828335179E-5;
1,04894057157702E-5;
-4,99405601934205E-5;
-9,8939146280824E-5;
-0,000115062686302743;
-9,86168793845045E-5;
-6,97970556073853E-5;
-5,14687739658446E-5;
-5,08851586140666E-5;
-5,51569086675028E-5;
-4,37309355865482E-5;
-7,14568505438948E-6;
4,36050286768421E-5;
8,47671989009826E-5;
9,80841614270423E-5;
8,4512274405326E-5;
6,22254679652499E-5;
5,08080371358733E-5;
5,48761392963376E-5;
6,06813353269041E-5;
4,84049149646965E-5;
9,88080456407099E-6;
-4,29423541629646E-5;
-8,5830968118731E-5;
-0,000100073739525331;
-8,58936736445703E-5;
-6,08313476709438E-5;
-4,4787826832198E-5;
-4,41473846195374E-5;
-4,78273182271641E-5;
-3,80653867028155E-5;
-6,64217149301405E-6;
3,70175804895465E-5;
7,24806505190833E-5;
8,40490304737518E-5;
7,25677375306248E-5;
5,36781813867236E-5;
4,41859504112327E-5;
4,7973772245062E-5;
5,31238027125937E-5;
4,25447810791046E-5;
9,23614694432507E-6;
-3,64557256158049E-5;
-7,36108507516375E-5;
-8,60753616396087E-5;
-7,3999204587129E-5;
-5,24465442374167E-5;
-3,85489560248819E-5;
-3,78712303435441E-5;
-4,10034243475763E-5;
-3,27763933892185E-5;
-6,12920438117705E-6;
3,09633446472768E-5;
6,11433939602934E-5;
7,10816408811562E-5;
6,15174389155711E-5;
4,57458913612355E-5;
3,80035269025162E-5;
4,15030618508325E-5;
4,60313919606966E-5;
3,70273718944129E-5;
8,56700456099161E-6;
-3,04944748619193E-5;
-6,23134608534635E-5;
-7,31102822534043E-5;
-6,29711902195022E-5;
-4,46691977312146E-5;
-3,27696870088623E-5;
-3,20710554955155E-5;
-3,46998400809294E-5;
-2,78770181698432E-5;
-5,61350925340759E-6;
2,5445041664101E-5;
5,07662192743524E-5;
5,9196314496772E-5;
5,13754983545715E-5;
3,84424933527737E-5;
3,2277404580707E-5;
3,5485643593544E-5;
3,94288076920902E-5;
3,18741721893274E-5;
7,88443995448975E-6;
-2,50615816294975E-5;
-5,19536060722651E-5;
-6,1198597076864E-5;
-5,28280821405986E-5;
-3,75122726794694E-5;
-2,7457661177206E-5;
-2,67517021766679E-5;
-2,89210640971294E-5;
-2,33724193984972E-5;
-5,1006415136434E-6;
2,04573344737717E-5;
4,13444885991965E-5;
4,83897130778633E-5;
4,21410201122245E-5;
3,17710236667742E-5;
2,70154730503701E-5;
2,99336848603739E-5;
3,3330303018118E-5;
2,70985890174223E-5;
7,19858811388772E-6;
-2,01512841804873E-5;
-4,2529627551044E-5;
-5,03415475389343E-5;
-4,35723294261064E-5;
-3,09775761002737E-5;
-2,2612540068714E-5;
-2,19103770986158E-5;
-2,3663460391562E-5;
-1,92614589426826E-5;
-4,59549757930726E-6;
1,59878157800183E-5;
3,28603037561966E-5;
3,86433384029695E-5;
3,38001216246233E-5;
2,57249508267592E-5;
2,22177461204195E-5;
2,4850813702845E-5;
2,77407480985341E-5;
2,27066476490277E-5;
6,51824451257338E-6;
-1,57509828394741E-5;
-3,40264826598709E-5;
-4,05249246591664E-5;
-3,51932678878648E-5;
-2,50578350770316E-5;
-1,8227580633498E-5;
-1,75381896022505E-5;
-1,89168723383249E-5;
-1,55379673409095E-5;
-4,10255405391296E-6;
1,20181475820481E-5;
2,52847416988202E-5;
2,99260965787143E-5;
2,63280867985067E-5;
2,02896750289687E-5;
1,78775031453691E-5;
2,02333231490997E-5;
2,26569537862051E-5;
1,86979934748281E-5;
5,85086408668557E-6;
-1,18426136082221E-5;
-2,64181925905295E-5;
-3,17218202280702E-5;
-2,76694262715999E-5;
-1,97382824851258E-5;
-1,4290757961889E-5;
-1,3621232243882E-5;
-1,46657677260706E-5;
-1,21915735522287E-5;
-3,625786989698E-6;
8,52538688023708E-6;
1,85801658310911E-5;
2,21968844806573E-5;
1,96915627593945E-5;
1,54441275682327E-5;
1,39825560350598E-5;
1,60715001161286E-5;
1,80691227733108E-5;
1,50670173816946E-5;
5,20274763627213E-6;
-8,40372186388749E-6;
-1,96699176354564E-5;
-2,38949813811246E-5;
-2,09704783110263E-5;
-1,49979585065627E-5;
-1,07856549486578E-5;
-1,01414598509058E-5;
-1,08902046003142E-5;
-9,20839241608959E-6;
-3,16854452831866E-6;
5,4832016811645E-6;
1,27023118162985E-5;
1,54069327847881E-5;
1,38505587994281E-5;
1,11622246946146E-5;
1,05164024184363E-5;
1,2350814291929E-5;
1,39621204919573E-5;
1,18038462079575E-5;
4,57918771010969E-6;
-5,4084430189955E-6;
-1,37398372587963E-5;
-1,69989749097482E-5;
-1,50590563692291E-5;
-1,08109582311519E-5;
-7,69235475056578E-6;
-7,07755324601168E-6;
-7,56676341684232E-6;
-6,5717334987335E-6;
-2,73354301416079E-6;
2,86286242895972E-6;
7,60205304431432E-6;
9,50178822448682E-6;
8,76012532398484E-6;
7,41407079597087E-6;
7,4591610503878E-6;
9,05290449973468E-6;
1,0316546876994E-5;
8,89514844755015E-6;
3,98452845867392E-6;
-2,82846855811079E-6;
-8,58092747872469E-6;
-1,09821951058323E-5;
-9,89245397387155E-6;
-7,14761719956099E-6;
-4,98830413825757E-6;
-4,40576557177108E-6;
-4,66944442033689E-6;
-4,26279173666173E-6;
-2,32292671193356E-6;
6,34049010843216E-7;
3,22689991901035E-6;
4,42301243318574E-6;
4,37177291663554E-6;
4,16696632446851E-6;
4,78836893673299E-6;
6,15641247844157E-6;
7,10965655175223E-6;
6,32483887074976E-6;
3,42219371316687E-6;
-6,3390773470986E-7;
-4,1425349922482E-6;
-5,78865843618674E-6;
-5,42414631235792E-6;
-3,97557904624805E-6;
-2,64907530329345E-6;
-2,1006688010053E-6;
-2,17048752192181E-6;
-2,26127054063648E-6;
-1,93832303402462E-6;
-1,234454171409E-6;
-4,77709167267826E-7;
1,09655021224225E-7;
6,34739737745479E-7;
1,38631830803581E-6;
2,47969167833622E-6;
3,63775027371161E-6;
4,31619262042726E-6;
4,0747129391733E-6;
2,89474835953281E-6;
1,20598145181986E-6;
-3,71731381925184E-7;
-1,35954071394344E-6;
-1,60508766760911E-6;
-1,26070002611706E-6;
-6,49034052902104E-7;
-1,35788500430088E-7;
-4,1022841744726E-8;
-5,458917111644E-7;
-1,58089247162856E-6;
-2,77414482022426E-6;
-3,56726184378751E-6;
-3,5004466986321E-6;
-2,50291431935367E-6;
-9,63564084508288E-7;
5,07568960476962E-7;
1,471787994994E-6;
1,90914454367806E-6;
2,12503916443499E-6;
2,40398485529723E-6;
2,72219696088255E-6;
2,78554545116672E-6;
2,36550377348484E-6;
1,61516529750564E-6;
1,03217917814501E-6;
1,03812247158403E-6;
1,51586850917533E-6;
1,74834206281093E-6;
9,05158671102891E-7;
-1,25134700177304E-6;
-4,01626860641286E-6;
-6,09719990714302E-6;
-6,4695501118014E-6;
-5,09334772717294E-6;
-2,91876799041408E-6;
-1,15421146340195E-6;
-3,67537744177724E-7;
-1,3958599245195E-7;
4,5507542579467E-7;
1,95099863196152E-6;
3,94549215300165E-6;
5,38351412736796E-6;
5,44722445532268E-6;
4,28751606861752E-6;
2,93856883414734E-6;
2,43888914913737E-6;
2,88135969333905E-6;
3,22704294481408E-6;
2,11386554825054E-6;
-9,49990795872522E-7;
-4,99138423671552E-6;
-8,12209554638455E-6;
-8,85908787114448E-6;
-7,18815004165763E-6;
-4,51518707663667E-6;
-2,53203785443717E-6;
-1,90670282893145E-6;
-1,85861327795826E-6;
-9,56477423653504E-7;
1,53627759922645E-6;
4,90594514341315E-6;
7,47572634867767E-6;
7,94582017067959E-6;
6,46250275238221E-6;
4,49376854184953E-6;
3,57955202779997E-6;
3,98741916588062E-6;
4,42413922719542E-6;
3,10204685900482E-6;
-6,76761502075632E-7;
-5,7290199857536E-6;
-9,69500670608254E-6;
-1,0728903313837E-5;
-8,8376817750769E-6;
-5,78805042107286E-6;
-3,65207939896387E-6;
-3,17215969676366E-6;
-3,27658985179258E-6;
-2,13110627486396E-6;
1,15976758095818E-6;
5,63262653239631E-6;
9,11439211740824E-6;
9,920160402149E-6;
8,18964296005855E-6;
5,73239204522036E-6;
4,4858376320642E-6;
4,8601267129393E-6;
5,36796982515062E-6;
3,89108697947332E-6;
-4,3127477981476E-7;
-6,25739569248987E-6;
-1,08669338117172E-5;
-1,21366397272439E-5;
-1,00905528785649E-5;
-6,77151612914032E-6;
-4,53994219896145E-6;
-4,18997557943891E-6;
-4,42180308624769E-6;
-3,09015012622129E-6;
8,20943876923122E-7;
6,15331412722764E-6;
1,03498273028985E-5;
1,14271310662194E-5;
9,51686354397252E-6;
6,68798409641938E-6;
5,18265282682699E-6;
5,52465531117617E-6;
6,08587374359494E-6;
4,50170740251727E-6;
-2,12871045612023E-7;
-6,60321926578035E-6;
-1,16864165151149E-5;
-1,31372620781313E-5;
-1,09932034616221E-5;
-7,49836272819495E-6;
-5,22040668058141E-6;
-4,98552135319832E-6;
-5,32183130061955E-6;
-3,85454481780239E-6;
5,18876694974423E-7;
6,49429736888507E-6;
1,12300202690526E-5;
1,25211350153814E-5;
1,04900800079015E-5;
7,39270710703996E-6;
5,69385477523678E-6;
6,00505986589447E-6;
6,6039641546365E-6;
4,95379089912346E-6;
-2,06542355334696E-8;
-6,79153206102995E-6;
-1,21992179076615E-5;
-1,37826939420699E-5;
-1,1589583368502E-5;
-7,99974080521805E-6;
-5,71720548915648E-6;
-5,58322929502342E-6;
-6,00328077306447E-6;
-4,44458739486687E-6;
2,52304311869747E-7;
6,68022254234532E-6;
1,18003184927324E-5;
1,32537061006584E-5;
1,11528494760388E-5;
7,87711022717011E-6;
6,04208657998708E-6;
6,32411860970722E-6;
6,94696586044847E-6;
5,26624663272222E-6;
1,46479515417152E-7;
-6,84560361929917E-6;
-1,24481107827418E-5;
-1,41215544645484E-5;
-1,19209226291082E-5;
-8,30498777133073E-6;
-6,05285376863312E-6;
-6,00640127560529E-6;
-6,49156310769208E-6;
-4,87976374298153E-6;
1,96851929144369E-8;
6,73399203579506E-6;
1,21031845475593E-5;
1,36732276332626E-5;
1,15461350426259E-5;
8,16995304748046E-6;
6,24865587921092E-6;
6,50322358648095E-6;
7,13809485352859E-6;
5,45689968700905E-6;
2,89782966854507E-7;
-6,78687985384332E-6;
-1,24727331261521E-5;
-1,41989907169384E-5;
-1,20255756742227E-5;
-8,44150175719108E-6;
-6,24853221289377E-6;
-6,27706039802965E-6;
-6,81072624018857E-6;
-5,17860588839247E-6;
-1,80738510901719E-7;
6,67671451536125E-6;
1,21780523103443E-5;
1,38247410573269E-5;
1,17081288876991E-5;
8,29807903425863E-6;
6,33344121762881E-6;
6,56229798290365E-6;
7,19896925078657E-6;
5,54242377176695E-6;
4,10647335870147E-7;
-6,63495172242284E-6;
-1,23095199416691E-5;
-1,4056585259256E-5;
-1,19389361345155E-5;
-8,43466346477931E-6;
-6,32399323677076E-6;
-6,41584618096436E-6;
-6,9833484156343E-6;
-5,35859145861644E-6;
-3,50893224878087E-7;
6,52767358413104E-6;
1,20612363165389E-5;
1,37498327550007E-5;
1,16741524933618E-5;
8,28634489622497E-6;
6,31484525023799E-6;
6,51975523374658E-6;
7,14957102537493E-6;
5,53829314636322E-6;
5,10549202452291E-7;
-6,40758151540843E-6;
-1,19917001941232E-5;
-1,37323336553614E-5;
-1,16934068143683E-5;
-8,3077999623651E-6;
-6,29751579583495E-6;
-6,4419486305461E-6;
-7,03044649075263E-6;
-5,4360658991923E-6;
-4,92827557346832E-7;
6,30434738461913E-6;
1,17859191876481E-5;
1,34865954171554E-5;
1,14766112016235E-5;
8,15758705539909E-6;
6,20977580183519E-6;
6,39248253068161E-6;
7,00822028642535E-6;
5,45876019360303E-6;
5,91034972358439E-7;
-6,12071788228057E-6;
-1,15493189468751E-5;
-1,32606783037318E-5;
-1,1318412287973E-5;
-8,08217949600509E-6;
-6,18588811110997E-6;
-6,37306180534211E-6;
-6,97143298677766E-6;
-5,42620174444485E-6;
-6,08662362379806E-7;
6,02243795344448E-6;
1,13821670153164E-5;
1,30696468054938E-5;
1,11450037685818E-5;
7,93261716280884E-6;
6,03363897169791E-6;
6,19584964621267E-6;
6,79159736016816E-6;
5,31685663573683E-6;
6,53685454433275E-7;
-5,78857674408259E-6;
-1,10093372859031E-5;
-1,26725822475307E-5;
-1,08404640040964E-5;
-7,77704206545587E-6;
-6,0043977581268E-6;
-6,22538928526306E-6;
-6,82410716106379E-6;
-5,34297226432275E-6;
-7,00565123781892E-7;
0,00933912997915472;
0,022640606828944;
0,0163852674599295;
0,00944380214190881;
0,0121770220402974;
0,00703196770167231;
0,00564076086484537;
0,00458922481288441;
0,000845624494267534;
0,0010330924676223;
-0,0105292972346011;
-0,0246320782021282;
-0,0191918698625914;
-0,0139970607484456;
-0,0170641264392933;
-0,0128878349072344;
-0,011582048044713;
-0,0107718030326394;
-0,00783927590735762;
-0,00895386662477577;
-0,00815311132479694;
-0,00824064154123753;
-0,00769946636323966;
-0,00554465847536636;
-0,00431307228711277;
-0,00256887362479153;
-0,0018835683227718;
-0,00126879197173721;
-4,95845622351362E-5;
0,00150275833106746;
0,00366839733418337;
0,00527467185067861;
0,00605416370668563;
0,00600808797986982;
0,00553684342150835;
0,00539824367593513;
0,00559645054862638;
0,00587831473092259;
0,00568197050575811;
0,00475261026500398;
0,0034546851552205;
0,00238108146210659;
0,00205751118568945;
0,00244318102626478;
0,00304595086058643;
0,00334844818954588;
0,0031972174712455;
0,002954530854754;
0,00313083750407475;
0,00394445802034547;
0,00509479920844846;
0,0059562414505317;
0,00606123480287277;
0,00543259793752268;
0,00454293389692275;
0,00391160648790559;
0,00368499008606478;
0,0035472543215627;
0,00301548947248517;
0,00188273973469823;
0,000429246847753617;
-0,000768024157919356;
-0,0012704556477937;
-0,00110412157055703;
-0,000709158636596568;
-0,00056317657112481;
-0,000790362927618252;
-0,00107773439118841;
-0,000963746525376596;
-0,000255109436924493;
0,000773760342607829;
0,00156510403361067;
0,00169544070358569;
0,00118627094296825;
0,000458701525033725;
-2,47113431112851E-5;
-0,000133004033829731;
-0,00015034046378994;
-0,000507870283525633;
-0,00139150581053832;
-0,00255265692806746;
-0,00347824857187806;
-0,00377956838348147;
-0,00348112893937366;
-0,00297595874614953;
-0,0026895613060952;
-0,00273251979312671;
-0,00282701976049963;
-0,00256359904122431;
-0,0017718644416689;
-0,0006968626908965;
0,000165238108714117;
0,000438011127326526;
0,000140236748471744;
-0,0003549913867657;
-0,000637997529917859;
-0,000592973028906335;
-0,000471598335203077;
-0,00065541744836692;
-0,0013089925652354;
-0,0022129443989622;
-0,00291461116787251;
-0,00307152915873255;
-0,00270599648112834;
-0,00216500383277021;
-0,00182350671339814;
-0,00177841769535155;
-0,00178452466942073;
-0,00148122171288726;
-0,00071895567558198;
0,00028606722745232;
0,00109708560227695;
0,0013831936688059;
0,00116122868243604;
0,000759333395247533;
0,000537592508108004;
0,000598039667820056;
0,000720395970143949;
0,000570679022149824;
5,08041726532881E-6;
-0,000784177898494661;
-0,00140109938300198;
-0,00154644980367121;
-0,001239942403467;
-0,000784631201851207;
-0,000507395208502933;
-0,000491992592374224;
-0,000523763806912885;
-0,000287951029761485;
0,000345635573972018;
0,00118827408550341;
0,00185943022057137;
0,00207123662932169;
0,00183878027626086;
0,00144793160343104;
0,00121214198037669;
0,00122050870762872;
0,00128227250243798;
0,00110811655961432;
0,000573683507827229;
-0,000154336674790891;
-0,000733138005393967;
-0,000904039816000761;
-0,000684358385693743;
-0,00033605567952806;
-0,00014112827670254;
-0,000171216914819373;
-0,000240456844070426;
-7,71417411475367E-5;
0,000430700542295991;
0,001119948652518;
0,00166249006077089;
0,00181048614505367;
0,00157717110956494;
0,00120872417594299;
0,000974857770165251;
0,000952383205497352;
0,000977839527935395;
0,000803307362943095;
0,000322330685367919;
-0,000322362621714711;
-0,000837623804746112;
-0,00100262869166501;
-0,000832601362281308;
-0,000551481559133615;
-0,000399781563937871;
-0,000438125952534411;
-0,000507600252213519;
-0,000376616605797497;
4,97840856375312E-5;
0,00063213039018416;
0,00109079987757036;
0,00121491112676963;
0,00101582575791842;
0,000702814984942208;
0,000504964078331825;
0,000487584875141613;
0,000512334308565197;
0,000369439694126099;
-3,11173934358841E-5;
-0,000568812038178063;
-0,00099637471472616;
-0,00112792751672702;
-0,000976778764811322;
-0,000731851423214319;
-0,000595498378635311;
-0,000618285775290435;
-0,000666190769274948;
-0,000544584014063533;
-0,00017414080963462;
0,000327467605824133;
0,000725243686380283;
0,000842286426269701;
0,00068822380719795;
0,000438408335857709;
0,000284612300350483;
0,000281591010972135;
0,000314046919392171;
0,000207195930311667;
-0,000113893172116765;
-0,000548996187236534;
-0,00089279386497273;
-0,000991316128948552;
-0,000856038861890998;
-0,000643801679947339;
-0,000522047074201132;
-0,000532147455315934;
-0,00056281115981579;
-0,000453116824582079;
-0,000137929064045912;
0,00961851196708237;
0,0232514378283223;
0,0170988490260629;
0,0100394712424756;
0,0125763607138662;
0,00731187170324776;
0,00592257145761743;
0,00490153672955289;
0,00107650119315346;
0,00101049882328197;
-0,0108969045501713;
-0,0252718180556383;
-0,0199080087611962;
-0,0146035438861472;
-0,0175004251358804;
-0,0132267885534232;
-0,0119288785648812;
-0,0111425893189311;
-0,00812202931329143;
-0,00898528112215215;
-0,00784803246913389;
-0,00766829042723689;
-0,00704457821346914;
-0,00498530564475918;
-0,00391288459308027;
-0,00226673637118623;
-0,00158255232537789;
-0,000945842792532334;
0,000206446462519649;
0,00155528701355198;
0,00344484226802272;
0,00483278531062642;
0,00554868394555557;
0,00558566786965307;
0,00524474364762609;
0,00517870102415388;
0,00536672787335318;
0,0056263415946992;
0,00549644391184186;
0,00476213420296492;
0,00372600001351067;
0,00285962840111827;
0,00259834394474945;
0,00290676913959813;
0,00338227297171198;
0,00360482481433901;
0,00344902908873804;
0,00322013839771847;
0,00334226895041009;
0,00399704386328729;
0,00493313612251653;
0,00562482481886239;
0,00567847326875872;
0,00511024655135071;
0,0043166530759459;
0,00373726588018451;
0,00350003785500559;
0,00334330495361567;
0,00286059921761723;
0,0018747251560391;
0,000618573663525791;
-0,000422759010969403;
-0,000878709122155676;
-0,000771062761848305;
-0,000472621964420704;
-0,000388013316432425;
-0,00062027566602425;
-0,000898523228011623;
-0,00082489659813823;
-0,000233039468423498;
0,000638843770409521;
0,00130596102967343;
0,00139834665762078;
0,00093212651033448;
0,000272903172809331;
-0,000174288399560521;
-0,000291158498132767;
-0,000322305528455942;
-0,000643914634613828;
-0,00142107315172663;
-0,00243971764017469;
-0,00325268051310866;
-0,00351962141195076;
-0,00326176695403937;
-0,00282434537419734;
-0,0025813261998379;
-0,00262824037729262;
-0,00271627388605081;
-0,00247976794230555;
-0,00176669450589586;
-0,000797335043495054;
-1,84919595388657E-5;
0,000229067734939966;
-4,01098024841693E-5;
-0,000490400233899803;
-0,000750173721252222;
-0,000711296037414298;
-0,000598673244242782;
-0,000757659405032085;
-0,00133977675386104;
-0,00214894056666262;
-0,00277570753711747;
-0,00290880096227969;
-0,00256810760606754;
-0,00206985318948907;
-0,00175615682803488;
-0,0017142000259779;
-0,001716386213778;
-0,00142862952485907;
-0,000712293420878817;
0,000231249460790613;
0,00099413567919974;
0,00126565309107719;
0,00105941515944719;
0,00068173226708428;
0,000471500069647436;
0,000527380844963602;
0,000644780450318242;
0,000509666784739485;
-1,54376462532228E-5;
-0,000751868242173176;
-0,00132722493501957;
-0,00145861370287612;
-0,00116409149824817;
-0,000730644369841592;
-0,000468439452313447;
-0,000456100133500795;
-0,000486796717019257;
-0,000257434330875033;
0,000357662415105865;
0,00117608408115679;
0,00182864359592024;
0,00203442256826134;
0,00180616865221193;
0,00142132098212099;
0,00118656078455635;
0,00119126962006317;
0,00125086571278814;
0,0010820971505376;
0,000561223360424069;
-0,000150280737112517;
-0,000716437332150075;
-0,000882233485527429;
-0,000663975445122632;
-0,000320086599709644;
-0,000129591552137509;
-0,000162921900624025;
-0,000233739821084954;
-6,93930799316471E-5;
0,000443007432531164;
0,00113943358631056;
0,00168826271930265;
0,00183740930748512;
0,00159853220764259;
0,00122071279373346;
0,000979060950163322;
0,000953731272592669;
0,000979393415779733;
0,000802477314818013;
0,000312343440203776;
-0,000346443018980463;
-0,000873425889652414;
-0,00104078080507114;
-0,000863268684615113;
-0,000571825342653469;
-0,000415537061464033;
-0,000457127673801697;
-0,00053026885497334;
-0,00039188304641446;
5,8445464136994E-5;
0,000674312894674668;
0,00116019842404564;
0,00129165452020665;
0,00107911919724472;
0,000744204388660495;
0,000531499805372373;
0,000512175896601237;
0,000539312199569827;
0,00038775567044957;
-4,0661381979551E-5;
-0,000617705926259983;
-0,00107707339886162;
-0,00121704973611944;
-0,00105093547217911;
-0,000783361676912946;
-0,000634797189013506;
-0,000660650710834631;
-0,000713784856331032;
-0,000579417423750249;
-0,000169039071840199;
0,000387807989866999;
0,000830086283473648;
0,000959715956433674;
0,00078595056968806;
0,0005041999703643;
0,000329977429075245;
0,000325921347391532;
0,000362667246354784;
0,000242124855400472;
-0,000121995312379447;
-0,000616963348513085;
-0,00100888203385554;
-0,00112076995438167;
-0,000964466893992198;
-0,000719580342939125;
-0,000579394487572714;
-0,000592354205125923;
-0,000629472523493184;
-0,000502711205856713;
-0,000134755161234464;
0,000360893509856608;
0,000755885107406409;
0,000877117873065298;
0,000732759348737469;
0,000493501974916431;
0,000347449817516764;
0,000349243447742983;
0,000386133931927562;
0,000285593999602898;
-2,74344447966052E-5;
0,00887864481845498;
0,0218366894541794;
0,0154843145786019;
0,00868176126950465;
0,011631595077832;
0,00661066395707131;
0,00520848078549926;
0,00412437522258959;
0,00049196732426361;
0,00100232366932944;
-0,00079178322160532;
-0,00125196827920527;
-0,00196288990490137;
-0,00383507935236246;
-0,00437672518341555;
-0,00547320121861014;
-0,00555914104271427;
-0,00577095039083318;
-0,00667111246506748;
-0,00787041000277482;
-0,00966930594968884;
-0,010857565773389;
-0,01121886526301;
-0,0106950393487842;
-0,00961480377853118;
-0,00873637820461692;
-0,0081495589553398;
-0,00780765263933675;
-0,00730768248736991;
-0,00640900212988557;
-0,00530206087904232;
-0,00429607524808189;
-0,00370424555513676;
-0,00345190480399659;
-0,00320529907863557;
-0,00268010598668241;
-0,0018853303699046;
-0,00120775315781188;
-0,00107456356707341;
-0,00161288644095011;
-0,0118246142933574;
-0,0257350743807419;
-0,019373548607192;
-0,0115908016691394;
-0,0131454847125259;
-0,00697787690186319;
-0,00495290744177147;
-0,00351692590188779;
0,000689307308198997;
0,0012367680527856;
0,00436077616809436;
0,00590983253224356;
0,00708407964181673;
0,00885701210768989;
0,00917864512693353;
0,010361022543343;
0,0108633629528811;
0,0113977801591021;
0,0119988967948751;
0,0121061417298288;
0,0124041303718067;
0,0123888475557043;
0,0123833144627487;
0,012338144908299;
0,0120991567908494;
0,0118469439396446;
0,0114292331846434;
0,0110199920704662;
0,0106445204238226;
0,010292613425637;
0,00997470834908875;
0,00955893935535576;
0,00902938979139995;
0,00836800800919305;
0,00762406887628666;
0,00688081477497718;
0,00616570837815428;
0,00549655434905308;
0,0048438526026943;
0,00418864356007838;
0,00353451887064567;
0,00289049794965532;
0,00226978781351639;
0,00166064473967801;
0,00104571039303324;
0,00042055800867115;
-0,000192774947173067;
-0,00074807833417434;
-0,00120830689460582;
-0,00157014688939239;
-0,00187264151273367;
-0,00217609859101181;
-0,00252563368432867;
-0,00292781178257734;
-0,00335022904356363;
-0,00374567768298587;
-0,00407970613729683;
-0,00434386573330001;
-0,00455045845197714;
-0,00471662116856523;
0,00447977946308906;
0,0176623986737123;
0,0113081293954197;
0,00427658693696667;
0,00691799808440576;
0,00168202867873035;
0,000223002176681371;
-0,000840205168868692;
-0,0045156771469937;
-0,00418394255022323;
-0,00622575198879919;
-0,00684893112395822;
-0,00752214916962255;
-0,00917122894584599;
-0,00943414149508731;
-0,0103277042406186;
-0,0103057042837465;
-0,0103929506444507;
-0,0110042753537085;
-0,0116980681719582;
-0,0128774008542352;
-0,0135267681485184;
-0,013579385907765;
-0,0129780603604004;
-0,0119150794917738;
-0,010988693314777;
-0,0102283523974324;
-0,00966112988583673;
-0,00901443924375787;
-0,00811359870193021;
-0,0164213837538097;
-0,0287350011063267;
-0,0217447980633026;
-0,0142605844991964;
-0,0164259263618395;
-0,0105208624812695;
-0,00820214638202949;
-0,00634021572925066;
-0,00219644285740734;
-0,00247359920869655;
-0,000585314185712777;
5,79618694788942E-5;
0,00120901163351657;
0,00380524072493562;
0,00522843055098554;
0,00717852849771872;
0,00796041881610278;
0,00868803348755766;
0,00998679009207165;
0,0115384203279681;
0,0136707034032966;
0,0151624625582946;
0,0157924314531464;
0,0155371238661764;
0,0147780071146696;
0,0142854908865053;
0,014077338870148;
0,0139715135577552;
0,0134505587377797;
0,0122687765815208;
0,0107463387288226;
0,00939206528133406;
0,00867415821203837;
0,00854222022700876;
0,00855499131221463;
0,00826824050591267;
0,00757722618449292;
0,00685104633739732;
0,00657211480828521;
0,00693201155303176;
0,0076263816322881;
0,00804498766147434;
0,00773253049055722;
0,00670081453567533;
0,00539615178096311;
0,00432399679013383;
0,00365418502771137;
0,00312790016190807;
0,00231638351585315;
0,00102149772932949;
-0,000529153674942334;
-0,00184572572977276;
-0,00255815169821254;
-0,00270096432556738;
-0,00266185764783912;
-0,00284448855237692;
-0,0033262888383592;
-0,00379722002329636;
-0,00383159854388652;
-0,00326714022811938;
-0,00237901289506328;
-0,0017022184829276;
-0,00164352691440193;
-0,00219362573680222;
-0,00296541468673805;
-0,0035192710319733;
-0,00370620368626325;
-0,00375377647899923;
-0,00403628892850512;
-0,00472952966625476;
-0,00563961648008314;
-0,00634487184545704;
-0,0065283712267546;
-0,0062229141049721;
-0,0057665657042093;
-0,00550923586824973;
-0,00551682987977338;
-0,00551996071496315;
-0,00515040722216318;
-0,00427010633069934;
-0,00312075637440243;
-0,00216876397596316;
-0,00176849885918239;
-0,00191298398449428;
-0,0022674997855738;
-0,00245109899375204;
-0,00233342417059564;
-0,00210922075793952;
-0,00210047317105973;
-0,00245927877494887;
-0,00302061983388589;
-0,00342425378065529;
-0,00339993863223138;
-0,00297686585521601;
-0,00244460666957885;
-0,00210116804790536;
-0,00200013288572351;
-0,0019081846512418;
-0,00150893909907015;
-0,000684925765582629;
0,000355207885066499;
0,00121067854694775;
0,00157753240274765;
0,00146197862144642;
0,00115131659371649;
0,00097303793211175;
0,00104112199120907;
0,00119215409733125;
0,00115354532523186;
0,000796114855750256;
0,0002591303155036;
-0,000153072695031336;
-0,000212577184691148;
5,54525249340291E-5;
0,000406745441578619;
0,000591496005845006;
0,000567589889988544;
0,000535091026965276;
0,0007626707049699;
0,00134906020111894;
0,00211643282604957;
0,00272481183139434;
0,00291686194471495;
0,00269802659912981;
0,00231167545152967;
0,00203569430866294;
0,00196854295670969;
0,00197519751316767;
0,00182812338955552;
0,00141891936077342;
0,000862978760400589;
0,000413101998852801;
0,000258118911818141;
0,000376215631505759;
0,000564169099909124;
0,00061571245559042;
0,000498502814300163;
0,000381425256070868;
0,000488865493585717;
0,000901972508501617;
0,0014708164590696;
0,00191075814275418;
