-3,66470835583513E-13;
-8,41733889613572E-13;
-9,14052884190625E-13;
-4,93454321662305E-13;
-2,86915912220995E-13;
-3,57508371949166E-13;
2,09803050903117E-13;
1,53881192263645E-13;
2,24217650892709E-13;
8,02606434237707E-13;
4,9719134307086E-13;
-3,83630822558257E-14;
-1,31325690569244E-13;
8,41111817541779E-13;
1,93045649906989E-12;
1,54785462945112E-12;
1,2743460179709E-12;
9,70357061880196E-13;
8,85107045863607E-13;
1,27285951243489E-12;
-3,36711604756009E-13;
-1,34697100307554E-12;
-7,26283970122545E-13;
-8,05647355206696E-13;
-8,45543875842557E-13;
-6,8510789320126E-13;
-2,36636230546813E-13;
-1,86785668461561E-14;
-2,97367190700668E-13;
-1,99109292112652E-14;
4,3602137037005E-13;
7,25067257248763E-13;
6,85738610960802E-13;
5,23004807851648E-13;
3,86199620238146E-13;
2,43677389822387E-13;
7,85540845265039E-13;
1,22602547213393E-12;
1,73138579893172E-12;
1,60476320814781E-12;
-2,34183455750321E-13;
-1,05711144366739E-12;
-5,60702854433395E-13;
-8,45436738310906E-14;
2,610477105189E-13;
1,8452686970329E-13;
-1,27677756777523E-13;
3,21415905444549E-13;
1,23672348055287E-12;
6,9700148861752E-13;
5,55908763533082E-13;
9,20207058954508E-13;
-1,13410430628098E-13;
4,16435034159312E-13;
1,16348276542368E-12;
2,62230325644387E-13;
1,16995489529359E-12;
1,7256649016755E-12;
5,33483485677664E-13;
4,09769302434205E-13;
1,26020559499571E-14;
-2,05562329991889E-13;
3,48219472117239E-13;
1,25347221101908E-13;
-3,79374522493464E-14;
-4,15941638999686E-13;
-1,80696138923469E-13;
4,25658763930279E-13;
-2,90109222672767E-13;
9,29024558728526E-14;
1,14997507171708E-12;
7,31942556131772E-13;
6,68572397697014E-13;
5,8319908693439E-13;
6,84278050054207E-14;
9,92333598463797E-13;
1,18515078669033E-12;
8,08902198524608E-13;
1,2735549616491E-12;
5,98436334892727E-14;
-1,02008909955231E-12;
7,86614407719445E-14;
-5,54988220438297E-14;
-1,23749436490611E-12;
-5,60308389282354E-13;
-6,70719010564079E-14;
2,66022384174317E-13;
2,57661025435887E-13;
-5,63520494110839E-13;
2,04849689538827E-13;
3,74188018751547E-13;
7,14874853030903E-13;
9,21835707037962E-13;
1,75863904880425E-13;
1,51001147787157E-12;
1,18028269129356E-12;
-2,41015151883926E-14;
1,37110691897814E-12;
1,63863552533845E-12;
4,13056457887521E-13;
-3,87619795227799E-13;
-8,27809652480985E-13;
-2,0252518404341E-13;
2,70425434012467E-13;
-6,00605802522149E-14;
-1,25288320989513E-13;
-2,26113216986138E-13;
4,08147649045561E-13;
2,55519716052083E-13;
-2,52130123808467E-13;
6,56145231215269E-13;
4,31303709407538E-13;
2,33782470232487E-13;
5,01031177780305E-13;
1,09652433472087E-14;
-1,34714718615031E-13;
-4,38316700595443E-14;
1,06690174341544E-12;
1,24931729267663E-12;
-5,76271245317732E-13;
-2,42879859178985E-13;
6,03984091222956E-13;
-6,3331801977679E-13;
-7,85111647415332E-13;
3,09467062227795E-13;
8,74231837938902E-13;
5,03908791839899E-13;
-2,12920884710394E-13;
2,54901322317855E-13;
7,14364729334108E-13;
6,6827160916936E-15;
-1,82125985712614E-13;
3,77898824507984E-13;
8,7614491363659E-13;
1,05619256511742E-12;
3,03029137937827E-13;
-3,79908415587361E-13;
8,6366065271625E-13;
1,24044706374626E-12;
-2,82930101567681E-13;
2,01396169725121E-13;
-7,47487879572259E-14;
-7,3800735459261E-13;
8,88767029441535E-13;
2,10839283415353E-13;
-3,57337162908369E-13;
8,06900958274209E-13;
3,60044459555983E-13;
3,69586201868707E-13;
9,36420780081454E-13;
1,42282380210071E-13;
-3,31567450356642E-13;
1,10319646307556E-13;
6,08629866588632E-13;
8,11110176372946E-13;
3,09471562482599E-13;
7,25554033908253E-13;
1,53110410875059E-12;
7,10447308889912E-13;
2,39979767007761E-13;
6,6281788189939E-13;
2,97375814957863E-13;
-9,75534595538657E-14;
-4,99292300300645E-13;
-3,31266296315677E-13;
5,45499096476634E-13;
2,03936727820073E-15;
-7,58807923950788E-15;
7,24588976683012E-13;
7,87374750814679E-13;
1,20196956608981E-12;
7,72310916866595E-13;
4,03414095457877E-14;
7,76983190130835E-13;
1,32468931427325E-12;
5,58915889259636E-13;
4,00956559307499E-13;
9,48085475322909E-13;
7,53676584919646E-13;
3,77154797263265E-13;
3,66387250732479E-13;
-1,30234101323126E-13;
-4,95278836520693E-13;
8,07312146607133E-14;
1,38276799031653E-13;
-2,44837453308578E-13;
-4,08249683319243E-13;
1,54068069975051E-14;
4,73204980670708E-13;
1,4711337793432E-13;
5,52214056113297E-13;
1,1167872978075E-12;
1,00855439256519E-12;
7,69575524128486E-13;
4,66782101004496E-13;
6,08982654299583E-13;
8,17101532216876E-13;
1,10500814577356E-12;
9,84979947874217E-13;
-9,10650709747638E-15;
-1,2975994587259E-13;
1,83538258462898E-13;
-1,1068951196814E-13;
-6,91963156703019E-14;
-2,25565811136696E-13;
2,21304119408566E-13;
9,19630687466946E-13;
-2,16624501843082E-13;
-9,43103156742002E-14;
9,98428106536801E-13;
4,37020504382391E-13;
4,62411961171731E-13;
9,11792954313785E-13;
5,11106870841576E-13;
3,49174912249254E-13;
7,82314828077596E-13;
7,02680161675253E-13;
7,64718170625238E-13;
1,00077898648006E-12;
1,24965000652301E-13;
-1,79426138836654E-13;
-3,87135446773078E-13;
-7,15979165135157E-13;
-6,7672358736237E-14;
7,95304330964632E-14;
8,08534318102214E-13;
8,85181340279893E-13;
-6,50818878650271E-13;
-2,92510881194077E-13;
8,26901534580015E-13;
1,01356934454886E-12;
8,25863430848754E-13;
8,56661020828529E-13;
1,25637503831451E-12;
6,203235991308E-13;
-1,0458049997027E-13;
3,75291857271245E-13;
1,32456033383722E-12;
6,10920081946318E-13;
-3,25522615716231E-13;
5,51825330881078E-13;
-7,26026524805958E-14;
-1,53460098171666E-13;
3,05433946671716E-13;
-5,18703770523149E-13;
5,23995336689601E-13;
9,71425712048431E-13;
6,85321948264222E-13;
2,95697745057827E-13;
-8,83605319646907E-14;
4,21993422668926E-13;
1,89004839086048E-13;
1,32347438147825E-12;
1,56143051680928E-12;
6,61848809918498E-13;
1,06150569807043E-12;
3,41931792099303E-13;
1,80657473940848E-13;
2,98936798321209E-13;
-4,26890055503075E-14;
2,28129297343441E-13;
2,78135031640917E-14;
2,51305445525211E-13;
2,48771669743376E-14;
-8,35493727113696E-14;
9,12282180255844E-13;
6,02573758820651E-13;
6,72797985463132E-13;
4,1758265019828E-13;
-3,23093642840241E-13;
5,43061216910675E-13;
1,04116956833026E-12;
9,51095262550208E-13;
-1,32259667783649E-13;
4,77301113907376E-13;
1,60606920857218E-12;
1,85629751863255E-13;
6,83640971104092E-13;
1,74745728881811E-12;
9,48433912951662E-13;
5,60572573168369E-13;
8,56528880299187E-13;
1,14909798883147E-13;
-4,9636758516677E-13;
-1,0923668926029E-13;
-3,68504972313441E-13;
-4,64987512926996E-13;
-3,25661228551527E-14;
3,60775473472091E-13;
-2,32410993779943E-13;
-3,51681135764987E-13;
5,2308281612686E-13;
2,77237473636034E-13;
3,83928879596209E-13;
3,98040680695021E-13;
-1,06383760050489E-13;
2,75746655432059E-13;
2,90675100507372E-13;
-2,42684388994409E-13;
2,84637562089085E-13;
1,43948362350267E-12;
6,95344585082946E-13;
-2,62860180152962E-13;
4,41001585166363E-13;
5,36042022202099E-13;
4,48126937658957E-13;
4,09365510313483E-13;
1,44047417905829E-13;
5,26806988800747E-13;
2,10037027691519E-13;
-1,48793690851177E-13;
2,95168866960004E-13;
2,74133829883526E-13;
5,36876882822287E-13;
6,94189287241929E-13;
4,91849964403698E-13;
4,7917364887795E-13;
1,67493109108113E-13;
5,95021971758329E-13;
-1,38160136593544E-13;
-5,57982139877714E-13;
1,0161986124811E-12;
3,78178827101204E-13;
2,49158512895242E-13;
2,78576823770991E-13;
-5,8257913870662E-13;
4,62770413317751E-13;
-2,25149748075997E-15;
-2,24199458911816E-13;
6,76280763734909E-13;
6,36348503762441E-13;
9,13230070618313E-13;
4,70213334591832E-13;
4,61509579825814E-13;
4,75300156542267E-13;
1,19868957743478E-13;
7,98477281727338E-13;
5,05314463735492E-13;
2,64547275271713E-13;
7,80074276356383E-13;
5,16899304458452E-13;
-1,46054188399821E-13;
-2,66927784701395E-13;
1,80598818394344E-13;
-1,04046411732211E-13;
2,57935072673618E-13;
8,4928876326591E-13;
2,13630497845343E-13;
6,48186488590674E-14;
2,96785310280547E-13;
4,2500534704977E-13;
1,93062734303161E-13;
3,22985305118423E-13;
4,51970975112869E-13;
3,49815323251016E-13;
7,51528478093958E-13;
6,71206473961231E-13;
5,95418072602561E-13;
4,87898406899136E-14;
-1,82452151683365E-13;
-2,42465282211136E-13;
-2,62880132122171E-13;
4,36663482809999E-13;
-9,72675450927711E-16;
2,55482572410344E-13;
-1,82003349528214E-14;
-5,43623211732148E-13;
9,99539625896206E-13;
8,19771859065564E-13;
-2,35724986477447E-13;
1,13436510578559E-13;
8,14333432370137E-13;
6,59321587154631E-13;
1,49355771202222E-13;
-5,6223035794505E-15;
-5,92260970145718E-13;
3,64325715761717E-13;
1,34246178936561E-12;
7,38145103832223E-13;
6,81332405664455E-13;
2,86156134547215E-13;
6,25282564494366E-13;
1,12012915463672E-12;
-2,16356367871992E-13;
-7,03635454741828E-13;
1,8446703190484E-13;
8,1600835960437E-13;
1,13667506400571E-12;
6,36760140316106E-13;
-2,8274180769588E-13;
2,20146818733876E-13;
7,45005016029323E-13;
3,51774055993581E-13;
3,00305298929804E-13;
-2,74610687808228E-15;
-1,13523365256236E-13;
3,85301902699579E-13;
3,72113952745685E-13;
4,55360568953226E-13;
9,89686084744679E-13;
7,27218953468435E-13;
3,46751836281839E-13;
5,40149014030919E-13;
8,10392448617543E-13;
7,26448474045231E-13;
2,94465574662343E-13;
3,69050477348207E-13;
1,72513349028627E-13;
-2,25305280190623E-13;
3,40601752189323E-13;
9,28746255384741E-13;
3,52484684587439E-13;
-4,69918447282178E-13;
1,8026647900215E-13;
7,37627208653367E-13;
2,72335418859997E-13;
9,30806891830467E-13;
1,26880015138378E-12;
7,10990883523187E-13;
8,17462792468429E-13;
1,40099972837424E-14;
-7,0733787689273E-14;
1,20888402188092E-12;
8,73734921183902E-13;
1,64369015636461E-13;
2,82581949870014E-13;
2,45935890266629E-13;
1,09580905950952E-13;
7,60715268046272E-13;
1,66067332614389E-12;
1,00070369002851E-12;
3,0579835254843E-13;
7,48979993024152E-13;
2,87632191581373E-13;
-1,92163608752787E-13;
3,31911905649418E-13;
3,03867084067356E-13;
2,94194501897143E-13;
7,64978793503679E-13;
8,53137219141974E-13;
9,19200057251947E-13;
2,12440109895003E-13;
-4,413993320526E-13;
1,33393702712632E-13;
-1,47468585315689E-13;
-1,58586205484526E-13;
4,36462863817184E-13;
4,11794132537013E-13;
6,88480258417232E-13;
6,29410326068014E-13;
5,03423945603878E-13;
6,17531889644332E-14;
-4,4880700802226E-13;
5,56173983345759E-13;
7,53702135893548E-13;
-2,60002427027573E-13;
-3,05694587269849E-15;
4,46942250408129E-13;
-6,69470688879128E-14;
-3,14470046781741E-13;
7,37608989732948E-13;
1,09039410558163E-12;
3,65759329212274E-13;
8,13769625496505E-13;
3,65357643698939E-13;
-2,00347910755745E-14;
7,43356287889979E-13;
9,41260569354924E-15;
1,61526715786429E-14;
1,45928441500407E-13;
-4,17275639879654E-13;
5,54878800251976E-14;
1,5299240934426E-13;
3,54008162437714E-13;
4,99976298272071E-13;
4,88332072821352E-13;
6,94878125674128E-13;
3,92227235014821E-13;
3,6937171724581E-13;
4,05449271647541E-13;
3,94729641410903E-13;
7,48269856844457E-13;
5,0067248358961E-13;
1,09795017476035E-13;
4,90915942622279E-13;
4,66756609375638E-13;
3,38889392506175E-13;
1,64823367213012E-13;
-1,66270405405054E-13;
3,32616517355192E-13;
1,53241203346945E-13;
-7,20386036305601E-14;
5,5499816638385E-13;
8,02896299439269E-13;
5,3647837331195E-13;
-3,10568952662077E-13;
-4,39002417658502E-14;
8,35646186454081E-13;
2,70178069705542E-13;
1,07354207786079E-13;
2,57218438673212E-13;
-7,63365179334153E-14;
3,51506713741592E-13;
2,95314090382833E-13;
-4,02373148209855E-13;
-7,76495397367104E-14;
8,79108416134381E-13;
8,41571497399851E-13;
2,59566049612195E-13;
8,27031654038637E-13;
4,91995082575539E-13;
-4,91318175430399E-13;
1,16444778503709E-13;
2,83247598092174E-13;
3,31183043869667E-13;
3,74828738689011E-13;
5,09869490757032E-14;
6,56022475214654E-13;
6,16441475470438E-13;
4,66441695849087E-13;
7,39380574881374E-13;
3,86307197222261E-13;
4,44671913549674E-13;
4,67195294507102E-13;
3,56805300596488E-13;
6,79341043377447E-13;
2,25930783469854E-13;
6,104095452636E-14;
3,705520424516E-13;
3,41069143418129E-13;
1,41889709689108E-12;
1,60158783648036E-12;
5,16053835043157E-13;
3,56039833441104E-13;
2,68076533114329E-13;
2,29031446361066E-13;
-7,45301741644194E-14;
-3,17197236444474E-13;
5,0200017099137E-13;
6,68667486321726E-13;
6,89902924272131E-13;
8,64945123564924E-13;
6,98921351484512E-14;
-1,71579109699526E-14;
4,31568741657488E-14;
3,80066728298934E-13;
9,34473823060025E-13;
-1,68079915411522E-13;
-5,62291528444131E-13;
-2,92259947983415E-14;
-3,46993452317937E-13;
-5,05571509696886E-13;
5,38192277983379E-13;
1,05217337809772E-12;
5,27039230971445E-13;
5,83949335829031E-13;
5,09403279526327E-13;
5,3826162512116E-13;
5,08145764498667E-13;
5,56110999999553E-13;
5,78512581238879E-13;
-6,66425644799562E-14;
6,45761734473825E-13;
1,16609562612145E-12;
5,69497336329267E-13;
-4,91778519063487E-14;
-3,76917309155129E-13;
3,76595787585112E-13;
3,44921476236397E-13;
3,27102059750056E-13;
5,14052172740554E-13;
4,42976491753569E-13;
6,61541259339264E-13;
-3,32104322948302E-13;
-2,15891585651013E-14;
6,61333931624386E-13;
1,70600200040304E-13;
5,31809133104757E-13;
4,04134790832845E-13;
3,3349717554826E-13;
8,82732894114253E-13;
8,11806701727956E-13;
5,66780422401207E-13;
4,98392894279769E-13;
3,75798480950857E-13;
3,5887495785243E-13;
1,85705223550063E-13;
5,98735822117738E-13;
1,28318809623958E-12;
-5,62906903482864E-14;
-8,47746327514922E-13;
-7,09711549223088E-14;
-4,24230457069981E-14;
4,14723467139918E-13;
8,29889724801279E-13;
7,23793409581626E-13;
7,52153501927961E-13;
2,36858398648442E-13;
7,58749079443155E-14;
1,42024472720127E-13;
6,70936772651746E-14;
5,09088862669632E-13;
4,60342541661992E-13;
7,43116079431801E-13;
1,56281198315852E-12;
1,02014721732184E-12;
1,0630017786078E-13;
2,88390593001408E-13;
7,30364266820842E-13;
3,1835859409135E-15;
9,0823641018261E-14;
1,53011737727945E-12;
1,04696643234909E-12;
1,68610626420257E-13;
8,47702511540126E-13;
1,2796603985041E-12;
5,69131311911715E-13;
9,00837080165254E-14;
9,62099504365696E-13;
1,0332859768212E-12;
4,70237103672988E-13;
4,76062104988384E-13;
-1,95292581219364E-13;
-2,52318711576978E-13;
5,34795349639968E-13;
9,19437064008777E-13;
8,7182539828452E-13;
2,76894397243803E-13;
2,22408629137885E-13;
8,12787651470032E-13;
8,52439480141568E-13;
4,40382636124643E-13;
-3,51341408218448E-13;
-3,42490810868595E-13;
5,90375868109359E-13;
5,56050551500629E-13;
9,58609702556786E-13;
1,03578511615311E-12;
-2,21891643079624E-13;
2,21320471206562E-13;
4,00866090666773E-13;
2,19029706036943E-13;
7,61248288747772E-13;
-1,28334507263095E-13;
8,83127418567601E-13;
1,30001675988185E-12;
-5,3967204664342E-13;
7,95959858109479E-14;
7,57882322438098E-13;
6,55178285338092E-13;
2,87025849856448E-13;
-1,36353042119565E-13;
2,28632383713208E-13;
2,39442421140776E-13;
-2,05500332092719E-14;
5,29147065631116E-15;
3,89023585467229E-13;
9,17627092345399E-14;
-1,0796835600799E-13;
4,93399788593306E-13;
8,28451836355022E-13;
2,45184044436345E-13;
-4,93410517690293E-14;
1,17383760991469E-12;
1,24980415917458E-12;
5,14028605800919E-13;
5,11412764007459E-13;
4,98854109330438E-13;
7,18935714464705E-13;
5,25888061043974E-13;
5,61956175278898E-13;
3,43130465738659E-13;
-3,9611806950659E-13;
3,31361416037299E-13;
1,13830140147318E-12;
6,87162067004028E-13;
5,97059749333602E-14;
-4,55052404520077E-14;
2,23715387194385E-13;
5,37567712100188E-13;
7,58894241513236E-13;
9,00108157173275E-13;
8,33123941200738E-13;
1,2018680959504E-13;
-1,89194285059765E-13;
9,98974529186668E-13;
7,16979748653149E-13;
-8,49337850225767E-13;
4,37315964568455E-13;
1,05401138591241E-12;
9,19945340353654E-14;
6,3038757565841E-13;
1,64144786033817E-13;
-3,38105145250024E-13;
5,47906676499775E-15;
1,94872045733078E-13;
4,32325225669065E-13;
2,99502739676407E-13;
6,25262779569805E-13;
7,02926912624847E-13;
5,47819474376174E-13;
4,78408471103879E-13;
-1,76590374089588E-13;
4,17081579658606E-14;
7,37945029704128E-13;
3,06858605604877E-13;
4,0693025278424E-14;
6,14213957415883E-13;
1,27020113961781E-12;
8,00760931657893E-13;
-3,23135967498486E-14;
2,99190558248183E-13;
1,59332703982828E-13;
1,32197187095678E-15;
1,26299976195987E-13;
3,06132503000591E-13;
1,01968025099181E-12;
6,37938721647366E-13;
-4,78725337447525E-13;
-8,39170032724417E-13;
-2,82883220902417E-14;
7,4513400108819E-13;
4,13831366889549E-13;
-1,74369872033606E-13;
2,92368047152343E-13;
9,18288040244716E-13;
2,82745227443441E-15;
-1,19005904402009E-13;
1,29274832260157E-12;
1,16583063719626E-12;
-3,76650115966143E-14;
5,67970788064949E-13;
1,60579064439748E-12;
9,45876306177645E-13;
3,53904663489888E-13;
8,73019460108571E-13;
9,76066478697301E-13;
8,3486895412383E-13;
1,20063643395722E-12;
8,9926911504357E-13;
8,7496502603075E-13;
7,24292378505585E-13;
6,00827401683628E-13;
1,42237997615128E-12;
4,03296110022544E-13;
-3,53497219543027E-13;
2,94782609689003E-13;
1,98731630013908E-13;
3,85537360361412E-13;
5,55103822925612E-13;
2,07762365681995E-13;
2,91847639449149E-15;
-7,33169919013275E-14;
3,91423736629831E-14;
3,84808584080417E-13;
1,24651109920912E-13;
-4,40334363368175E-13;
-6,05905751116785E-13;
3,59127627758769E-14;
6,07252462419628E-13;
-6,56944921478825E-14;
6,83623088820985E-14;
2,52906779704823E-13;
-2,03958217138774E-13;
3,64903385544532E-13;
5,26136842716872E-13;
1,16321935777266E-13;
6,06244438761915E-13;
5,66188505095859E-13;
-2,90308044690146E-13;
-7,1102044067047E-14;
-3,01573334204305E-13;
-7,09286135952599E-14;
9,6303839555038E-13;
4,4106248111188E-13;
4,30728878143209E-13;
4,12494169260428E-13;
6,24845584058748E-14;
3,27106972744577E-13;
1,73359233278253E-13;
3,80462098580343E-13;
2,62940873200857E-13;
-5,08152298691922E-13;
-2,83960006720965E-13;
2,67857628650848E-13;
3,86249030900472E-13;
7,86324952070721E-13;
5,73757352637507E-13;
1,64994431585544E-13;
6,59736206009972E-13;
9,15024137336268E-13;
4,11024597817266E-13;
-2,94934076241641E-13;
-2,67715258807988E-13;
1,58577924271531E-13;
-1,32577329744773E-13;
-4,34602268941423E-13;
2,04623017218916E-13;
1,98729908817687E-13;
-1,79239875698813E-13;
8,48997967814333E-13;
6,43161440729435E-13;
-3,02204790669863E-13;
7,0292950666712E-13;
9,51220188471225E-13;
-2,72806976445309E-13;
-3,88987830988386E-14;
8,52753568303666E-13;
1,37313240032919E-13;
-6,07351420144271E-14;
1,01329540848779E-12;
1,61358720878403E-12;
1,28592671846627E-12;
2,24377442247423E-13;
6,22398021318125E-13;
1,20183526680377E-12;
2,16388661031369E-13;
4,97306463528128E-13;
9,39421624769324E-13;
5,80945973640999E-13;
8,87629686111839E-13;
1,04094635903426E-12;
5,41468623042603E-13;
-2,82999012467493E-13;
1,24176186945441E-13;
6,2467889320364E-13;
1,09627438185145E-13;
6,16727939963428E-14;
1,88707139183161E-13;
6,76816685557883E-13;
2,399399648408E-13;
-3,48378551037687E-13;
7,03535316510839E-13;
7,70981770710011E-13;
4,46571339892537E-13;
5,91706098357549E-13;
3,48373956802212E-13;
7,55771772998105E-13;
6,50449250615595E-13;
1,19833705970215E-13;
1,20518626617533E-13;
2,25973394771622E-13;
6,00594102845724E-13;
1,65021840471071E-13;
4,91621181455361E-13;
1,06198350506979E-12;
1,08056099477866E-13;
1,24588034288522E-13;
2,15371066820973E-13;
5,02051620600382E-13;
5,09704858935137E-13;
-2,57830002807545E-13;
8,04510631881925E-13;
5,76664426986954E-13;
-1,15555830227028E-13;
6,57913896475941E-13;
2,06144779644603E-13;
7,46718064650705E-13;
5,15657732046506E-13;
-8,13323088469987E-13;
4,21761556337156E-13;
-5,72856923086886E-14;
-5,08682965198326E-13;
1,04096895841278E-12;
5,16689572635497E-13;
3,1330627685942E-13;
1,04051543562142E-13;
1,48925074048471E-13;
8,66278275357979E-13;
2,71111941687388E-13;
4,37506971298158E-13;
8,14602579282471E-13;
8,67003336525969E-13;
1,47890540497852E-13;
-4,86685548796367E-13;
8,01316797238179E-14;
-1,79216592265444E-13;
-7,90604164670269E-14;
1,0497705587272E-12;
1,2489466252611E-12;
1,39329202316439E-13;
-9,30203248568229E-14;
6,80727505773583E-13;
5,20119383022796E-13;
4,3297623287498E-13;
6,32011183957464E-13;
9,51818159514264E-13;
1,21423122103108E-12;
4,98151119471441E-13;
2,54204257324403E-13;
6,49592678849376E-13;
3,39059556905386E-13;
-1,31765168916462E-13;
3,32986977378246E-13;
6,74721768605179E-13;
7,59235795039779E-13;
6,75906110366212E-13;
3,12259697062714E-13;
6,45247500845628E-13;
-1,48957990250063E-13;
-4,75841620948293E-13;
5,19663970424031E-13;
1,93895679675674E-13;
2,11009788779583E-13;
2,06054646391449E-13;
-6,03170763384401E-14;
6,48786284082369E-13;
-1,23103123919387E-13;
-5,27678473211436E-13;
6,65356601091769E-13;
5,18005731362888E-13;
4,63825118553481E-13;
4,60798866613014E-13;
6,86696106451738E-13;
7,28713641136569E-13;
-1,83196046984038E-13;
6,5781962957081E-13;
4,04147850870821E-13;
-4,6662412908742E-13;
4,07571059753005E-13;
4,8218053553407E-13;
1,88332636167857E-13;
1,6161303788194E-13;
2,90496892259952E-13;
3,82502304621937E-13;
6,86035467676603E-13;
7,84257298245944E-13;
3,91699318718894E-13;
6,26044963158624E-13;
2,78715322560467E-13;
-4,89244260408378E-15;
3,97070274245767E-13;
3,84296578203366E-13;
7,61620012384537E-13;
5,4903454715228E-13;
3,54705397109918E-13;
6,80866628865031E-13;
1,3881805554495E-13;
1,72683331785833E-13;
5,07251626628574E-13;
4,5215944602424E-13;
4,11777614512667E-13;
4,59415215718962E-13;
3,07512343731291E-13;
-3,70490162980548E-13;
4,97713798017929E-13;
9,98916300716732E-13;
-7,30964353400181E-13;
-2,88206621714067E-13;
4,95227136847166E-14;
-1,08586993732385E-12;
3,88617946520776E-13;
1,08493373229468E-12;
1,8666424934987E-13;
8,97978610763249E-14;
4,89880215075936E-13;
5,70477558256451E-13;
-2,23349753039097E-13;
-3,61527383416442E-13;
-1,2245775290453E-13;
5,1495173962228E-13;
1,37510881028192E-12;
8,58851021253456E-13;
8,08476324016308E-14;
3,35901932868134E-13;
2,76801668657525E-13;
-1,52005189335952E-13;
5,42303984193112E-13;
1,7704351901255E-13;
-5,52085231919624E-13;
4,92775401138426E-13;
7,56823701955372E-14;
-6,24814213149004E-14;
1,18665124281278E-12;
4,53308534810885E-13;
2,96944226755037E-13;
4,04644650679617E-13;
9,25728661850131E-15;
6,73347290040892E-13;
6,00595093684052E-14;
-2,07480762943013E-13;
3,99347690636007E-15;
1,17977482662794E-13;
1,23840940133069E-12;
1,24038974553933E-12;
1,25170668501852E-12;
4,90816674734091E-13;
-4,11320614729196E-13;
7,66385459408099E-13;
2,90768030289859E-13;
-3,64889997537483E-13;
5,86003902020237E-13;
3,21494165035535E-13;
-1,67956462845489E-13;
5,29104908157597E-14;
2,81491524440875E-14;
3,65527127192259E-14;
-2,48477180145042E-13;
-5,46351743285842E-13;
2,90441781871973E-13;
4,55068743081309E-13;
3,97298652250846E-13;
5,82466207501476E-13;
7,71678269081075E-14;
5,45373558757619E-13;
4,89191513294594E-14;
-9,15832198382494E-14;
1,23159854348313E-12;
6,05127721643614E-13;
6,21883153282583E-13;
1,12490258209782E-12;
4,29019732037647E-13;
6,53630450859254E-13;
1,04237209348235E-12;
3,83338346651019E-13;
-4,40410469317107E-13;
-2,21858604476954E-13;
5,61815521539021E-13;
7,33716054493449E-13;
2,01158880094066E-14;
2,17155149729464E-13;
1,10548090865664E-12;
7,50156380509986E-13;
9,87769661867536E-13;
8,91846959415494E-13;
3,50420258764044E-13;
1,40986798366964E-12;
6,21404276156093E-13;
-2,09538483131927E-13;
1,35729710922626E-12;
8,13337274460652E-13;
-4,00666834905148E-13;
2,82805672686019E-13;
4,08409298817348E-13;
-6,75309505931592E-14;
4,84212819003077E-13;
7,1931602230374E-13;
3,22389938917089E-13;
7,36096690762927E-13;
4,94108264772631E-13;
-2,14875658672344E-14;
6,43155125541369E-13;
6,46123526431684E-13;
3,02675689741744E-13;
4,07286425621822E-13;
2,05463370283887E-13;
5,44397337574652E-13;
5,47644057279037E-13;
2,81508929547186E-13;
1,79981584739501E-13;
-3,53914972257201E-13;
7,8354573370712E-14;
-1,04862659935998E-13;
-6,9765457373953E-13;
2,12888957298325E-13;
7,69265713316627E-13;
2,61141537385764E-13;
-1,35670046289085E-13;
5,24115554752096E-13;
6,87403863939734E-13;
1,35095241730885E-13;
5,40738849528038E-13;
4,38476461932186E-13;
-9,75556309359633E-14;
1,56338398992549E-13;
3,25500438830079E-13;
1,66870947761934E-13;
-1,8977766053056E-13;
9,83507937528824E-14;
7,76376846345548E-13;
6,89350583657046E-13;
6,07845766232361E-13;
7,1384613108487E-13;
6,00052213315915E-13;
6,02654519044253E-13;
8,79633882453359E-13;
8,94934754496237E-13;
2,99466813421402E-13;
-8,95265889433514E-14;
3,59615480636457E-13;
1,84133990317957E-13;
-1,52060615962712E-13;
8,0826052127946E-13;
1,01311907188141E-12;
2,45855723696731E-13;
-8,71676514741509E-14;
-1,47103058488159E-13;
-3,28914431372694E-14;
4,82123607224316E-13;
6,67886413570672E-13;
5,34234565353532E-13;
3,02494325406477E-13;
-6,81102933331583E-14;
8,78883754381633E-13;
6,3095293708764E-13;
-3,75826534971557E-13;
1,15073525857123E-12;
1,73299843195328E-12;
6,15373487127352E-13;
1,00024535699032E-13;
3,17559589027425E-13;
2,04803467294101E-13;
-5,11797030474217E-13;
-2,25881253105369E-13;
-2,31454687771178E-14;
-1,8204765248401E-13;
3,59158321632367E-13;
6,55572261304922E-13;
6,96751281465254E-13;
3,19596411608574E-13;
1,91526706855259E-13;
4,14895719770617E-13;
5,65662813539459E-13;
1,19381010931904E-12;
5,56259592979181E-13;
-4,00533387260325E-14;
5,19283743604571E-13;
1,8435376679838E-13;
3,54397987398477E-14;
2,97630881750796E-13;
5,91725011656418E-14;
2,82707098749908E-13;
4,94507852202682E-13;
1,73703183402749E-14;
7,65202835201719E-13;
9,21863828222422E-13;
1,09141448371504E-13;
6,87608180623105E-13;
-2,0032336105289E-13;
-5,80099553696223E-13;
4,25518372757728E-13;
9,74522575324197E-14;
2,60331994038159E-13;
-2,74216440216454E-14;
-4,25343495726891E-13;
2,73308044900284E-13;
3,13445293325223E-13;
3,31446070484724E-13;
4,42888212992418E-13;
5,24062266175702E-14;
7,80396844546369E-13;
1,03455435960259E-12;
-3,85695425463094E-13;
-7,37640447539013E-14;
4,02869207837762E-13;
-1,87804970376765E-13;
5,37227482918282E-13;
5,7211112390315E-13;
-1,63890551586152E-13;
-1,67917538899669E-13;
-2,7876393354815E-13;
-4,77536742391891E-13;
-5,12903439910792E-13;
-1,70761786904515E-13;
-9,7583895692247E-14;
-5,14105379463984E-13;
-2,78535631460001E-13;
4,0523810305867E-13;
8,78632739761631E-13;
5,18638504584919E-13;
-5,14850921251922E-14;
1,91727917604239E-13;
2,29590403858909E-13;
7,05829438116496E-13;
1,35751240233912E-12;
3,52721583616172E-13;
-4,0311678678755E-13;
6,50648423531853E-13;
3,10614661605593E-13;
-6,97123731653605E-13;
9,28860415137647E-13;
6,90573456599965E-13;
-4,9353192384096E-13;
8,9287967858956E-13;
7,7655690762868E-13;
-1,70611993007503E-13;
1,6158723558195E-14;
4,30024108246268E-13;
4,3621759724105E-13;
-3,91970817554904E-15;
4,15564272326274E-13;
1,03032912105654E-12;
6,73641072686124E-13;
3,35585181460744E-13;
3,14477565337764E-13;
-4,42077089578367E-14;
3,93361247690674E-13;
7,92701127840013E-13;
2,73229717268724E-13;
7,6716541023077E-13;
8,55863891246849E-13;
1,23284117875583E-13;
-5,94559262403977E-14;
-2,21435712861155E-13;
5,36520783490309E-13;
1,14812981771663E-12;
7,18996119294768E-13;
4,36502534921286E-13;
-1,90935758052908E-13;
1,84057192808759E-13;
7,47265803694762E-13;
-1,91425194486928E-13;
-1,26522607174399E-13;
6,61843463158712E-13;
8,58313759666667E-13;
5,87387630443406E-13;
2,09242241077116E-13;
2,26136681129256E-13;
3,26718911569899E-13;
9,44459217513168E-13;
1,08728380302913E-12;
1,4652378489065E-13;
-2,41490361843946E-14;
7,34882875266814E-13;
7,8049869035584E-13;
6,92177862732868E-14;
7,45276528678553E-14;
-1,13194156647516E-13;
-8,5175255761994E-13;
-6,58048117501615E-13;
-3,46596881870884E-13;
-1,66914496126557E-13;
5,11790466021999E-13;
1,34323226417276E-12;
9,94885018763407E-13;
1,64846255754058E-14;
4,94300691545629E-13;
6,26489228426465E-13;
3,88838866018242E-13;
7,79925919756764E-13;
4,47973257689368E-13;
6,78249486927887E-13;
1,2140572626951E-12;
6,7908344550733E-13;
3,05075649448812E-14;
-1,20984425927658E-13;
1,80425021244289E-13;
8,00345575345875E-13;
5,84892153691363E-13;
-1,03451902462674E-13;
6,04448519526533E-13;
4,99066381600062E-13;
-4,21679212444434E-14;
5,52783604234364E-13;
-6,92424161467607E-14;
4,42859339229009E-14;
5,80753007148502E-13;
9,80204514676863E-14;
4,80732748463247E-13;
1,91156541012949E-13;
1,35914665941258E-13;
7,5131905289384E-13;
5,66284678230147E-13;
4,31407543348106E-13;
4,42134883056146E-13;
4,35593619929477E-13;
-3,58170108840042E-13;
-5,22938145392478E-15;
1,13091145112275E-12;
7,14567835867329E-13;
8,16399736271532E-13;
7,25859349685247E-13;
-1,16037446233781E-13;
6,23411896451335E-13;
1,42856115664917E-12;
7,70398257505577E-14;
-1,04565504736679E-13;
9,46438397080392E-13;
-2,61323899490741E-13;
-8,06602541758884E-13;
8,57954616361659E-15;
-1,2269418918974E-13;
1,18232209358095E-13;
6,36483755894236E-13;
6,73172760817039E-13;
2,2315876855394E-13;
-1,74519772717586E-13;
5,10218559977764E-13;
5,97889991728423E-13;
7,61479709967176E-13;
9,1561978766172E-13;
5,40560749037026E-14;
7,99125980239209E-13;
3,17762571772286E-13;
-6,39774902545812E-13;
1,09419037004532E-13;
-4,16006671940604E-13;
3,63067566058352E-13;
1,01561482732334E-12;
4,32143936950027E-13;
7,41792396272312E-13;
2,98634627075802E-13;
1,9970215181492E-13;
1,71917810047413E-13;
7,17210411677094E-14;
7,60328005765944E-14;
-8,53238708707145E-14;
1,76502336482438E-13;
6,51309759112844E-13;
1,02881469979175E-12;
4,41337510381126E-13;
9,12534036393972E-13;
4,84542241317632E-13;
-1,85490750951684E-13;
1,66217713521984E-12;
1,59913298770577E-13;
-1,13778086554466E-12;
7,70468993156762E-13;
5,10744985528851E-13;
4,36096711772224E-13;
2,99929162404183E-13;
7,37023654000759E-14;
1,35832569238419E-12;
5,09011086320606E-13;
-3,14996877559545E-14;
3,5720129085059E-13;
-4,12150248077811E-13;
5,76019996066727E-14;
6,78699355576303E-13;
5,69019629962017E-13;
3,87710719648708E-13;
6,60801748153935E-13;
4,87039354576537E-13;
-5,77757368814396E-13;
2,91812485985341E-13;
8,2000302066233E-13;
-4,52144809276608E-13;
-3,39853094937699E-13;
1,38224782537742E-13;
-5,83862152980114E-13;
-1,60792469957264E-13;
6,92376763004741E-13;
-4,76191659012707E-13;
-4,17287382733335E-13;
3,58277789953455E-13;
1,27361723369247E-13;
6,2204236935729E-13;
4,69069322384684E-13;
6,82776549010499E-13;
6,50413876124521E-13;
1,56640091429073E-13;
8,27208395909961E-13;
6,50304749899334E-13;
7,00106521330871E-13;
6,07086781238002E-13;
1,35387949012377E-13;
5,45162235230332E-13;
2,40118397359494E-13;
8,23352700687689E-13;
1,12077184890554E-12;
-4,31707998969858E-13;
-7,54159286334234E-14;
6,99413356792087E-13;
2,44231442429228E-13;
4,95483270055304E-13;
2,62859958731178E-13;
3,50248985570905E-14;
8,06361126782425E-13;
7,19158829475707E-13;
4,06093133571127E-14;
2,99705251611469E-13;
8,83501353612591E-13;
4,72112048908972E-13;
-4,55464941068426E-13;
-2,38030683516173E-13;
6,37026003807225E-13;
1,11293107820066E-12;
1,01876165610286E-12;
5,50475557339613E-13;
5,94568750870511E-13;
5,08006316103732E-13;
2,89183209265196E-13;
-3,12243510777737E-15;
7,60973602528008E-14;
9,01578482482953E-13;
8,96967660082347E-13;
8,01969982653366E-13;
8,4058916536437E-13;
9,84232774881645E-13;
7,29984476207393E-13;
-3,78106289523405E-13;
-1,26463768870739E-13;
4,5531717700171E-13;
-2,66675256453916E-13;
-1,08047752693164E-13;
8,63148120499855E-13;
1,45233803790883E-14;
-1,65007391613043E-13;
5,68031797268284E-13;
-1,04411563479313E-13;
4,73952993959844E-13;
7,55523870463151E-13;
-2,69693489959034E-13;
2,60300119411748E-13;
6,58325628582709E-13;
1,31381734929437E-13;
8,32653940878276E-13;
8,73753792116623E-13;
-4,21898752505052E-13;
7,28219701091811E-14;
0,00933343404686733;
0,022629729825436;
0,0163727372762988;
0,00943309617730783;
0,0121693917863134;
0,00702616733216788;
0,00563481712977406;
0,00458271005314109;
0,000840500091019831;
0,00103239237276742;
-0,00119043949524165;
-0,00199195265755661;
-0,00280713693489988;
-0,00455368131906535;
-0,00488732499840236;
-0,00585590070784879;
-0,00594121727321481;
-0,00618248832321157;
-0,00699357666820278;
-0,0079207035468009;
-0,00934888799329072;
-0,0102428887104984;
-0,0105184993940436;
-0,0101085231434048;
-0,00920766466692128;
-0,00843029680207208;
-0,00783043416853527;
-0,00745747149620924;
-0,00704805327821256;
-0,00641867706925018;
-0,00567545363295683;
-0,00495848727184634;
-0,00445308141326642;
-0,00409076741141354;
-0,00366382586857954;
-0,00302656743674156;
-0,00222823254357636;
-0,00157282907406803;
-0,0013610764596243;
-0,00166524557377463;
-0,00222572542215746;
-0,00258706177262663;
-0,00240676232083545;
-0,00165718471580669;
-0,0006247340148146;
0,000316669697813752;
0,000963663523167156;
0,00137586886891336;
0,0017651317485328;
0,00227846193205729;
0,00287371183687464;
0,00337820905248409;
0,00366494227526483;
0,00378442559182862;
0,00392474763670066;
0,00423344806293168;
0,00465410314825977;
0,00492912948561861;
0,00478539611573508;
0,00416205590819681;
0,00329839411592229;
0,00260120493662113;
0,00238404675895922;
0,00267133447135518;
0,00320917063033011;
0,00366539555827057;
0,00385876826746426;
0,00384594464792779;
0,00381730502360532;
0,00390618887413639;
0,00407638930720176;
0,0041746199572101;
0,00408914816313388;
0,00386593851127367;
0,00367395077464796;
0,0036455193565963;
0,00373088376164355;
0,00370125625893724;
0,00331394893904828;
0,00251555483955129;
0,00151956437340621;
0,000688088782457566;
0,000299921507080811;
0,000376496335333403;
0,000692035009796525;
0,00095143238232309;
0,000993755270820618;
0,000869183490141466;
0,000746304649796938;
0,00074293583628979;
0,000826535917757049;
0,000860914881420281;
0,000746775454489773;
0,000524376747016202;
0,000342641814880189;
0,000317918804852907;
0,000405552501873226;
0,000402860404487494;
9,51196662406898E-5;
-0,000565180948984882;
-0,0107236164878261;
-0,0246910037827306;
-0,0187063544875741;
-0,0116223592943007;
-0,0139972387360632;
-0,00853592289758324;
-0,00701192127229685;
-0,00596902286071649;
-0,00223033989621723;
-0,00231727179426138;
8,97661344459818E-5;
0,00103463609698971;
0,00186474291526435;
0,00353260259837779;
0,00382392664448025;
0,00488786326946739;
0,00516656254287644;
0,00552145619955494;
0,00617835279682755;
0,00664177265168191;
0,00746064874632386;
0,00787759597659916;
0,00802158625571346;
0,00784053012511862;
0,00735462448650211;
0,00695105593289545;
0,00655991790471974;
0,00626843174520815;
0,00594145075914392;
0,00548465812335293;
0,00497855075664527;
0,00445879659197983;
0,00403463682771679;
0,00366783364141022;
0,00326335428941025;
0,00276323493143194;
0,00218226985194097;
0,00167054996191054;
0,00136622431344391;
0,00130576063867167;
0,00137147126991941;
0,00134804346754492;
0,00107699073191459;
0,000543583800658682;
-0,000116334503075695;
-0,000724583160802705;
-0,00118434704063456;
-0,00152244936138532;
-0,00184024513587633;
-0,0022079445963109;
-0,00260531817116644;
-0,00294924153612534;
-0,00317776862286732;
-0,0033152339772715;
-0,00345292230429455;
-0,00366309226906311;
-0,00391872199558265;
-0,00409377840190242;
-0,00405387359028796;
-0,0037683832999218;
-0,00335502044675479;
-0,00301538525400767;
-0,00290602835806796;
-0,00304040644795522;
-0,00329290963387706;
-0,00349792677144016;
-0,00356466125000293;
-0,0035216492105223;
-0,00346521642006098;
-0,0034634000664277;
-0,00349852997927096;
-0,00349315078255262;
-0,00339050036399681;
-0,0032141952669999;
-0,00305115661515919;
-0,00297002122057264;
-0,00294586743947381;
-0,00286092459364494;
-0,00258939496295061;
-0,00210309155279462;
-0,00151283612700973;
-0,00100788060525324;
-0,000734996239465749;
-0,000706570813110849;
-0,0008047322627079;
-0,000874202719669217;
-0,000829829986430945;
-0,000698122804418917;
-0,000568858969109166;
-0,000505246882847769;
-0,000490307440677258;
-0,000451225008870283;
-0,00033454872904473;
-0,000161839330006471;
-1,36443027870598E-5;
4,66544127396064E-5;
4,29415644692894E-5;
8,55694751983891E-5;
0,000292250952098877;
0,000689730463821612;
0,00117541312155273;
0,00157388875911403;
0,00174942933603497;
0,00169131747894847;
0,00150982607039043;
0,0013498322385875;
0,00129097283855159;
0,00130920953702624;
0,00132185063214761;
0,0012709037250297;
0,00117271456933626;
0,0010953036539255;
0,00108867139013331;
0,0011333291829479;
0,00115522383398958;
0,00109623070208891;
0,000978922469303734;
0,000905712283574529;
0,000985677448067001;
0,00124377308570725;
0,00158554303150162;
0,00184943190450659;
0,0019106145878566;
0,00175959519014241;
0,00149834145278193;
0,00126056787059188;
0,00111977160192224;
0,00105394594162159;
0,000987128154428737;
0,000866119301321968;
0,000706078702729665;
0,000569606170480261;
0,000502666784769336;
0,00048736304594333;
0,000455721296259155;
0,000354429511609238;
0,000204210374526481;
9,89339121896537E-5;
0,000138466949424082;
0,000345511936352048;
0,00063340362690778;
0,000854135511694523;
0,000893432897863937;
0,000742587386797743;
0,000494783542383209;
0,000272121620390216;
0,000141579697099841;
8,28694884300433E-5;
2,64722429790155E-5;
-7,63033802108857E-5;
-0,000211769230683894;
-0,000323008905654489;
-0,000368321705830491;
-0,000364219264361692;
-0,000372793465207924;
-0,000442732976652372;
-0,000555323121277312;
-0,000625342765662602;
-0,000562198638768148;
-0,00034550353019927;
-5,42358156921568E-5;
0,000177000838686182;
0,000244345290323323;
0,000139815372777366;
-5,21469025221132E-5;
-0,000220953272608116;
-0,000306058213279436;
-0,000326011717048915;
-0,000343916847058206;
-0,00040396275783265;
-0,000493856149844164;
-0,000562215372280336;
-0,000571455607978798;
-0,000536624096571619;
-0,000513919676413851;
-0,000547380097518129;
-0,000620159082593176;
-0,000655416110780233;
-0,000571530062560383;
-0,000350239368243206;
-6,28363681481665E-5;
0,000169348862977105;
0,000252779558432832;
0,00018030239962683;
2,79291276991966E-5;
-0,000104873118911781;
-0,000163699952033764;
-0,000165257794681066;
-0,000166248195376189;
-0,00020633674912196;
-0,000274461379752311;
-0,000324502688455932;
-0,000322751229817865;
-0,00028269934366656;
-0,000254692678340521;
-0,000278135968402262;
-0,000337890839681523;
-0,00036514478546356;
-0,000286869559322379;
-8,67513105082529E-5;
0,000171472698085357;
0,000379420173954411;
0,000453623037943162;
0,000387792735748068;
0,000249849502745906;
0,000128576257115822;
7,2511955588776E-5;
6,67932635901593E-5;
6,09497576303293E-5;
1,97224794283793E-5;
-4,69756479815165E-5;
-9,80591999724486E-5;
-0,000103515483889585;
-7,53095240828629E-5;
-5,81340134320817E-5;
-8,69258277038893E-5;
-0,000148179527656506;
-0,000180784471281716;
-0,000119949453617094;
4,87826874732818E-5;
0,000268925662410215;
0,000444501443409849;
0,000501669408689217;
0,000434943445299141;
0,000304474202516201;
0,000188803011283473;
0,00013084282200758;
0,000117472224495359;
0,000104147790509478;
5,978713043266E-5;
-6,82634077811298E-6;
-5,94403397060153E-5;
-7,15963136480745E-5;
-5,38344752747862E-5;
-4,54978417493772E-5;
-7,73087013218331E-5;
-0,00013735535935515;
-0,000171888970110472;
-0,000123980005502333;
1,9036453517903E-5;
0,000207530673898838;
0,000357263613341316;
0,000403486630894524;
0,00034142886457693;
0,000223832623025709;
0,000119498071880825;
6,5978153450303E-5;
5,1770529693625E-5;
3,79085635166876E-5;
-2,77342357598139E-6;
-6,25929175717908E-5;
-0,000109894618030022;
-0,000121603014276123;
-0,000106937319034974;
-0,000100217081752943;
-0,000128215597540243;
-0,000180549765247103;
-0,000210430678059626;
-0,000168350684463272;
-4,3344025740917E-5;
0,00012140173987095;
0,000252676819001952;
0,000294263639896542;
0,00024204341396673;
0,000141780417497145;
5,31144175675954E-5;
8,55972957156627E-6;
-1,87151153113342E-6;
-1,19206166319571E-5;
-4,50877489896027E-5;
-9,47281480659699E-5;
-0,000133496090712766;
-0,000141483880668886;
-0,000126672696454833;
-0,00011868120280581;
-0,00014058999024122;
-0,000183445045013118;
-0,000206958180759518;
-0,000168546842382113;
-5,88213448990043E-5;
8,5053166813999E-5;
0,000200162827242699;
0,000238248481052171;
0,000195800877657537;
0,000112086185254952;
3,82199090610532E-5;
2,03588992524626E-6;
-5,03339489872981E-6;
-1,18590253230238E-5;
-3,85248953201486E-5;
-7,93429344582971E-5;
-0,000110961931082853;
-0,000116404944781328;
-0,000102492316025632;
-9,44703961376061E-5;
-0,000111986230070777;
-0,000147403039993558;
-0,000166448210055278;
-0,000132942786010408;
-3,89428664288771E-5;
0,00941740826075483;
0,0228121611957284;
0,0165882740324654;
0,00961344523587369;
0,0122795257281184;
0,00707430650034227;
0,00565270244331431;
0,00459483491254353;
0,000846987920994751;
0,00101643913175392;
-0,00124082705699284;
-0,00206909250267467;
-0,00288906355891245;
-0,00462417410576695;
-0,00495137984338636;
-0,00593499799293675;
-0,00605040987374604;
-0,00630808419671325;
-0,00709158510539466;
-0,00794051195258337;
-0,00926632412576533;
-0,0100783999633253;
-0,0103266646456168;
-0,00994634320673384;
-0,00910437765148384;
-0,0083791036419946;
-0,00780496526414023;
-0,00743739443954496;
-0,00703328503588242;
-0,00642317501628829;
-0,00570916855040667;
-0,00501505682945357;
-0,00451432182617324;
-0,00414325735028009;
-0,00371168135885466;
-0,0030875043959944;
-0,00231464599716536;
-0,00167341372681971;
-0,00143959083768328;
-0,00168003083643991;
-0,00215688263193209;
-0,00245133743801407;
-0,00224888355282962;
-0,00152383257846656;
-0,00053983690590073;
0,000358661112257986;
0,000984277004886868;
0,00139169292295993;
0,00177624528301035;
0,00227352095757557;
0,00284464551581453;
0,00333020684215994;
0,00361278064910543;
0,00373900736378477;
0,0038827694535161;
0,00418061598921538;
0,00458043879137558;
0,00484378690991773;
0,00471761341344137;
0,00414539920978368;
0,00334889997448515;
0,00270546787952703;
0,00250623315242778;
0,00277407588866808;
0,00327332734752205;
0,00369538694492463;
0,00387175236074748;
0,00385512905070074;
0,00382275569770738;
0,00389890416222426;
0,00404997848238037;
0,0041332042670108;
0,00404442561727955;
0,00382653243688075;
0,00363727161587971;
0,00360032983078928;
0,0036693578408496;
0,00363059927868529;
0,00325709695536957;
0,00249879619528947;
0,00155545169346009;
0,000766188462090513;
0,000392344977008244;
0,000454194566488614;
0,000740138009181891;
0,000973334358955756;
0,00100269267078143;
0,00087532695710958;
0,000749692673860659;
0,000736642533333367;
0,000805654820713176;
0,000828599217135951;
0,00071196296482986;
0,000493643938015561;
0,00031402067292868;
0,00028288075665901;
0,000358174802916389;
0,000348601631953244;
5,12971439712109E-5;
-0,000578763516842096;
-0,0106975168158509;
-0,0246330284054454;
-0,0186373475642601;
-0,0115639930866957;
-0,0139605997203705;
-0,00851852894437956;
-0,00700401477755107;
-0,00596312711877218;
-0,00222644418223422;
-0,00232046760838002;
7,58831984472699E-5;
0,00101236129225953;
0,00184057221746244;
0,00351130226379965;
0,00380407618659631;
0,0048633246008506;
0,00513309234960069;
0,005482972650063;
0,00614721943777251;
0,0066320775690484;
0,00747909251576601;
0,00791868317333793;
0,00807067185025381;
0,00788243330544109;
0,00738159082810784;
0,0069647732677192;
0,00656709540542896;
0,00627418725635932;
0,00594577590173826;
0,00548407526752882;
0,00497061874337822;
0,00444506442556387;
0,00401946733120961;
0,00365441319678775;
0,00325074574260902;
0,00274739497432576;
0,0021604277465165;
0,00164528281449281;
0,00134557393616582;
0,00129882907221721;
0,00138256823104487;
0,00137368892646472;
0,00110794345495316;
0,000570321108118006;
-9,86597011424971E-5;
-0,00071496620508939;
-0,00117872217820199;
-0,00151774278886191;
-0,001836476964552;
-0,00220718698341155;
-0,00260900623908177;
-0,00295646925188303;
-0,00318601846897516;
-0,0033226853819539;
-0,00346009168919106;
-0,00367220805532541;
-0,00393127903142969;
-0,00410835680123455;
-0,00406616435238868;
-0,00377359050025131;
-0,00335090005199257;
-0,00300368179257167;
-0,00289132640212399;
-0,00302735311083616;
-0,00328384539611822;
-0,00349243040888132;
-0,0035609363825909;
-0,0035183762599983;
-0,00346242419035219;
-0,00346195329832598;
-0,00349899977969423;
-0,00349518155139432;
-0,00339315543503411;
-0,00321682409074707;
-0,00305391646583465;
-0,00297358918579747;
-0,00295064848443576;
-0,00286648825223135;
-0,00259462084736491;
-0,00210686114108753;
-0,00151467165943215;
-0,00100805305313365;
-0,000734128672930629;
-0,000705162583849838;
-0,000802990956744395;
-0,000872200501464447;
-0,000827695693861647;
-0,0006960247697147;
-0,000566833567963489;
-0,000503136120346812;
-0,000487951067360788;
-0,000448733586596324;
-0,000332323246735692;
-0,000160219371195055;
-1,24855526393182E-5;
4,79824575612955E-5;
4,49517906544017E-5;
8,78572550580261E-5;
0,000293249366362668;
0,000687459831001288;
0,00116886091158495;
0,00156401686739173;
0,00173893699772319;
0,0016831840057605;
0,00150563330359716;
0,00134909744614422;
0,00129195829504877;
0,0013105038913387;
0,00132341149064437;
0,00127374300942135;
0,00117760287295861;
0,001101742207781;
0,00109514519550682;
0,00113867417706073;
0,00115983416761963;
0,00110182233532832;
0,000986769699849485;
0,000914717519477958;
0,000992045850231628;
0,00124295733017877;
0,00157529379384425;
0,00183172555216696;
0,00189089044295328;
0,00174370169862924;
0,00148933737712992;
0,00125763605503412;
0,00111985435688412;
0,00105461273655238;
0,000988332811078228;
0,000869574813383499;
0,000713056680344094;
0,00057929128196522;
0,000512634094335194;
0,000495775339834789;
0,000463176318681163;
0,000363527698514567;
0,00021684608998221;
0,000113446188367694;
0,000149250393698962;
0,000345933425967287;
0,000620207695498464;
0,000830116032266221;
0,000866242731483616;
0,000720392765922963;
0,000481837499756185;
0,000267341429972927;
0,000140848918322998;
8,29407640686452E-5;
2,72977452495101E-5;
-7,24474978337766E-5;
-0,000203208969677097;
-0,000310811502459535;
-0,000355637951023833;
-0,000353423035641521;
-0,00036312503011036;
-0,000430888454006099;
-0,000538915395460708;
-0,000606479597317697;
-0,000547920447036627;
-0,00034409571599447;
-6,9752350883035E-5;
0,000147994605609061;
0,000211242888284371;
0,000112605598920374;
-6,82708518590169E-5;
-0,000227278468466182;
-0,00030752611817881;
-0,000326505546017826;
-0,000343484494551724;
-0,000399888742162524;
-0,000484152733326547;
-0,000548144193231352;
-0,000556728969536252;
-0,000524030767742005;
-0,000502575340312651;
-0,000533439400193985;
-0,000600856144264281;
-0,000633201688372102;
-0,000554544702290726;
-0,000348034101667756;
-8,00784088581093E-5;
0,000136577634811386;
0,000215192158440057;
0,000149269032429581;
9,35654929007162E-6;
-0,000112422425858536;
-0,000165785162701501;
-0,000166237514760696;
-0,000166169275564195;
-0,000202154615868952;
-0,000263953513702299;
-0,000309074388325628;
-0,00030653079154154;
-0,000268782628312597;
-0,000242104037277285;
-0,000262632134475515;
-0,000316428209164179;
-0,000340425400359044;
-0,000267837903176442;
-8,38820532469678E-5;
0,000153063144736956;
0,000343994811657981;
0,000412842729855695;
0,000354019752219006;
0,000229504005623411;
0,000120117435781936;
6,99452960231218E-5;
6,54259000598294E-5;
6,07367638810335E-5;
2,39404472263525E-5;
-3,59389588361432E-5;
-8,17082325560501E-5;
-8,62667066080035E-5;
-6,04711835574703E-5;
-4,46682467062549E-5;
-7,03173725980284E-5;
-0,000125195664216637;
-0,000154298100511338;
-9,94493406449469E-5;
5,21980551698471E-5;
0,000249834728369287;
0,000407391314526572;
0,000458824141216187;
0,000399377148817593;
0,000282945435790999;
0,000179708583342889;
0,000127911813835628;
0,000115800509248122;
0,000103693117379631;
6,39735214312795E-5;
4,49352020670865E-6;
-4,25518815304553E-5;
-5,37326847543298E-5;
-3,84338891513662E-5;
-3,14854267965954E-5;
-6,000649414686E-5;
-0,000113418410235603;
-0,000144291207036677;
-0,000102529144298316;
2,28783024674422E-5;
0,000188162073592082;
0,000319291677809559;
0,000359537971597514;
0,000304875230948245;
0,000201619519570452;
0,000109994992540429;
6,27747688307811E-5;
4,98574675375668E-5;
3,72468441546394E-5;
1,3147025430055E-6;
-5,12101552442258E-5;
-9,28092660851556E-5;
-0,00010348980070903;
-9,12935201024262E-5;
-8,59524214178951E-5;
-0,000110583254849493;
-0,000156158574090492;
-0,00018229569642416;
-0,000146405280816475;
-3,91907028748147E-5;
0,000102089333694825;
0,000214537131108488;
0,00025002607503437;
0,000205185889731496;
0,000119305786688742;
4,33944827834143E-5;
5,16134827211107E-6;
-3,9727521056058E-6;
-1,27600092309486E-5;
-4,1154501214492E-5;
-8,34696613542429E-5;
-0,0001165034190645;
-0,000123431840020536;
-0,000111057428144644;
-0,000104415344834796;
-0,000122937451475335;
-0,000159024434050171;
-0,000178774993272176;
-0,000146496443981322;
-5,44576120325861E-5;
6,60757512441891E-5;
0,000162439545276501;
0,000194409420151865;
0,000159218048009524;
8,97103496085402E-5;
2,84497861919804E-5;
-1,48665955152221E-6;
-7,27215450786964E-6;
-1,28453561234872E-5;
-3,47880169128702E-5;
-6,83599477587507E-5;
-9,42994082228194E-5;
-9,86698486104938E-5;
-8,71292936145519E-5;
-8,04102957190024E-5;
-9,45701938442338E-5;
-0,00012330624267553;
-0,00013862433180961;
-0,000111112714671311;
-3,44541867823733E-5;
6,55626035918799E-5;
0,000145610030706899;
0,000172668806229318;
0,00014452457927957;
8,81606255811221E-5;
3,84627231379675E-5;
1,43032975547858E-5;
9,79652182555459E-6;
5,385857004359E-6;
-1,24413330774698E-5;
-3,97996064546515E-5;
-6,09986855441181E-5;
-6,4715509956471E-5;
-5,55634507911255E-5;
-5,03688887458957E-5;
-6,2127663521541E-5;
-8,57094513339405E-5;
-9,84664722313844E-5;
-7,66674247237124E-5;
-1,52679344769372E-5;
6,49032784487302E-5;
0,000128963132137152;
0,000150403886377578;
0,000127508687111888;
8,19658058272423E-5;
4,17306854148025E-5;
2,18836286861163E-5;
1,77016798233822E-5;
1,35795043860856E-5;
-1,23083247583E-6;
-2,36156740982994E-5;
-4,11018703451751E-5;
-4,47188687282624E-5;
-3,81400269965014E-5;
-3,46796001151777E-5;
-4,45836559753294E-5;
-6,37786536183128E-5;
-7,44215435551781E-5;
-5,78818864341866E-5;
-1,02567111626026E-5;
5,20757528112445E-5;
0,000101803955508358;
0,000118253272027668;
0,00010014735366324;
6,44271336828468E-5;
3,28402893877522E-5;
1,70718779808505E-5;
1,34377742272305E-5;
9,86329971157347E-6;
-1,93191316945449E-6;
-1,95274485298774E-5;
-3,3326046615661E-5;
-3,64589271194604E-5;
-3,17621525976048E-5;
-2,94197239255132E-5;
-3,72295439810167E-5;
-5,20634628927841E-5;
-6,03609245239663E-5;
-4,80340027080974E-5;
-1,21950969535356E-5;
3,47370329565766E-5;
7,21822772743876E-5;
8,46474662015194E-5;
7,12435411335111E-5;
4,46921128257757E-5;
2,12285804554422E-5;
9,52488616087166E-6;
6,81776316573864E-6;
4,16115621818398E-6;
-4,54089696575675E-6;
-1,74840860149349E-5;
-2,76184126201921E-5;
-2,99351894453539E-5;
-2,65298356307499E-5;
-2,48194578057347E-5;
-3,04399926087591E-5;
-4,11000322984667E-5;
-4,70207550577967E-5;
-3,81221347562208E-5;
-1,24102607033E-5;
2,11888452434311E-5;
4,80276763878677E-5;
5,71760173921617E-5;
4,80839349493432E-5;
2,97586394439269E-5;
1,35868749216511E-5;
5,59248258240295E-6;
3,82247707235894E-6;
2,07913945356371E-6;
-3,81618064519683E-6;
-1,26002953188408E-5;
-1,9457134813925E-5;
-2,10076000609539E-5;
-1,86968456050261E-5;
-1,75180416020568E-5;
-2,12147716695598E-5;
-2,82281647579665E-5;
-3,20862350004842E-5;
-2,62105002794247E-5;
-9,38522456110075E-6;
1,25158329330843E-5;
3,002406719068E-5;
3,6189347282234E-5;
3,07565073098122E-5;
1,94954810530894E-5;
9,57056826531432E-6;
4,70176057068992E-6;
3,64238991551303E-6;
2,58529770256691E-6;
-9,81885743485159E-7;
-6,26625988276613E-6;
-1,03909259753032E-5;
-1,13897821610069E-5;
-1,01427655804381E-5;
-9,54126325317242E-6;
-1,16895780642936E-5;
-1,56635982657265E-5;
-1,78529651542345E-5;
-1,47064906668198E-5;
-5,67898173313171E-6;
5,99487104941337E-6;
1,53192851824081E-5;
1,87785337245247E-5;
1,63706275908651E-5;
1,10741950387863E-5;
6,41600299269423E-6;
4,13326211762792E-6;
3,58791293592696E-6;
3,02882827567602E-6;
1,37525899983333E-6;
-9,84519914832828E-7;
-2,83845543220549E-6;
-3,4321952321084E-6;
-3,16032977114024E-6;
-3,11300251460591E-6;
-3,99124310097966E-6;
-5,41511955839871E-6;
-6,22230303811349E-6;
-5,44864005849573E-6;
-3,120208373093E-6;
-2,17173393373283E-7;
2,08132300568205E-6;
3,18713919270753E-6;
3,31265865912998E-6;
3,0585544848993E-6;
2,85593327076547E-6;
2,75627392181742E-6;
2,63914899262089E-6;
2,49934325564901E-6;
2,47026792064968E-6;
2,59609347011042E-6;
2,67745008210138E-6;
2,44265052363693E-6;
1,90831124490773E-6;
1,50765691745127E-6;
1,72486232815718E-6;
2,47918685846991E-6;
2,86637849910532E-6;
1,66932546084126E-6;
-1,61813732019567E-6;
-6,076302214878E-6;
-9,67226632470617E-6;
-1,05332545438431E-5;
-8,26813688026255E-6;
-4,27382164732318E-6;
-7,16530879431005E-7;
1,04248338330956E-6;
1,31676244224761E-6;
1,56214435161451E-6;
2,92660883181522E-6;
5,16588639166163E-6;
6,90177808329026E-6;
7,00689460477215E-6;
5,8410952081096E-6;
5,10639237273245E-6;
6,27256382146028E-6;
8,87484300743176E-6;
1,02916727005565E-5;
7,4960023827658E-6;
-4,15038671660562E-7;
-1,09461253054797E-5;
-1,94047570147038E-5;
-2,1883372415479E-5;
-1,78443942617148E-5;
-1,03348958268428E-5;
-3,66358057813284E-6;
-3,55333346749447E-7;
2,61171109463935E-7;
8,43364610748466E-7;
3,37217654302429E-6;
7,36578901660279E-6;
1,04790483886221E-5;
1,08839628275942E-5;
9,22191120493609E-6;
8,23235754506812E-6;
1,01894427796254E-5;
1,43141964602677E-5;
1,65851065255258E-5;
1,25023218301386E-5;
8,41930709405677E-7;
-1,4619211803014E-5;
-2,70298369061666E-5;
-3,08336836053158E-5;
-2,53758346212294E-5;
-1,50387886313654E-5;
-5,86192082129322E-6;
-1,30831167742188E-6;
-4,17710796548403E-7;
4,34408636280802E-7;
3,89789234588224E-6;
9,29945737619859E-6;
1,35183987180068E-5;
1,41661440951807E-5;
1,21099044610654E-5;
1,0917975706309E-5;
1,35055280230141E-5;
1,8842392912412E-5;
2,17930292557829E-5;
1,66883637555113E-5;
2,05150469660231E-6;
-1,73238365401938E-5;
-3,287809624319E-5;
-3,77534031395403E-5;
-3,12036394699037E-5;
-1,86640041303228E-5;
-7,53480811596592E-6;
-2,01503461091655E-6;
-9,1731421465178E-7;
1,39679463122776E-7;
4,32769763032784E-6;
1,08233036379421E-5;
1,59016544699518E-5;
1,67389158855753E-5;
1,43782431002376E-5;
1,30301088844628E-5;
1,61046644111898E-5;
2,23768697666812E-5;
2,58525955006062E-5;
1,99646077311779E-5;
3,04370799665318E-6;
-1,93357941761991E-5;
-3,73078789964593E-5;
-4,30225405878462E-5;
-3,56657976502345E-5;
-2,14737576622106E-5;
-8,8785279195707E-6;
-2,63501984320629E-6;
-1,38376227833005E-6;
-1,73628123632236E-7;
4,55837831114036E-6;
1,18753708623822E-5;
1,76005774182235E-5;
1,85860959218648E-5;
1,60067129675187E-5;
1,45495152836672E-5;
1,79901704181436E-5;
2,49586845887348E-5;
2,88285806415503E-5;
2,23744042716514E-5;
3,78828279883902E-6;
-2,07838855027102E-5;
-4,05249314437276E-5;
-4,68662368516159E-5;
-3,89465999519044E-5;
-2,35807793323244E-5;
-9,94226382327232E-6;
-3,18317230725019E-6;
-1,82044631201926E-6;
-4,97931785437398E-7;
4,62356153623547E-6;
1,25260397115227E-5;
1,87147441346139E-5;
1,98154976714055E-5;
1,70957474889416E-5;
1,5573711984049E-5;
1,92768804365167E-5;
2,67341642710729E-5;
3,08852869150867E-5;
2,40570192083682E-5;
4,3498314684649E-6;
-2,17019538606025E-5;
-4,26412174525121E-5;
-4,94201734133916E-5;
-4,1148481964738E-5;
-2,50252184960451E-5;
-1,07114424071379E-5;
-3,61782810863223E-6;
-2,18007330216613E-6;
-7,80755447927697E-7;
4,59519704632517E-6;
1,28769235958678E-5;
1,93684148376011E-5;
2,05543897984108E-5;
1,7761042995211E-5;
1,62111523180684E-5;
2,00851962437112E-5;
2,78491535962245E-5;
3,2181450725032E-5;
2,51438216400663E-5;
4,78587535199183E-6;
-2,21285021033485E-5;
-4,37720003853589E-5;
-5,08251350891824E-5;
-4,23841178877697E-5;
-2,58641910954434E-5;
-1,11944833656819E-5;
-3,92437221429253E-6;
-2,44486893725519E-6;
-1,00137788938192E-6;
4,51053303625862E-6;
1,29915192157741E-5;
1,96449666667613E-5;
2,08878782943496E-5;
1,80759823114692E-5;
1,65277245132667E-5;
2,04916022404377E-5;
2,84034797197192E-5;
3,28287013497141E-5;
2,57208543130735E-5;
5,11369114684177E-6;
-2,21355592112897E-5;
-4,40605845061185E-5;
-5,12479011694352E-5;
-4,27937375686403E-5;
-2,61857270804695E-5;
-1,14334649035746E-5;
-4,12265554743618E-6;
-2,63082331059156E-6;
-1,17203770060875E-6;
4,37376007837336E-6;
1,28995487574812E-5;
1,9593818170235E-5;
2,08682915284661E-5;
1,8083397371133E-5;
1,65607074962814E-5;
2,05445841392056E-5;
2,84686696479061E-5;
3,29109440490481E-5;
2,58498265498344E-5;
5,33286512268202E-6;
-2,18046737797808E-5;
-4,36530263556713E-5;
-5,08549386484312E-5;
-4,25180762330447E-5;
-2,60811667165574E-5;
-1,14760936042506E-5;
-4,23862461779805E-6;
-2,75906011666144E-6;
-1,30916147510476E-6;
4,18478842294983E-6;
1,2625590248175E-5;
1,92588079167627E-5;
2,05432635626984E-5;
1,7823254947008E-5;
1,63459705225619E-5;
2,02912688074467E-5;
2,81139083351085E-5;
3,25095836671758E-5;
2,55925909071783E-5;
5,44900722909374E-6;
-2,1203987248013E-5;
-4,26760782733729E-5;
-4,979129089631E-5;
-4,16782693289301E-5;
-2,56261159905469E-5;
-1,13577424266067E-5;
-4,28745277955772E-6;
-2,84006328680955E-6;
-1,41870562460595E-6;
3,95277520695073E-6;
1,22014947209665E-5;
1,86895083997011E-5;
1,99659341605641E-5;
1,73417741144687E-5;
1,59260259375328E-5;
1,9784409633857E-5;
2,74120033771837E-5;
3,17084861202553E-5;
2,50151142991621E-5;
5,47676140964034E-6;
-2,03861683218703E-5;
-4,12360064102682E-5;
-4,81802268107458E-5;
-4,03762835871912E-5;
-2,4881601839976E-5;
-1,11032921888565E-5;
-4,27603912209353E-6;
-2,87682377529604E-6;
-1,49989942163794E-6;
3,69185029830758E-6;
1,16616102295744E-5;
1,79359856223552E-5;
1,91892841153505E-5;
1,66853580724756E-5;
1,53436025719181E-5;
1,90756682530254E-5;
2,64324153484358E-5;
3,05868027730493E-5;
2,41800846402809E-5;
5,43216159748392E-6;
-1,93962713807621E-5;
-3,94266191865649E-5;
-4,61313342528514E-5;
-3,87029460280832E-5;
-2,39019802816208E-5;
-1,07349126679057E-5;
-4,21067724430077E-6;
-2,87239155669104E-6;
-1,55265913166968E-6;
3,41387584294038E-6;
1,10357599131442E-5;
1,70420093324567E-5;
1,82595520918701E-5;
1,58942053557539E-5;
1,46354760791858E-5;
1,82097184650994E-5;
2,52356817240655E-5;
2,92136757967191E-5;
2,31418432480731E-5;
5,32772271897475E-6;
-1,82765648255245E-5;
-3,73339452541366E-5;
-4,37449191424984E-5;
-3,67419806979947E-5;
-2,27385368845334E-5;
-1,02752289993989E-5;
-4,09986113780468E-6;
-2,83236932405862E-6;
-1,579779923804E-6;
3,12657844288314E-6;
1,03477258901257E-5;
1,60438550340854E-5;
1,72153013917324E-5;
1,50016106618913E-5;
1,38320008349215E-5;
1,72240434970509E-5;
2,38735013354441E-5;
2,76485819262415E-5;
2,1946855585888E-5;
5,17289302196736E-6;
-1,70661201845901E-5;
-3,50358418953101E-5;
-4,11115212385964E-5;
-3,45692463925726E-5;
-2,14383968493187E-5;
-9,74595943143674E-6;
-3,9527259905084E-6;
-2,76324262143319E-6;
-1,58516011347012E-6;
2,83547573929524E-6;
9,6173267247606E-6;
1,49725091420092E-5;
1,60896868212036E-5;
1,40362272066177E-5;
1,29593815844861E-5;
1,61512622442352E-5;
2,23911516274355E-5;
2,59437942924422E-5;
2,06360863524741E-5;
4,97619508168321E-6;
-1,57990126009211E-5;
-3,2600457593418E-5;
-3,83104603514659E-5;
-3,22512345920042E-5;
-2,00428683589141E-5;
-9,16612068011433E-6;
-3,77722575798651E-6;
-2,67058886571277E-6;
-1,57205811471267E-6;
2,54560204507843E-6;
8,86217806848208E-6;
1,3855428073672E-5;
1,49121382345318E-5;
1,30236337509864E-5;
1,20411259249952E-5;
1,50205504596649E-5;
2,08289186426411E-5;
2,41457606108633E-5;
1,92461990077279E-5;
4,74608356408956E-6;
-1,45038730200671E-5;
-3,00861328585513E-5;
-3,54098899969542E-5;
-2,98450571300811E-5;
-1,85872872399363E-5;
-8,55175644626699E-6;
-3,57983493602588E-6;
-2,55883832033093E-6;
-1,54290016964093E-6;
2,26171449094633E-6;
8,0979281761948E-6;
1,27167933808672E-5;
1,37085811554565E-5;
1,19864537605774E-5;
1,10980919952189E-5;
1,38576770377075E-5;
1,92221806006099E-5;
2,22952109650663E-5;
1,78095154694336E-5;
4,49058121486015E-6;
-1,32046435003555E-5;
-2,75424591155739E-5;
-3,24679750849707E-5;
-2,73995262077876E-5;
-1,7101870027934E-5;
-7,91660698609179E-6;
-3,36612808424158E-6;
-2,43183846184608E-6;
-1,49984012983338E-6;
1,98779981371215E-6;
7,33788886138682E-6;
1,15772286558425E-5;
1,25011450329151E-5;
1,09440232125062E-5;
1,01481377874514E-5;
1,2684711455702E-5;
1,76012235650778E-5;
2,04270277992193E-5;
1,63537968324719E-5;
4,21678761136022E-6;
-1,19214309943302E-5;
-2,50114189598806E-5;
-2,95340832975782E-5;
-2,49561890884372E-5;
-1,56124988900033E-5;
-7,27264538339555E-6;
-3,14119439929848E-6;
-2,29322881462086E-6;
-1,44508098973035E-6;
1,72684274306736E-6;
6,59293274193345E-6;
1,04538095809985E-5;
1,13082206432433E-5;
9,91242656776072E-6;
9,20613802987096E-6;
1,15201105499871E-5;
1,59914642801694E-5;
1,85705389805144E-5;
1,49024487638067E-5;
3,93081474745967E-6;
-1,06709435776398E-5;
-2,25280978670227E-5;
-2,66495785378003E-5;
-2,25499745952626E-5;
-1,41410845897515E-5;
-6,63022225677614E-6;
-2,90965890160441E-6;
-2,14641993380631E-6;
-1,38083222443033E-6;
1,48097199773872E-6;
5,87177689161883E-6;
9,36044509529788E-6;
1,01448629090546E-5;
8,90485745503747E-6;
8,28433641090712E-6;
1,03791362782821E-5;
1,44139674771899E-5;
1,67501025445532E-5;
1,34749991250555E-5;
3,63795873317472E-6;
-9,46668599460801E-6;
-2,01211814334308E-5;
-2,38484010194961E-5;
-2,020963383746E-5;
-1,27057796785248E-5;
-5,99805171830745E-6;
-2,67555603998461E-6;
-1,99445254574689E-6;
-1,3091375682892E-6;
1,25170124861957E-6;
5,18133151863912E-6;
8,30831921929398E-6;
9,02323849117987E-6;
7,93202182840406E-6;
7,39271461929404E-6;
9,27425702456464E-6;
1,28859596533033E-5;
1,49856715705487E-5;
1,20875467620224E-5;
3,3428667192098E-6;
-8,31919030693565E-6;
-1,78135004251251E-5;
-2,11577006376624E-5;
-1,7958248219631E-5;
-1,13212398337038E-5;
-5,38327415135823E-6;
-2,44230126516271E-6;
-1,83994844207263E-6;
-1,23182055241326E-6;
1,04005580101818E-6;
4,52694798438255E-6;
7,30621661301715E-6;
7,95295422403355E-6;
7,00241896401111E-6;
6,53924469178883E-6;
8,21545504087569E-6;
1,14212224930845E-5;
1,32932320790068E-5;
1,07531033522802E-5;
3,0495697418006E-6;
-7,23634932389041E-6;
-1,56226382197355E-5;
-1,8598550278823E-5;
-1,58138281048702E-5;
-9,99899488160248E-6;
-4,79162664932731E-6;
-2,21275850263272E-6;
-1,68515582989009E-6;
-1,15050595860474E-6;
8,46621108463561E-7;
3,91256401362169E-6;
6,36075588764337E-6;
6,94131624793197E-6;
6,12255013733652E-6;
5,73006677872418E-6;
7,21045211493267E-6;
1,0030424306588E-5;
1,16851849574058E-5;
9,48186197696305E-6;
2,76149557851701E-6;
-6,22376535318861E-6;
-1,35615861275881E-5;
-1,61866705112455E-5;
-1,37899071838768E-5;
-8,7478214433042E-6;
-4,22761123288009E-6;
-1,98931283949378E-6;
-1,5320120586696E-6;
-1,06666465125692E-6;
6,71573686983215E-7;
3,34085820538909E-6;
5,47662807660766E-6;
5,99356536766404E-6;
5,29712278161783E-6;
4,96967423544941E-6;
6,26493865114375E-6;
8,72144468639901E-6;
1,01707246378426E-5;
8,28149295467162E-6;
2,48149187145736E-6;
-5,28506749202748E-6;
-1,1639311008357E-5;
-1,39330879316002E-5;
-1,18960979065624E-5;
-7,57408116822624E-6;
-3,69465227662626E-6;
-1,77393150871774E-6;
-1,3821707737394E-6;
-9,81621696710072E-7;
5,14739789055445E-7;
2,81340373492959E-6;
4,65682895700606E-6;
5,11313283769615E-6;
4,52927355319188E-6;
4,26111596560122E-6;
5,38281730142208E-6;
7,49971465338227E-6;
8,75622837730261E-6;
7,15743671434243E-6;
2,21187666128755E-6;
-4,42218026424198E-6;
-9,86128418506716E-6;
-1,1844736680445E-5;
-1,01385757710022E-5;
-6,48200643915607E-6;
-3,19520188941702E-6;
-1,56818455785404E-6;
-1,23701433450848E-6;
-8,96547101813435E-7;
3,75671296075493E-7;
2,33084050516271E-6;
3,90290918822511E-6;
4,30190375122672E-6;
3,82078211954046E-6;
3,60619439946858E-6;
4,56645552226054E-6;
6,36854091087009E-6;
7,4456278722576E-6;
6,11319463027137E-6;
1,95449661608696E-6;
-3,63556097652264E-6;
-8,22995986340494E-6;
-9,92501595540021E-6;
-8,52054622662462E-6;
-5,47398107547567E-6;
-2,73086049702041E-6;
-1,37328395930944E-6;
-1,09766453399327E-6;
-8,12454205573322E-7;
2,53698435458982E-7;
1,89302784231511E-6;
3,21519392070983E-6;
3,5604376831574E-6;
3,17228061052706E-6;
3,00564958552543E-6;
3,81689564523542E-6;
5,32941029041516E-6;
6,24075248070486E-6;
5,15060060494792E-6;
1,71077999695216E-6;
0,00933050960398602;
0,0226229845885827;
0,016364562959463;
0,00942605350167427;
0,0121648409842687;
0,00702386484691939;
0,00563362701680327;
0,00458174504156703;
0,000839769876303961;
0,00103254035735101;
-0,0011889403233255;
-0,00198935968184873;
-0,00280424874912564;
-0,00455109789489274;
-0,00488486568337451;
-0,00585276665216026;
-0,00593683501126247;
-0,00617734668153673;
-0,00698930661828452;
-0,00791922177345924;
-0,0093511750394985;
-0,0102482935871155;
-0,0105250898976271;
-0,0101142266448192;
-0,00921137658961779;
-0,00843220709457324;
-0,00783145344258946;
-0,00745831122829645;
-0,00704870383349122;
-0,00641861950102653;
-0,00567430568332809;
-0,00495645257723774;
-0,00445079773858495;
-0,00408871435103318;
-0,0036618595933515;
-0,0030240505196507;
-0,00222470681436201;
-0,00156868224573799;
-0,00135760572623833;
-0,0016639773875147;
-0,00222744619164837;
-0,00259126666150571;
-0,00241193169084837;
-0,001661684511003;
-0,00062768970504622;
0,00031511572470573;
0,000962802408135098;
0,00137514655569967;
0,00176455766538316;
0,00227844331839081;
0,00287454944477453;
0,00337974715749492;
0,00366668695353874;
0,00378600495762244;
0,00392627262225332;
0,0042354117415755;
0,00465686052773071;
0,00493238308677132;
0,00478814694214595;
0,00416312633571414;
0,00329717173762798;
0,00259806505599898;
0,00238014173203474;
0,00266790757141;
0,00320689109731751;
0,00366416279368181;
0,00385805249306412;
0,00384533156764012;
0,00381680373894661;
0,00390610719797834;
0,00407695537423597;
0,00417572036878821;
0,00409041653491574;
0,00386709850431493;
0,00367508418459629;
0,00364699127448784;
0,00373295767414323;
0,00370371450806304;
0,00331605663061588;
0,00251644348601415;
0,00151877622823093;
0,000685885422036727;
0,000297131236990593;
0,000374017305092288;
0,000690354851373115;
0,000950486840471713;
0,000993172069118109;
0,00086867128325487;
0,000745872112204611;
0,000742803068169783;
0,00082686692308805;
0,000861633291426443;
0,000747626929282191;
0,000525168931992527;
0,000343430938431241;
0,000318957528299924;
0,000407023855164508;
0,000404616674984279;
9,66577043222697E-5;
-0,000564458178724782;
-0,0107240304825179;
-0,024692391798385;
-0,0187081713824304;
-0,0116240088298009;
-0,0139983924441334;
-0,00853661378452999;
-0,00701238446058147;
-0,00596944259855904;
-0,00223070801580879;
-0,00231744483708477;
8,98960676696943E-5;
0,00103502469533195;
0,00186523328941097;
0,00353307548269506;
0,00382441605758629;
0,00488852408686032;
0,00516750775872896;
0,00552259876533835;
0,00617939087138161;
0,00664234518784751;
0,00746055312706616;
0,00787691002325551;
0,00802061027537274;
0,00783959898660917;
0,00735392857907855;
0,00695058877708905;
0,0065595625103054;
0,0062680961386468;
0,00594114254064665;
0,00548445448342984;
0,00497851101710941;
0,00445890387019042;
0,00403481805700494;
0,00366803246778418;
0,00326358565268116;
0,00276356959180163;
0,00218276050199375;
0,00167116156860286;
0,00136682795544556;
0,001306198161754;
0,00137164268583175;
0,00134795455618354;
0,00107673259657395;
0,000543267658461632;
-0,000116636695783901;
-0,000724855697555797;
-0,00118460641366268;
-0,00152270901319199;
-0,00184049807748759;
-0,00220817026460392;
-0,00260549882060163;
-0,00294937089432066;
-0,00317784855577262;
-0,00331526735828323;
-0,0034529103744171;
-0,00366303572347268;
-0,00391861942539145;
-0,00409362081854237;
-0,0040536432611724;
-0,00376806612104098;
-0,00335462886107475;
-0,00301497369577932;
-0,00290568207077472;
-0,00304020305597084;
-0,00329287745825714;
-0,00349803187570523;
-0,00356483584275169;
-0,00352184084601575;
-0,00346541874915988;
-0,0034636402607298;
-0,00349882541032982;
-0,0034934759376777;
-0,00339079750235617;
-0,00321442245049392;
-0,00305132860799582;
-0,00297019854393266;
-0,0029460916767529;
-0,00286115006215064;
-0,00258948138460748;
-0,00210288070314912;
-0,00151226679703105;
-0,00100705666734863;
-0,000734149228425209;
-0,000705935327349798;
-0,00080442024614292;
-0,000874165577062286;
-0,000829930441232527;
-0,00069825405353339;
-0,000569015318440091;
-0,000505495114290086;
-0,000490694118483412;
-0,000451708934388592;
-0,000335023129019964;
-0,000162225356491985;
-1,39678237599672E-5;
4,62836521356773E-5;
4,24465501268149E-5;
8,50259148103422E-5;
0,000291899718028644;
0,000689848263232901;
0,00117612211759316;
0,00157504537094182;
0,00175068301426023;
0,0016923056068108;
0,00151036822378339;
0,0013499884682912;
0,00129093652707766;
0,00130913139734755;
0,0013217357026348;
0,00127065300018818;
0,00117225765908741;
0,00109469424334188;
0,00108805573341055;
0,00113281588142069;
0,00115477810429005;
0,00109570316076348;
0,000978207512887417;
0,00090490963295591;
0,000985108732883632;
0,0012438103156956;
0,00158635781271026;
0,00185084966514668;
0,0019121903124548;
0,00176086433045919;
0,00149906878539654;
0,00126082205917177;
0,00111979011481364;
0,0010539140308523;
0,000987050212573031;
0,000865870739392938;
0,00070557015486769;
0,000568900948816442;
0,000501942049229246;
0,000486750740273944;
0,000455179677952037;
0,000353778153113846;
0,000203321230026487;
9,79253337693318E-5;
0,000137723552873261;
0,000345480245830266;
0,000634294328902383;
0,000855750786171297;
0,000895255178266915;
0,000744073506334564;
0,000495655723270399;
0,000272454637560048;
0,000141644412990924;
8,28773520699236E-5;
2,6427015429726E-5;
-7,65459367735904E-5;
-0,00021231312160252;
-0,0003237837263603;
-0,000369127010019069;
-0,000364905475898982;
-0,000373407547338905;
-0,000443478750577123;
-0,000556345607502176;
-0,000626509756733531;
-0,00056307832500483;
-0,000345593354061593;
-5,32952549681726E-5;
0,00017875752013287;
0,00024634737011845;
0,000141461719307788;
-5,11657553387435E-5;
-0,000220558607831154;
-0,00030595520594917;
-0,000325970090234151;
-0,00034393344117743;
-0,00040419620469787;
-0,000494421256808606;
-0,000563036858889878;
-0,000572316455697614;
-0,000537362135473913;
-0,000514585555812625;
-0,000548194292826666;
-0,00062127876800608;
-0,000656699414984075;
-0,00057251188551758;
-0,000350377407405181;
-6,18684454140947E-5;
0,000171197967247017;
0,000254902963007636;
0,000182059134607974;
2,89876050682737E-5;
-0,000104432115735106;
-0,000163565870584627;
-0,000165187958191581;
-0,000166240019765543;
-0,00020655865162405;
-0,000275035595232708;
-0,000325350987225585;
-0,00032364588021778;
-0,000283469979423962;
-0,000255392300470439;
-0,000278995821956553;
-0,000339076035366986;
-0,000366507440956006;
-0,000287923402387828;
-8,69285153894947E-5;
0,0095058828413465;
0,023011049213182;
0,0168285543463027;
0,00982271271224013;
0,0124203494725716;
0,00715521741319561;
0,00570748771749435;
0,00464959626860514;
0,00090147916486644;
0,00105190632953747;
-0,00123798823066563;
-0,00209086998166002;
-0,00291156219596829;
-0,00462977751021092;
-0,00494617677025022;
-0,00594371231695856;
-0,00609062000511036;
-0,00636468266975253;
-0,00711462568134489;
-0,00787212902933389;
-0,00907899418745283;
-0,00979647406053434;
-0,0100146087754563;
-0,00967172608347525;
-0,00890205644415156;
-0,00824099896514176;
-0,00769941401741667;
-0,00733988784424539;
-0,00694385841296237;
-0,00635908377293154;
-0,00568284340954941;
-0,00501878122287704;
-0,00452558679276342;
-0,00414539048724324;
-0,00371004626898507;
-0,00310477094046201;
-0,0023668255197993;
-0,0017461475199027;
-0,00148617901008693;
-0,00164644089028211;
-0,00201724789229256;
-0,00222790135596734;
-0,00200106405614004;
-0,00131390404406662;
-0,00039976191578236;
0,000436673359415471;
0,00102983249334719;
0,00142776511515781;
0,001803102017178;
0,00227551020707416;
0,00281057209948575;
0,00326747725314692;
0,00354244414436634;
0,00367670955989932;
0,00382381442812595;
0,00410434294081557;
0,00447232134481904;
0,00471727317548063;
0,00461591931400739;
0,00411846307936769;
0,00342071061694349;
0,00285573697760408;
0,00268048184428628;
0,00291520143405063;
0,00335207881610384;
0,00371901757454436;
0,00386752771011077;
0,00384420938839618;
0,00380545787295279;
0,00386093880308262;
0,00398113651059708;
0,00404031282362551;
0,0039467939765509;
0,00373850674063168;
0,00355456919321372;
0,00350405702616919;
0,00354622893723536;
0,00349289590283332;
0,00314428876559583;
0,00245647345837031;
0,00160549167694202;
0,000890044813036836;
0,000540276211361296;
0,000574070759793379;
0,000805223035253921;
0,000990154508180265;
0,000995995759640937;
0,000864293552411344;
0,000734528242440759;
0,000704264702303097;
0,000746694804572028;
0,000749175775638271;
0,000629533734580003;
0,000421152864089716;
0,000247494360229343;
0,000205087149475671;
0,000256975605780846;
0,000235049591444759;
-3,89101091878159E-5;
-0,000604390013379813;
-0,0106388152640397;
-0,0245068574067114;
-0,0184887967304333;
-0,0114403041756566;
-0,0138860404345418;
-0,00848729303423609;
-0,00699382993601236;
-0,00595675027119171;
-0,0022237626512261;
-0,00233335537018508;
3,89100482893935E-5;
0,000956758900835503;
0,00178201984665841;
0,00346141193917337;
0,00375922406712358;
0,00480795524321128;
0,00505624295458054;
0,00539455025256497;
0,00607929473115118;
0,00662169627872946;
0,00754398778413516;
0,00804370915581213;
0,00821534128903308;
0,00800433496926196;
0,00745892923261324;
0,00700272326043821;
0,00658559130207121;
0,0062886582560813;
0,00595631310592546;
0,00548004532783716;
0,00494439917443809;
0,00440153389225231;
0,00397264539392659;
0,00361468420479746;
0,0032148849962073;
0,00270152793012321;
0,00209478478625746;
0,00156871788839555;
0,00128670639879598;
0,00129070939287323;
0,00144103424229994;
0,00148529263972076;
0,00123667756721139;
0,000678469421106102;
-3,04732955208074E-5;
-0,000682138080939172;
-0,0011635330777921;
-0,00150647632496694;
-0,00182903467225354;
-0,00221298553771237;
-0,00263478794038668;
-0,00299788967175417;
-0,00323063225416042;
-0,00336126996637062;
-0,00349547699552215;
-0,00371664923187635;
-0,00399339624736126;
-0,00418029814286005;
-0,00412260705149221;
-0,00378530083674672;
-0,00330385118881185;
-0,00290970314439776;
-0,00278215410697714;
-0,00293623025398445;
-0,00322784755716834;
-0,00346750528346918;
-0,00355148273776514;
-0,00351231815889917;
-0,00345966762873773;
-0,00347077061873649;
-0,00352531040730074;
-0,00353516336378786;
-0,00343587361494486;
-0,00325417516449651;
-0,00308837270710023;
-0,00301588739677197;
-0,00300833710286004;
-0,00293268310417807;
-0,00264714005048598;
-0,00212010327041461;
-0,00147634283151821;
-0,000928470959422118;
-0,0006410100577302;
-0,000627541184158885;
-0,000755786083995657;
-0,000851896446855184;
-0,000820705885119711;
-0,000691836578067563;
-0,000565373056232105;
-0,000511612764299446;
-0,000511524286705343;
-0,000484087741269106;
-0,000369959465721507;
-0,000193100822385396;
-4,27614693924312E-5;
1,09898485397855E-5;
-5,31094779673014E-6;
3,0288246285425E-5;
0,000247596268502059;
0,000675904713265576;
0,00120206168383149;
0,00163306355499471;
0,00181987151160851;
0,00175090928940058;
0,00154724409025325;
0,00136760315153246;
0,00129905701540895;
0,00131524287685692;
0,00132584279495902;
0,00126764765172092;
0,00115852923283881;
0,00107253152442431;
0,00106395510052743;
0,0011115456522991;
0,001134918788901;
0,00107111652152349;
0,000944647735271733;
0,000866287114472344;
0,000953774777772448;
0,00123384638698384;
0,00160447974803492;
0,00189160846974275;
0,00196100789500017;
0,00180261767735115;
0,0015260218666207;
0,00127463392720054;
0,00112711678101894;
0,00105983287025164;
0,000991547285858655;
0,000865487509193014;
0,000697876708034863;
0,000555425621549265;
0,000487003742904268;
0,000473504518647334;
0,000442699441563987;
0,00033806504087008;
0,000181634122385028;
7,28063128954494E-5;
0,000117110832001083;
0,000338361592437731;
0,000644939392616617;
0,000880762322398282;
0,000925567583985777;
0,000770338826015572;
0,000513107776724921;
0,000282058692885385;
0,000147361535447036;
8,77005119546719E-5;
3,03311019990681E-5;
-7,55843986446085E-5;
-0,00021569612794702;
-0,00033063745970068;
-0,000377014323697881;
-0,000372064606749854;
-0,000380335609948262;
-0,000452323013266731;
-0,000568544806398797;
-0,000640701322035512;
-0,000575131856071095;
-0,000350915753356987;
-4,97284373827025E-5;
0,000189580921260944;
0,000260106785597809;
0,000153780119206644;
-4,24967033131474E-5;
-0,000215165307532821;
-0,000302187520991967;
-0,000322621857475592;
-0,000341037910046356;
-0,000402545340014013;
-0,000494535159168976;
-0,000564601308678793;
-0,000574504488387371;
-0,000539604171394652;
-0,000517012934833206;
-0,000551373384819936;
-0,000625537031338733;
-0,000661681504870571;
-0,000577336241626662;
-0,000354199628159737;
-6,43340142467743E-5;
0,00016995259182699;
0,000254588802358045;
0,000182522857952877;
3,01948140427855E-5;
-0,000102607340810578;
-0,000161431220576968;
-0,000163050788772323;
-0,000164140600893779;
-0,000204247065531405;
-0,000272286319372379;
-0,000322323001249463;
-0,000320872825394966;
-0,000281389790145923;
-0,000253829556134835;
-0,000277186140215279;
-0,000336412198824887;
-0,000363483001516662;
-0,000286391100542971;
-8,9197947680956E-5;
0,000165212285301163;
0,000370229074256779;
0,000443960053338802;
0,000380376706389202;
0,000246121993572109;
0,000128077771155227;
7,36204213599687E-5;
6,81884214244127E-5;
6,25879022864463E-5;
2,25479735035322E-5;
-4,22426284402412E-5;
-9,18914680766904E-5;
-9,73445803441506E-5;
-7,02362265858744E-5;
-5,37833921874816E-5;
-8,16675080925513E-5;
-0,000140801536469962;
-0,000172332818081528;
-0,00011404303638771;
4,78056779761606E-5;
0,000258925348005413;
0,000427386128226593;
0,00048266855764628;
0,000419677666869185;
0,000295879173326139;
0,000186081291872081;
0,000131037268232136;
0,000118231564234997;
0,000105424548328953;
6,32351969506985E-5;
2,04324132538477E-8;
-4,99878452224406E-5;
-6,18905114414965E-5;
-4,56575208124511E-5;
-3,82686951779303E-5;
-6,85014145379398E-5;
-0,000125129917227285;
-0,000157861680629202;
-0,000113603382351821;
1,93113157527884E-5;
0,000194544122012858;
0,00033375144291586;
0,000376920481782886;
0,000319777748340806;
0,000211242658613759;
0,000114903009581084;
6,53479947857124E-5;
5,19261236331569E-5;
3,88008120510281E-5;
1,080463300088E-6;
-5,41417740700111E-5;
-9,7894454920489E-5;
-0,00010914230949768;
-9,63425753710641E-5;
-9,07429175370704E-5;
-0,000116622257389994;
-0,000164497025746856;
-0,00019198807719025;
-0,000154427278825484;
-4,20685110762599E-5;
0,000106058415259918;
0,000224100436217653;
0,000261693103495374;
0,000215298780053672;
0,00012596305023235;
4,69507725651941E-5;
7,18172674573327E-6;
-2,28911695258335E-6;
-1,14269478336907E-5;
-4,10111182955909E-5;
-8,51137620417336E-5;
-0,000119589669454827;
-0,000126944858111914;
-0,000114249578499903;
-0,000107501858649314;
-0,000126863586905539;
-0,000164445667607463;
-0,000185104317688035;
-0,00015186758894348;
-5,67344890613113E-5;
6,79515305835165E-5;
0,000167750372148698;
0,000201108098216504;
0,000165160311969105;
9,37743142794853E-5;
3,08100780417372E-5;
3,03133133653082E-8;
-5,94476652069676E-6;
-1,17242178112188E-5;
-3,43363182323794E-5;
-6,89059866522601E-5;
-9,56687995701145E-5;
-0,000100339732183168;
-8,8717161956767E-5;
-8,20198393641808E-5;
-9,6662699882686E-5;
-0,000126196529868011;
-0,000142033937040791;
-0,000114172064276463;
-3,61786863232318E-5;
6,56755683575935E-5;
0,000147300079847584;
0,000175125957336373;
0,000146902626801792;
9,00069657635382E-5;
3,97993172456158E-5;
1,53885329859616E-5;
1,08182561219689E-5;
6,32537083173543E-6;
-1,17257139223966E-5;
-3,94056006623639E-5;
-6,08973176235071E-5;
-6,48037047318627E-5;
-5,57699649387397E-5;
-5,0702631533221E-5;
-6,26380652222969E-5;
-8,64214289081416E-5;
-9,93637758622333E-5;
-7,77276604639432E-5;
-1,64854273368785E-5;
6,35575439757006E-5;
0,000127614274126863;
0,000149288757459651;
0,000126879999286582;
8,19382829474443E-5;
4,21987995574349E-5;
2,25985835620074E-5;
1,84588633242871E-5;
1,43588824457892E-5;
-2,99536081535057E-7;
-2,24354420536991E-5;
-3,97655945289113E-5;
-4,34762362478361E-5;
-3,71813975383014E-5;
-3,39344423198866E-5;
-4,37558061246859E-5;
-6,26497488133764E-5;
-7,31949106617705E-5;
-5,72448399235151E-5;
-1,10238261991151E-5;
4,95355760642827E-5;
9,79357484096777E-5;
0,00011416626098242;
9,70106127505945E-5;
6,28292010765552E-5;
3,25711147888921E-5;
1,74621955096725E-5;
1,39576617636166E-5;
1,04920865484993E-5;
-8,38955289093429E-7;
-1,77113655142969E-5;
-3,09800944990477E-5;
-3,41243213475369E-5;
-2,98454857602135E-5;
-2,77849877796018E-5;
-3,52954335447568E-5;
-4,94108677358338E-5;
-5,73738643661315E-5;
-4,59841524637404E-5;
-1,25725770826326E-5;
3,12345320046095E-5;
6,62601809512961E-5;
7,81287213212659E-5;
6,60475091460269E-5;
4,17960030096351E-5;
2,03385425793199E-5;
9,62984421390016E-6;
7,1233992620058E-6;
4,64673082833887E-6;
-3,33621887008309E-6;
-1,51692244078157E-5;
-2,4467551396685E-5;
-2,6725611310858E-5;
-2,38432650530468E-5;
-2,24670642849641E-5;
-2,7610071555191E-5;
-3,721125173439E-5;
-4,26026867163664E-5;
-3,49174323511196E-5;
-1,24536964948421E-5;
1,69334146443072E-5;
4,04724942751168E-5;
4,87146071476981E-5;
4,12360482031713E-5;
2,58132289501881E-5;
1,21848167401332E-5;
5,45165116838303E-6;
3,93895297543754E-6;
2,4325698590858E-6;
-2,54029180615812E-6;
-9,90562945921424E-6;
-1,56813848745596E-5;
-1,711429491439E-5;
-1,54059165824228E-5;
-1,45992028454948E-5;
-1,76750925617652E-5;
-2,33587015146503E-5;
-2,65306075788778E-5;
-2,20806317650283E-5;
-9,14306616335648E-6;
7,69655421086179E-6;
2,12145869499088E-5;
2,62256965591441E-5;
2,26246517697177E-5;
1,472718638133E-5;
7,75785294568936E-6;
4,35458243661915E-6;
3,59611324685343E-6;
2,82031614554117E-6;
3,32712636791764E-7;
-3,29457065309429E-6;
-6,14785964195996E-6;
-6,98071818562754E-6;
-6,39294063159014E-6;
-6,18904642546368E-6;
-7,60460243385482E-6;
-1,0040142608627E-5;
-1,14206706335419E-5;
-9,85605459184399E-6;
-5,19499862358869E-6;
7,79012564244066E-7;
5,5915186325209E-6;
7,70381194752375E-6;
7,28206750723806E-6;
5,68513681541887E-6;
4,28403604029254E-6;
3,6162611088645E-6;
3,40376366246767E-6;
3,1589662937584E-6;
2,70101878959106E-6;
2,17425200744377E-6;
1,73323970834111E-6;
1,34440916584223E-6;
9,19722866973767E-7;
5,54556764558063E-7;
4,92985212952468E-7;
7,61062826409007E-7;
8,54866138633013E-7;
-6,01492493805506E-8;
-2,43541800163664E-6;
-5,68474389580763E-6;
-8,27101590471503E-6;
-8,65590687857732E-6;
-6,44551849385866E-6;
-2,77375006877908E-6;
4,85208403342358E-7;
2,1018406463208E-6;
2,33929913407492E-6;
2,5367808363066E-6;
3,78328209045514E-6;
5,86323692688612E-6;
7,45617307217843E-6;
7,45661184444664E-6;
6,20527242259727E-6;
5,38632103932592E-6;
6,47940895198405E-6;
9,03067323700368E-6;
1,03840665150935E-5;
7,43427659975341E-6;
-7,7080399401658E-7;
-1,16716375378655E-5;
-2,03951249207437E-5;
-2,28473048534615E-5;
-1,8446495086665E-5;
-1,03948268944283E-5;
-3,25557289868454E-6;
2,79376933597441E-7;
9,2114452389738E-7;
1,51814637206005E-6;
4,20679367553292E-6;
8,47369184087953E-6;
1,17824786727923E-5;
1,21455198065961E-5;
1,02566637542389E-5;
9,10553652466506E-6;
1,11852564712897E-5;
1,56473128510137E-5;
1,80720299063622E-5;
1,34962587941618E-5;
5,60022612765713E-7;
-1,65639863258695E-5;
-3,02803546012919E-5;
-3,44128304634553E-5;
-2,82280155074751E-5;
-1,66109067087671E-5;
-6,30931612817936E-6;
-1,20120422996755E-6;
-2,11860808961833E-7;
7,28840620776693E-7;
4,60350285540381E-6;
1,06572831993686E-5;
1,53725756508028E-5;
1,60513336593895E-5;
1,36722717468265E-5;
1,22745238243289E-5;
1,51641918132209E-5;
2,11753183691167E-5;
2,44754322347973E-5;
1,86162368082235E-5;
1,91363610312416E-6;
-2,01712276541834E-5;
-3,78736124531229E-5;
-4,33612976862076E-5;
-3,57815491159211E-5;
-2,13552692085337E-5;
-8,5607991755955E-6;
-2,21361976727629E-6;
-9,51221190066681E-7;
2,59956842155522E-7;
5,06807734547951E-6;
1,25275766478802E-5;
1,83502800337995E-5;
1,92818395301222E-5;
1,6524616242332E-5;
1,49378658929341E-5;
1,84611033870432E-5;
2,56801343615348E-5;
2,96638480827619E-5;
2,28123332175936E-5;
3,19227260330425E-6;
-2,2737118722993E-5;
-4,35360616873008E-5;
-5,00972697575718E-5;
-4,14776184718846E-5;
-2,49242367313758E-5;
-1,02409365144397E-5;
-2,95908324075993E-6;
-1,49594621599164E-6;
-8,4663079213093E-8;
5,42762074132286E-6;
1,39498030563172E-5;
2,06106199816032E-5;
2,17364754352091E-5;
1,86989103333171E-5;
1,69733859193353E-5;
2,09732833114587E-5;
2,90976461187742E-5;
3,35955798026782E-5;
2,60114621769134E-5;
4,22912299937429E-6;
-2,45516287482359E-5;
-4,7654026357852E-5;
-5,50331395077528E-5;
-4,56811506130542E-5;
-2,75974851203112E-5;
-1,1553233868978E-5;
-3,59975083772121E-6;
-1,99382991955697E-6;
-4,38568283312258E-7;
5,58157281439513E-6;
1,48698301345171E-5;
2,21371961282938E-5;
2,34116196384851E-5;
2,01857812508343E-5;
1,83717136937784E-5;
2,27162025912132E-5;
3,14856314704795E-5;
3,63546053681861E-5;
2,82719326154495E-5;
4,99688319105299E-6;
-2,57563222449731E-5;
-5,04585381524715E-5;
-5,84233495358305E-5;
-4,86008648626423E-5;
-2,95027210118144E-5;
-1,25535021495689E-5;
-4,15302616135145E-6;
-2,44988593667045E-6;
-7,94944622405578E-7;
5,5658741973732E-6;
1,5365023610223E-5;
2,30402036057153E-5;
2,4426380103894E-5;
2,10954401404711E-5;
1,92393003400816E-5;
2,38157091831608E-5;
3,30055662547483E-5;
3,81226330494988E-5;
2,97466215030211E-5;
5,56298137432189E-6;
-2,6396344725646E-5;
-5,20841428672872E-5;
-6,0429812594818E-5;
-5,03610781835718E-5;
-3,0693536258712E-5;
-1,32331543139799E-5;
-4,57952348941347E-6;
-2,81830777742606E-6;
-1,10203945376705E-6;
5,45451510560528E-6;
1,55432317750449E-5;
2,34534079461884E-5;
2,49181506005082E-5;
2,15523586120416E-5;
1,96926335440447E-5;
2,44021115037508E-5;
3,3816911353404E-5;
3,90740542244549E-5;
3,05791881570191E-5;
5,98762590692886E-6;
-2,65201158568885E-5;
-5,26660980523415E-5;
-6,1216598494195E-5;
-5,1093929423608E-5;
-3,12390225807571E-5;
-1,36059594847983E-5;
-4,86670047929207E-6;
-3,08270461462179E-6;
-1,33984099818996E-6;
5,28648450354318E-6;
1,54734233478265E-5;
2,34685764162066E-5;
2,49809925716517E-5;
2,16377062974296E-5;
1,98047476930285E-5;
2,45607059309326E-5;
3,40316102866048E-5;
3,9334436048628E-5;
3,08666529261036E-5;
6,29058862648941E-6;
-2,62083101372371E-5;
-5,23652716271474E-5;
-6,09709912201356E-5;
-5,09568219092802E-5;
-3,12378223234394E-5;
-1,37187984606483E-5;
-5,03632793011119E-6;
-3,26037214110632E-6;
-1,52129336618618E-6;
5,06743515753342E-6;
1,51900684197787E-5;
2,31424393204425E-5;
2,46750604427339E-5;
2,14011233837067E-5;
1,96191815321777E-5;
2,43477286245168E-5;
3,37318455252385E-5;
3,89999541767718E-5;
3,0680430806479E-5;
6,47374713942412E-6;
-2,55499393885844E-5;
-5,13430165265843E-5;
-5,98773647279009E-5;
-5,01055236204171E-5;
-3,07906058378466E-5;
-1,36236477515175E-5;
-5,11611382632768E-6;
-3,37366541999333E-6;
-1,66353582267236E-6;
4,79845054163298E-6;
1,47217894071252E-5;
2,25251359811935E-5;
2,40547534947446E-5;
2,08884796966495E-5;
1,91772498163859E-5;
2,38170482191169E-5;
3,299609378586E-5;
3,81627324951969E-5;
3,00908786856338E-5;
6,5448011883221E-6;
-2,4619511881574E-5;
-4,97392503622637E-5;
-5,80962199512025E-5;
-4,8674181764228E-5;
-2,99810864319293E-5;
-1,33596354246146E-5;
-5,12283163459704E-6;
-3,43421189873251E-6;
-1,77321370744237E-6;
4,4896308590677E-6;
1,41038602110713E-5;
2,16716123693927E-5;
2,31789974460419E-5;
2,01510535253297E-5;
1,85261419311495E-5;
2,30272293675341E-5;
3,1905175606089E-5;
3,69158897262243E-5;
2,91713425326392E-5;
6,52028612656949E-6;
-2,34750455766984E-5;
-4,76714272204555E-5;
-5,57640085389563E-5;
-4,67758831555111E-5;
-2,88772566063626E-5;
-1,29549156912625E-5;
-5,06481799086429E-6;
-3,44605208825477E-6;
-1,8502192195203E-6;
4,1558353201365E-6;
1,33734727324994E-5;
2,0636453813384E-5;
2,21056631242035E-5;
1,92395359463862E-5;
1,77125695804491E-5;
2,20348930080845E-5;
3,05353916282778E-5;
3,53464864440439E-5;
2,79908538491289E-5;
6,41795535690254E-6;
-2,21660058019458E-5;
-4,52427203727595E-5;
-5,30013923599256E-5;
-4,45108380416395E-5;
-2,75393853267371E-5;
-1,24344679811146E-5;
-4,94964136806178E-6;
-3,41318353415165E-6;
-1,89509190297192E-6;
3,80947327181756E-6;
1,25627838273426E-5;
1,94671714655901E-5;
2,08850526835431E-5;
1,81977036597244E-5;
1,67766425972308E-5;
2,08888759865268E-5;
2,89530305295152E-5;
3,35303297750604E-5;
2,66091274300238E-5;
6,25185181020812E-6;
-2,07382266546159E-5;
-4,25468619925153E-5;
-4,99178448057337E-5;
-4,19705548358334E-5;
-2,602368617867E-5;
-1,18233062582899E-5;
-4,78692154545053E-6;
-3,34207059966739E-6;
-1,91121957356082E-6;
3,45865267034015E-6;
1,16974310956493E-5;
1,82030734866998E-5;
1,95590449614466E-5;
1,70617821069348E-5;
1,5751464281737E-5;
1,96301042528151E-5;
2,72145508838681E-5;
3,15324207051198E-5;
2,50771182389276E-5;
6,03278606398069E-6;
-1,92335899350154E-5;
-3,96679142798711E-5;
-4,66113272446105E-5;
-3,92372402967952E-5;
-2,43813467681905E-5;
-1,11451556544292E-5;
-4,58678265229269E-6;
-3,23996829521435E-6;
-1,90304969646387E-6;
3,10912505080771E-6;
1,07986700050396E-5;
1,68775445024118E-5;
1,8163432421797E-5;
1,58627661111419E-5;
1,46654438086283E-5;
1,82939763772512E-5;
2,53690842234153E-5;
2,94095174158605E-5;
2,34394665665381E-5;
5,77046781128213E-6;
-1,76883079680051E-5;
-3,66788911648561E-5;
-4,31670307693318E-5;
-3,638242762812E-5;
-2,2656929113399E-5;
-1,0420680066322E-5;
-4,35802819269117E-6;
-3,1131375807637E-6;
-1,87435267893308E-6;
2,76603919678261E-6;
9,88517871172353E-6;
1,5519864206397E-5;
1,67296781030729E-5;
1,46280576951157E-5;
1,35438264274609E-5;
1,69118642465582E-5;
2,34599610185397E-5;
2,72116283002841E-5;
2,17357889063362E-5;
5,47438491271086E-6;
-1,61325553942326E-5;
-3,36417957715221E-5;
-3,96575821682171E-5;
-3,3467108311757E-5;
-2,08883080366677E-5;
-9,66725786554881E-6;
-4,10786510329461E-6;
-2,96661351803385E-6;
-1,8280265955058E-6;
2,43415691071154E-6;
8,9733393549432E-6;
1,41555454324913E-5;
1,52852051660827E-5;
1,33816313774626E-5;
1,24087713029852E-5;
1,55112003545844E-5;
2,1524879740567E-5;
2,49822033790642E-5;
2,00006978681262E-5;
5,15344998250126E-6;
0,00931884275204858;
0,0225991209876092;
0,0163365928842122;
0,00940255323246704;
0,0121502841775864;
0,0070172676662256;
0,00563097465055659;
0,00457990528659539;
0,000838733444840357;
0,00103450975990934;
-0,00118236258166957;
-0,00197914656184186;
-0,00279328376322035;
-0,00454153754465984;
-0,00487604593195122;
-0,00584178545182441;
-0,00592162146130748;
-0,00615973020655809;
-0,00697531299987133;
-0,00791588803737625;
-0,0093619732010257;
-0,0102705123983847;
-0,0105511783909831;
-0,0101361765757631;
-0,00922500671868972;
-0,0084384274653014;
-0,00783400163752559;
-0,00746010318329857;
-0,00704974608008081;
-0,00641685850289399;
-0,00566824664821824;
-0,0049469981711012;
-0,00444062882129116;
-0,00407983624655151;
-0,00365365567581239;
-0,00301382414946832;
-0,00221053324778558;
-0,00155225903574801;
-0,00134452715418554;
-0,00166077827050041;
-0,00223735660994488;
-0,00261178410528797;
-0,00243606631839595;
-0,00168201937641714;
-0,000640348421801464;
0,00030929853620701;
0,00096037565470936;
0,0013734177072797;
0,00176352270731096;
0,0022800015445071;
0,0028800841021655;
0,00338842770804752;
0,00367604106851267;
0,00379418286951636;
0,00393384234447613;
0,00424485905858397;
0,00466996018154679;
0,00494757259382753;
0,00480027400304097;
0,00416617054228356;
0,00328815150537638;
0,00257927125212166;
0,00235799298442202;
0,00264921860383767;
0,00319522737627834;
0,0036587653269205;
0,00385576023153702;
0,00384367809779669;
0,00381578731095709;
0,00390747066298669;
0,00408196880439414;
0,00418362580841577;
0,00409895207651312;
0,003874571355726;
0,00368201344567706;
0,0036556503501055;
0,00374497023122791;
0,00371765383844629;
0,00332721481966841;
0,002519317388811;
0,00151063476699884;
0,000668808560011492;
0,000276966265911787;
0,000356976282868957;
0,000679691687111188;
0,000945517179770301;
0,000991023638977534;
0,000867102759054197;
0,000744883749945143;
0,000743981674220706;
0,000831369633019032;
0,000868774035714225;
0,000755352744271217;
0,000531942918140939;
0,000349723740361111;
0,000326831954639818;
0,000417953759658082;
0,000417309734805834;
0,00010684599570528;
-0,000561765557728413;
-0,0107313159374023;
-0,0247077825013036;
-0,0187263831634197;
-0,0116394239577815;
-0,0140080646451885;
-0,00854115474613461;
-0,00701438296404093;
-0,00597091901779592;
-0,00223166034997446;
-0,00231643975572313;
9,39045682639043E-5;
0,00104142078026064;
0,00187216866646393;
0,00353916598478087;
0,00383008495980961;
0,00489562812987442;
0,00517737418327288;
0,00553406651184309;
0,00618862198435182;
0,00664484946169714;
0,00745409179256565;
0,00786315501430794;
0,00800429771013876;
0,00782576784056197;
0,00734522517777499;
0,00694647134284411;
0,00655771718888205;
0,00626671682540221;
0,00594023272465305;
0,00548529837078981;
0,00498204657028069;
0,00446458306583857;
0,00404099072548946;
0,00367346232005235;
0,0032686501900028;
0,00276992624841705;
0,00219159468399502;
0,00168143895336474;
0,00137512596431045;
0,00130851043786784;
0,00136596644315361;
0,00133576904595479;
0,00106224647285745;
0,000530962541733593;
-0,000124403697268851;
-0,000728559820129392;
-0,00118629776753463;
-0,00152398814486703;
-0,0018413602580293;
-0,00220747462993572;
-0,00260241132278578;
-0,00294437477733159;
-0,00317240422599591;
-0,00331046942762251;
-0,00344842511782719;
-0,0036573964802894;
-0,00391077658966205;
-0,00408448760948094;
-0,00404624508735447;
-0,00376594654228627;
-0,00335956442236401;
-0,00302566809040991;
-0,00291842920763573;
-0,00305105269992964;
-0,00329974858640843;
-0,00350133700935606;
-0,00356637455849095;
-0,00352301841390797;
-0,00346622943568364;
-0,0034630796468778;
-0,00349615842706151;
-0,00348912454356899;
-0,00338604209371497;
-0,00321022320343443;
-0,00304739326459779;
-0,00296524132236261;
-0,0029391917749881;
-0,00285310607440895;
-0,0025829425232611;
-0,00210095199642199;
-0,00151650990427;
-0,00101634737086057;
-0,000745255848906681;
-0,000715409587325578;
-0,000810442259406621;
-0,000877089303152248;
-0,0008313196276962;
-0,000699330141768889;
-0,000569771793866564;
-0,000505056264526783;
-0,000488418313538487;
-0,000447960677041302;
-0,000330913577976249;
-0,000158588259402937;
-1,05498579709318E-5;
5,0598280368963E-5;
4,84575454919552E-5;
9,20422177336238E-5;
0,000297625326542259;
0,000691590064162549;
0,00117252077978592;
0,00156706466192439;
0,00174111066136784;
0,0016841198137485;
0,0015051440076927;
0,00134742607877026;
0,00128969229138091;
0,00130815545102985;
0,00132103513604948;
0,00127098314263869;
0,00117417268276743;
0,0010978830439099;
0,00109156491036307;
0,00113592958927296;
0,0011577134135877;
0,00109941744637016;
0,000983387569226755;
0,000910964435040698;
0,000990071152000245;
0,00124537095001713;
0,00158334627582356;
0,00184408138671351;
0,0019040410101842;
0,00175387562703255;
0,00149458796473578;
0,00125859911695313;
0,00111868506361624;
0,00105303583335243;
0,000986406348793226;
0,000866104854790743;
0,000707155214782354;
0,000571575070952147;
0,000504897695998274;
0,000489381118389044;
0,000457668377108904;
0,000356936103548287;
0,000207730793342538;
0,00010308778526231;
0,000141975511544572;
0,000346866893485164;
0,000631820333287121;
0,000850095567527894;
0,000888415174405388;
0,000738188101399423;
0,000491862077926284;
0,000270548023135745;
0,000140671845010079;
8,20936352096287E-5;
2,58398530859289E-5;
-7,63956937601525E-5;
-0,000211027321406277;
-0,000321579248474672;
-0,000366677602180707;
-0,000362717862260009;
-0,000371328816113742;
-0,000440832284287055;
-0,00055264487827218;
-0,000622169005465886;
-0,000559482600192134;
-0,000344372373703848;
-5,52834215778017E-5;
0,000174115942087913;
0,000240702434942176;
0,00013658514497745;
-5,43291575080386E-5;
-0,000222172725766064;
-0,000306802705715979;
-0,000326663303488384;
-0,00034446459615526;
-0,000404118321574773;
-0,000493404570193459;
-0,000561257444401953;
-0,000570326316972801;
-0,000535576891575289;
-0,00051288018267377;
-0,000546014393037122;
-0,000618225074022687;
-0,00065310945132864;
-0,000569517663433044;
-0,000349312909777267;
-6,34212598699114E-5;
0,00016747202690349;
0,000250340134186372;
0,000178097725940445;
2,63977177165971E-5;
-0,000105777838223171;
-0,000164296221625523;
-0,000165795205312447;
-0,000166716448384138;
-0,000206542338960718;
-0,000274258802110212;
-0,000323953090605056;
-0,000322068993372754;
-0,000282047443230004;
-0,00025402423724965;
-0,000277238163009791;
-0,000336608341171412;
-0,000363598137544629;
-0,00028547629687738;
-8,6010693909711E-5;
0,000171282645428755;
0,000378413699640612;
0,000452226086878604;
0,000386478648313416;
0,000248885568663365;
0,00012794876037177;
7,20491371048289E-5;
6,63599760597951E-5;
6,05555924689986E-5;
1,94787096536927E-5;
-4,69838226891865E-5;
-9,78589130675594E-5;
-0,000103217085039191;
-7,49978874870526E-5;
-5,778595287127E-5;
-8,64329905542368E-5;
-0,00014746151218989;
-0,000179897232118537;
-0,00011909568657839;
4,93558765087613E-5;
0,000269067865383646;
0,000444237429856815;
0,000501165086013135;
0,000434394067879774;
0,000303999753088791;
0,000188417343093839;
0,000130499178630146;
0,000117133166457409;
0,000103822148202129;
5,95156826682016E-5;
-7,01017079248199E-6;
-5,95348761868838E-5;
-7,16232545193329E-5;
-5,38120858020432E-5;
-4,54230960580271E-5;
-7,7162292131848E-5;
-0,000137120816972622;
-0,000171567403233966;
-0,000123591292713564;
1,94600115993584E-5;
0,000207947898728779;
0,00035762422257897;
0,000403736563373188;
0,000341527751495843;
0,000223775288122247;
0,000119321106038702;
6,57400196613269E-5;
5,15160695123796E-5;
3,76458078840608E-5;
-3,0633379476751E-6;
-6,29204594706787E-5;
-0,000110234083267564;
-0,000121901604171461;
-0,000107157274166473;
-0,000100372288925488;
-0,000128361591792392;
-0,000180723884425882;
-0,000210588137905297;
-0,000168357993269241;
-4,30530453201202E-5;
0,000122042083639532;
0,000253554356454281;
0,000295141074486622;
0,00024268369957391;
0,000142073568095602;
5,31153965543223E-5;
8,41413373584959E-6;
-2,05066549044641E-6;
-1,21261133527822E-5;
-4,53881510864227E-5;
-9,51705813102619E-5;
-0,000134035169294788;
-0,000142005236266167;
-0,000127092214058685;
-0,000119026725095953;
-0,000140978922376561;
-0,000183959278612119;
-0,000207515195427937;
-0,000168886643278127;
-5,86467453681435E-5;
8,5869951720421E-5;
0,000201459660218511;
0,000239638223953558;
0,000196885257659605;
0,000112668962729095;
3,83704982565438E-5;
1,97061909870813E-6;
-5,14612165135686E-6;
-1,20128112125828E-5;
-3,88289626130583E-5;
-7,98744746787709E-5;
-0,000111659799690296;
-0,000117104917629836;
-0,000103072690597033;
-9,49702911888281E-5;
-0,00011257316571441;
-0,00014819506960927;
-0,000167332454106338;
-0,000133557071643383;
-3,88693841762459E-5;
8,49258354862395E-5;
0,000184059714470057;
0,000217334965118273;
0,000181789643649285;
0,000110951189125643;
4,84134572504071E-5;
1,78889600383717E-5;
1,20701418549954E-5;
6,38033968117681E-6;
-1,62552250934355E-5;
-5,09853487736438E-5;
-7,79600410353986E-5;
-8,27656768793289E-5;
-7,11992861966943E-5;
-6,46767769932313E-5;
-7,98417266465701E-5;
-0,000110206220009269;
-0,000126742039408563;
-9,88446397922779E-5;
-1,98217626367367E-5;
8,36135778431308E-5;
0,00016637033983621;
0,000193948587350126;
0,000163897986801596;
0,000104289146591904;
5,15676395608937E-5;
2,55308870846194E-5;
2,00724350307616E-5;
1,47018173297321E-5;
-4,79309480878935E-6;
-3,43588784465118E-5;
-5,74798021390521E-5;
-6,21834416576804E-5;
-5,32916642692121E-5;
-4,85706208159118E-5;
-6,18027120721323E-5;
-8,75983785378636E-5;
-0,000101934245485981;
-7,95252382954171E-5;
-1,48722049912185E-5;
6,99584420623905E-5;
0,000137790019058015;
0,000160225963987732;
0,000135277711422071;
8,60399144222182E-5;
4,24449253125541E-5;
2,07240650556304E-5;
1,58621387607383E-5;
1,10831660322815E-5;
-5,22543481124984E-6;
-2,97390106064611E-5;
-4,89742020982489E-5;
-5,31777515791371E-5;
-4,62879316645393E-5;
-4,27610126274245E-5;
-5,37870675858626E-5;
-7,49759880367894E-5;
-8,68436450035307E-5;
-6,89260847459065E-5;
-1,68050152420305E-5;
5,16596410405069E-5;
0,000106452199459011;
0,000124694707579342;
0,000104812952931722;
6,54011237402249E-5;
3,05050336710929E-5;
1,31343842885989E-5;
9,2583512764843E-6;
5,45160709658891E-6;
-7,55545533819024E-6;
-2,70972545388579E-5;
-4,24248613328463E-5;
-4,57848697578302E-5;
-4,03199693975266E-5;
-3,75073558789899E-5;
-4,62056048053946E-5;
-6,29250617687705E-5;
-7,22638038963852E-5;
-5,80906411130111E-5;
-1,69571637282882E-5;
3,70554496297221E-5;
8,03600903311011E-5;
9,50301099371582E-5;
7,98620698562421E-5;
4,94147991973712E-5;
2,24590340807688E-5;
9,1193379449311E-6;
6,24698969210947E-6;
3,41578394489159E-6;
-6,54803206703198E-6;
-2,15685556821757E-5;
-3,33409372145817E-5;
-3,5897843200656E-5;
-3,16703439011201E-5;
-2,9475347020267E-5;
-3,60907407340073E-5;
-4,88302392695892E-5;
-5,59314984662059E-5;
-4,51238357613565E-5;
-1,38211456201774E-5;
2,72620897456563E-5;
6,02620713648261E-5;
7,16579154388659E-5;
6,05760841042631E-5;
3,79885701712481E-5;
1,79797531200599E-5;
8,11282799357966E-6;
6,02309768100483E-6;
3,94611982979007E-6;
-3,43287791823158E-6;
-1,45608043276578E-5;
-2,3298331188493E-5;
-2,52593675354518E-5;
-2,2243969551025E-5;
-2,07140837743928E-5;
-2,56069402449804E-5;
-3,49467726740051E-5;
-4,0187815169638E-5;
-3,246905603024E-5;
-9,9645823330898E-6;
1,95838267556177E-5;
4,33622739807577E-5;
5,17351289039018E-5;
4,41196881990321E-5;
2,83282627141427E-5;
1,43191416887032E-5;
7,40176287753947E-6;
5,90150618377369E-6;
4,39432315358133E-6;
-8,01174663632673E-7;
-8,59157841916498E-6;
-1,47390550835699E-5;
-1,62449490545391E-5;
-1,43554130978969E-5;
-1,34675655572049E-5;
-1,69059599141862E-5;
-2,33177684030899E-5;
-2,69736819081227E-5;
-2,19962291475298E-5;
-7,22382421380264E-6;
1,22011041593463E-5;
2,78774003135467E-5;
3,35624874279012E-5;
2,8927354420137E-5;
1,90276308618926E-5;
1,02238358057132E-5;
5,86133477013856E-6;
4,86653922846444E-6;
3,8525632266397E-6;
5,58630533861008E-7;
-4,32233859412693E-6;
-8,20577417572497E-6;
-9,29844898460828E-6;
-8,36547866280767E-6;
-8,01211799435626E-6;
-1,01645934789405E-5;
-1,40108717216684E-5;
-1,62626190287258E-5;
-1,36262791758972E-5;
-5,51498410912992E-6;
5,17785804113335E-6;
1,38665480617941E-5;
1,72404726799444E-5;
1,51895925754456E-5;
1,03901143826372E-5;
6,09905635742014E-6;
3,96854394999968E-6;
3,44273661422576E-6;
2,88858815625059E-6;
1,26729134909863E-6;
-1,07332786423222E-6;
-2,97023330561726E-6;
-3,66582023275093E-6;
-3,51207575202274E-6;
-3,57675257262144E-6;
-4,587316094681E-6;
-6,1958365848819E-6;
-7,20526055242594E-6;
-6,53400073678587E-6;
-4,08655272063542E-6;
-8,33024101941468E-7;
1,90129125770199E-6;
3,30952774045467E-6;
3,46858707538124E-6;
3,02564236369553E-6;
2,5929915948908E-6;
2,38083465803452E-6;
2,27397314020458E-6;
2,13078587932682E-6;
1,95060911313744E-6;
1,78766752221779E-6;
1,59813600749625E-6;
1,26123538809747E-6;
7,75387836417609E-7;
3,75301335594913E-7;
3,4800495642473E-7;
6,48358926560604E-7;
7,05223511725933E-7;
-2,68352303373701E-7;
-2,59126891124271E-6;
-5,61073163181925E-6;
-7,90331965027711E-6;
-8,16670062657248E-6;
-6,1664312976838E-6;
-2,96160899291994E-6;
-1,622731052664E-7;
1,23114852670392E-6;
1,47324486041801E-6;
1,67263973295621E-6;
2,6979766540757E-6;
4,35729099035303E-6;
5,59709990144577E-6;
5,56260754406474E-6;
4,54511453689188E-6;
3,86623275365716E-6;
4,65859588195295E-6;
6,54916856724256E-6;
7,4946641840412E-6;
5,15412250604146E-6;
-1,13533253927052E-6;
-9,37293323293875E-6;
-1,58546316120173E-5;
-1,75296855999773E-5;
-1,40329997687548E-5;
-7,83509058760036E-6;
-2,38262816016751E-6;
3,24463445142321E-7;
8,45877596392214E-7;
1,32049285255909E-6;
3,33234092417554E-6;
6,4864850832076E-6;
8,89944666072572E-6;
9,11385892898438E-6;
7,66148379992783E-6;
6,75464345935097E-6;
8,21792731526605E-6;
1,14096703679194E-5;
1,30835232449032E-5;
9,63026924376055E-6;
1,06977283924293E-7;
-1,23872728839989E-5;
-2,22926623591266E-5;
-2,5137403733119E-5;
-2,04502274970036E-5;
-1,1845882936578E-5;
-4,25827177106276E-6;
-4,95658197226283E-7;
2,48196403929322E-7;
9,43339491012519E-7;
3,74995231577297E-6;
8,10921076342359E-6;
1,14700059740505E-5;
1,18911321865042E-5;
1,00974343244718E-5;
9,01480227685878E-6;
1,10211218615377E-5;
1,52595519489244E-5;
1,7523318277854E-5;
1,31925030858881E-5;
1,10169839116798E-6;
-1,47765651993323E-5;
-2,740921719214E-5;
-3,11980765256182E-5;
-2,5587793798429E-5;
-1,50972109241811E-5;
-5,83348461407682E-6;
-1,24149445451846E-6;
-3,21048347045198E-7;
5,50403921206839E-7;
3,98429111001635E-6;
9,29296242884934E-6;
1,34032554701437E-5;
1,39965239851684E-5;
1,19482598031997E-5;
1,07393099169818E-5;
1,31767595430984E-5;
1,82364381593283E-5;
2,09681604538652E-5;
1,597157327975E-5;
1,9102708263595E-6;
-1,657058812713E-5;
-3,13062013489856E-5;
-3,58349942391958E-5;
-2,95373200580159E-5;
-1,76220611666114E-5;
-7,08984900157117E-6;
-1,86918704663243E-6;
-8,12707065137754E-7;
1,95648143592562E-7;
4,10747857963323E-6;
1,01375230713847E-5;
1,48199799407175E-5;
1,55533215745024E-5;
1,33260142049462E-5;
1,20330760273596E-5;
1,48006906215079E-5;
2,04798218883156E-5;
2,35693105126862E-5;
1,80924699657757E-5;
2,58755222093483E-6;
-1,7805435307351E-5;
-3,40922157588434E-5;
-3,91805246268777E-5;
-3,24040020695226E-5;
-1,94724662739751E-5;
-8,03288750437553E-6;
-2,36230726607812E-6;
-1,20743116445671E-6;
-9,88844279890681E-8;
4,15718649604392E-6;
1,0705439888288E-5;
1,58014706848518E-5;
1,66441424968517E-5;
1,43017542705771E-5;
1,29596598799217E-5;
1,59663454471898E-5;
2,20852449210362E-5;
2,54332991552744E-5;
1,96367471327297E-5;
3,14861750030224E-6;
-1,85521506919992E-5;
-3,59068336115052E-5;
-4,13964737209931E-5;
-3,4323489767706E-5;
-2,07331688914263E-5;
-8,70262133274877E-6;
-2,7392620747611E-6;
-1,5198851429967E-6;
-3,44258829950418E-7;
4,13824771721956E-6;
1,10262648501965E-5;
1,63962659187744E-5;
1,73201268185041E-5;
1,49171133915551E-5;
1,35550500874191E-5;
1,6720460153114E-5;
2,31217404899212E-5;
2,66410017060779E-5;
2,06632805297255E-5;
3,59127956302278E-6;
-1,88924909660321E-5;
-3,68948883594939E-5;
-4,26472912634138E-5;
-3,54344338014883E-5;
-2,14937917584269E-5;
-9,14543241828395E-6;
-3,02486626089792E-6;
-1,77010104953089E-6;
-5,55879243339923E-7;
4,05137908199438E-6;
1,11250442975123E-5;
1,66483409395626E-5;
1,76288170209876E-5;
1,52118257603665E-5;
1,38547329979401E-5;
1,71095290820062E-5;
2,36575441344189E-5;
2,72725841727924E-5;
2,12325173125949E-5;
3,91976033829317E-6;
-1,8895801432059E-5;
-3,71840199246801E-5;
-4,3078500621741E-5;
-3,58579997463452E-5;
-2,18295506584463E-5;
-9,39599661146182E-6;
-3,23344426296081E-6;
-1,96768282391589E-6;
-7,3881409746294E-7;
3,9066703413295E-6;
1,10346237357937E-5;
1,66082544465109E-5;
1,76241880405684E-5;
1,523269333835E-5;
1,39015897974045E-5;
1,71866144454964E-5;
2,37658123669834E-5;
2,74121813529945E-5;
2,14102387649933E-5;
4,14765482142451E-6;
-1,86167738037418E-5;
-3,68831431693096E-5;
-4,28159385050004E-5;
-3,56979533916815E-5;
-2,18022055674984E-5;
-9,47904606006711E-6;
-3,37131023838047E-6;
-2,11494036075913E-6;
-8,91538857931907E-7;
3,71927487463E-6;
1,07907725410894E-5;
1,63277523084456E-5;
1,73608118769556E-5;
1,50273674991611E-5;
1,3739343145128E-5;
1,70044740929432E-5;
2,35174498316363E-5;
2,7140473435799E-5;
2,12599715495541E-5;
4,2902692379614E-6;
-1,81031269095159E-5;
-3,60901368348867E-5;
-4,19734664244727E-5;
-3,50483884779673E-5;
-2,14677843308968E-5;
-9,41705890971174E-6;
-3,44439053221476E-6;
-2,21441239853222E-6;
-1,01334263798081E-6;
3,50212907609865E-6;
1,04250714363362E-5;
1,58528392075163E-5;
1,68871259899854E-5;
1,4637839792318E-5;
1,34062759372235E-5;
1,66095214868357E-5;
2,29753255036725E-5;
2,6529174540358E-5;
2,08377459517698E-5;
4,35964470890936E-6;
-1,74003022609519E-5;
-3,48962380125558E-5;
-4,06570415791212E-5;
-3,39974659046295E-5;
-2,08799899232451E-5;
-9,23335028942722E-6;
-3,461011296005E-6;
-2,27135067691212E-6;
-1,10650849686649E-6;
3,26406720042891E-6;
9,96330696036863E-6;
1,52224581230543E-5;
1,62443759493964E-5;
1,40996236305427E-5;
1,29346574446085E-5;
1,60414945414804E-5;
2,21941864702056E-5;
2,56411697379754E-5;
2,01924127390153E-5;
4,36501341714375E-6;
-1,65509077628987E-5;
-3,33853841401304E-5;
-3,89639031962733E-5;
-3,26264027138698E-5;
-2,00889791932645E-5;
-8,95064233095861E-6;
-3,43030672209166E-6;
-2,2920244271552E-6;
-1,17453110344029E-6;
3,01171984080966E-6;
9,42749019472889E-6;
1,44705807303111E-5;
1,54687569697995E-5;
1,3443921561101E-5;
1,23529165719358E-5;
1,53356674607721E-5;
2,1222918063706E-5;
2,4532786720872E-5;
1,93678607634246E-5;
4,31487692409184E-6;
-1,55928166983287E-5;
-3,16324476907133E-5;
-3,69808728118794E-5;
-3,10077392357898E-5;
-1,91395404566066E-5;
-8,58920225523078E-6;
-3,36037564435961E-6;
-2,28192176427299E-6;
-1,22036245221597E-6;
2,75122365136888E-6;
8,837534991184E-6;
1,36278712063199E-5;
1,45929997927762E-5;
1,26990917044655E-5;
1,16870209399812E-5;
1,45241684860686E-5;
2,0105821501807E-5;
2,32550244426084E-5;
1,84041045344035E-5;
4,2178442195331E-6;
-1,455861212528E-5;
-2,97029244017715E-5;
-3,47841574371589E-5;
-2,92051302792316E-5;
-1,80708303621171E-5;
-8,16651790041456E-6;
-3,25795610494815E-6;
-2,24548430077721E-6;
-1,2462077257464E-6;
2,48840464087984E-6;
8,21146023798568E-6;
1,27218658041979E-5;
1,36464902682521E-5;
1,18906942072731E-5;
1,09604394267947E-5;
1,36359194772955E-5;
1,8882583805913E-5;
2,18535055077469E-5;
1,73371176441436E-5;
4,08224443086574E-6;
-1,34762570675732E-5;
-2,76538229187028E-5;
-3,24403168599332E-5;
-2,72742483723856E-5;
-1,69171164073675E-5;
-7,69791158690461E-6;
-3,12898196194969E-6;
-2,18666259191933E-6;
-1,25408190466195E-6;
2,22828306775949E-6;
7,56496161634481E-6;
1,17766023137954E-5;
1,26549149949289E-5;
1,10410959400039E-5;
1,01937389667742E-5;
1,26962748514511E-5;
1,75879857932936E-5;
2,03682253651507E-5;
1,6198517132613E-5;
3,91561018554267E-6;
-1,23698826506341E-5;
-2,55346537245922E-5;
-3,00072854499526E-5;
-2,52636735692131E-5;
-1,57084609947469E-5;
-7,19704127277795E-6;
-2,97898561966373E-6;
-2,10927123322123E-6;
-1,24611901081485E-6;
1,97482154599001E-6;
6,91127530390921E-6;
1,08125823339584E-5;
1,16402423235791E-5;
1,01694364481759E-5;
9,4045422829477E-6;
1,17270372115465E-5;
1,6252023755442E-5;
1,88337458742693E-5;
1,50156871795148E-5;
3,72457653531043E-6;
-1,12601530861483E-5;
-2,33880061708389E-5;
-2,75350067593793E-5;
-2,32154007897892E-5;
-1,44710108116461E-5;
-6,67599408041441E-6;
-2,81309336268308E-6;
-2,01696655924504E-6;
-1,22451923393178E-6;
1,73106903729307E-6;
6,26142100056564E-6;
9,84709027254972E-6;
1,06210690109561E-5;
9,29194523612348E-6;
8,60783301596997E-6;
1,07468131273057E-5;
1,49003514314605E-5;
1,72796707349659E-5;
1,3812171902661E-5;
3,51504702475982E-6;
-1,01644237632838E-5;
-2,12499516596674E-5;
-2,5065893287297E-5;
-2,11651781755723E-5;
-1,3227130061298E-5;
-6,14525022947753E-6;
-2,63588882721968E-6;
-1,91307664102325E-6;
-1,19137550338462E-6;
1,49939122782829E-6;
5,62454088721441E-6;
8,89459774617706E-6;
9,61302037877216E-6;
8,42230625832837E-6;
7,8162889641297E-6;
9,77137303834927E-6;
1,35547263307349E-5;
1,57311445844933E-5;
1,26080750564407E-5;
3,29233156597938E-6;
-9,09692448317804E-6;
-1,91504798342917E-5;
-2,26353458788746E-5;
-1,91429315626565E-5;
-1,19956202216133E-5;
-5,61371264725567E-6;
-2,451368095025E-6;
-1,80055461688677E-6;
-1,14860053235546E-6;
1,28160632045865E-6;
5,00811125957664E-6;
7,96705349010445E-6;
8,62905410407132E-6;
7,5719026856805E-6;
7,04049892982519E-6;
8,81391434481819E-6;
1,22333528638308E-5;
1,42092259146329E-5;
1,14203315346349E-5;
3,06116829602973E-6;
-8,06906300186223E-6;
-1,71140638264378E-5;
-2,02723916388441E-5;
-1,71732747338781E-5;
-1,07920300721672E-5;
-5,08885065563711E-6;
-2,26299197150276E-6;
-1,68200999163426E-6;
-1,09794841871747E-6;
1,07901610933221E-6;
4,4180836030036E-6;
7,07410061111244E-6;
7,6796690831237E-6;
6,74999532616343E-6;
6,28912278535861E-6;
7,88525526846661E-6;
1,09511582612813E-5;
1,27312109017208E-5;
1,02629519149823E-5;
2,82571964729228E-6;
-7,08975505895261E-6;
-1,51602359310939E-5;
-1,80003332422694E-5;
-1,52760630092322E-5;
-9,62900119258653E-6;
-4,57685538728665E-6;
-2,07375586895035E-6;
-1,55976067413682E-6;
-1,04105015198199E-6;
8,92445588710589E-7;
3,85901647315586E-6;
6,22327198928417E-6;
6,77313275312429E-6;
5,96391406521934E-6;
5,56904945934104E-6;
6,99404042936863E-6;
9,72009195758998E-6;
1,13109771798118E-5;
9,14726419143507E-6;
2,58957369991427E-6;
-6,16571961152431E-6;
-1,33041271434646E-5;
-1,58373664162536E-5;
-1,3466890808468E-5;
-8,51656275129601E-6;
-4,08277475830943E-6;
-1,88623447934213E-6;
-1,43585293783595E-6;
-9,79416326975098E-7;
7,22304577364683E-7;
3,33423687037187E-6;
5,42022825880535E-6;
5,91571768362487E-6;
5,21925919744059E-6;
4,88558386300108E-6;
6,14696394648485E-6;
8,54943030920596E-6;
9,95933542893395E-6;
8,08219644052652E-6;
2,35579842001323E-6;
-5,30174022009457E-6;
-1,15569647748136E-5;
-1,37971353506914E-5;
-1,17575563880635E-5;
-7,46241619869463E-6;
-3,61060774262496E-6;
-1,70259416594985E-6;
-1,31206806177425E-6;
-9,14419084237349E-7;
5,68655277864349E-7;
2,84599212505449E-6;
4,66899256628942E-6;
5,11194750353415E-6;
4,52010750244298E-6;
4,24264132732592E-6;
5,34900787073982E-6;
7,44609174267544E-6;
8,68438329126701E-6;
7,07453797830983E-6;
2,12697998388547E-6;
-4,50090265232233E-6;
-9,92653764992416E-6;
-1,18892752907146E-5;
-1,01564930541783E-5;
-6,47217761777746E-6;
-3,16342076709656E-6;
-1,52463193134635E-6;
-1,18992873218907E-6;
-8,4729346048652E-7;
4,3128191271415E-7;
2,39561246748314E-6;
3,97215942395163E-6;
4,36482348095953E-6;
3,86921820115496E-6;
3,64291996427741E-6;
4,60364596696089E-6;
6,41492265999779E-6;
7,49183157300333E-6;
6,12919181206246E-6;
1,90526673609413E-6;
-3,76482491745809E-6;
-8,4176400801278E-6;
-1,01199208602443E-5;
-8,6692020107109E-6;
-5,54964671642148E-6;
-2,74344101373153E-6;
-1,35379565072285E-6;
-1,07071869318974E-6;
-7,79134182638084E-7;
3,09736733692393E-7;
1,98363748881403E-6;
3,3311002623298E-6;
3,67602542031361E-6;
3,26819371685598E-6;
3,08805676037589E-6;
3,91303894189463E-6;
5,45895575316942E-6;
6,38530205144109E-6;
5,24941287100928E-6;
1,69240795008313E-6;
-3,09388266176541E-6;
-7,03250027645363E-6;
-8,49219167819681E-6;
-7,2986438168707E-6;
-4,69703911528789E-6;
-2,3521633671116E-6;
-1,19122410730148E-6;
-9,55498752511786E-7;
-7,10901418502051E-7;
2,03385410357566E-7;
1,60993552565386E-6;
2,74613356737687E-6;
3,04610610405687E-6;
2,71765407849419E-6;
2,57877501330146E-6;
3,27821354370312E-6;
4,57966720491921E-6;
5,36661535799723E-6;
4,43701125380666E-6;
1,48978004232211E-6;
-2,48740534684824E-6;
-5,77115897677646E-6;
-7,00663886610058E-6;
-6,04561794927333E-6;
-3,91521786370309E-6;
-1,99045280256605E-6;
-1,03777704805098E-6;
-8,4512989822239E-7;
-6,43438695356402E-7;
1,1144981858367E-7;
1,27381887200019E-6;
2,21669222081844E-6;
2,47466273544557E-6;
2,21738055309534E-6;
2,11502226921219E-6;
2,69922993081297E-6;
3,7771975099797E-6;
4,43605267636159E-6;
3,69257012984633E-6;
1,29843332936474E-6;
-1,94386586127785E-6;
-4,63184440428299E-6;
-5,66165844300021E-6;
-4,9090951231964E-6;
-3,20389880741505E-6;
-1,65862663162613E-6;
-8,94074371143838E-7;
-7,40291662350189E-7;
-5,77458387167795E-7;
3,30396813769913E-8;
9,74144398993571E-7;
1,74148904515467E-6;
1,96049987628935E-6;
1,76645499313513E-6;
1,69609681080546E-6;
2,17533981021355E-6;
3,05057177956436E-6;
3,59260343350637E-6;
3,01562657440886E-6;
1,11911407613163E-6;
-1,46103986829188E-6;
-3,61127714783807E-6;
-4,45386652440694E-6;
-3,886536088103E-6;
-2,56183639735149E-6;
-1,35653851291348E-6;
