1,01359584582797E-9;
2,30638056207388E-9;
2,7971573458013E-9;
2,41787778314934E-9;
1,56610272724571E-9;
7,90563871376037E-10;
4,04707070115455E-10;
3,25263013638293E-10;
2,42255059494457E-10;
-6,9997986333457E-11;
-5,56042924590671E-10;
-9,53253226920508E-10;
-1,0642706774448E-9;
-9,55624453215837E-10;
-9,12090080149306E-10;
-1,16764802884401E-9;
-1,63933425804198E-9;
-1,93023163728683E-9;
-1,60459532843902E-9;
-5,40553369933194E-10;
9,11818544346459E-10;
2,1259253727479E-9;
2,59694240962248E-9;
2,25516361245169E-9;
1,47077960958617E-9;
7,53857126882091E-10;
3,96594175559369E-10;
3,24800313538942E-10;
2,4965140287864E-10;
-4,14427171489992E-11;
-4,9655616515102E-10;
-8,69059321604703E-10;
-9,76041820534442E-10;
-8,8139805937581E-10;
-8,46924392997338E-10;
-1,08779111602345E-9;
-1,53269610348561E-9;
-1,81139682778811E-9;
-1,51525132123415E-9;
-5,34383153386889E-10;
8,12465102252731E-10;
1,94582974809848E-9;
2,39210402027237E-9;
2,08692989747303E-9;
1,36969230615094E-9;
7,12193246685525E-10;
3,85981986877955E-10;
3,21078026585734E-10;
2,51552552712541E-10;
-1,76679718167756E-11;
-4,38740766143073E-10;
-7,86583047798127E-10;
-8,89787083457307E-10;
-8,05058443183529E-10;
-7,77068524260877E-10;
-1,0055057626747E-9;
-1,42215790882254E-9;
-1,68563458639703E-9;
-1,4206322911625E-9;
-5,20855561891693E-10;
7,19252605371169E-10;
1,76556376143098E-9;
2,18577148381287E-9;
1,91543638631147E-9;
1,26474319665483E-9;
6,66591895490992E-10;
3,70106220350376E-10;
3,12375687328156E-10;
2,48829644614537E-10;
3,03247892354455E-12;
-3,84022870895519E-10;
-7,05594155546274E-10;
-8,02667647212926E-10;
-7,30203787921697E-10;
-7,09276774278866E-10;
-9,21910896484449E-10;
-1,307720049294E-9;
-1,55461323443473E-9;
-1,31969103428366E-9;
-5,03400551842759E-10;
6,29369093393053E-10;
1,58986895043808E-9;
1,98044128171957E-9;
1,7436344724547E-9;
1,15882157002905E-9;
6,18426749448754E-10;
3,51714292600877E-10;
3,01095846966935E-10;
2,44561703693686E-10;
2,06362780327631E-11;
-3,31679934233686E-10;
-6,26424713976111E-10;
-7,19604752859315E-10;
-6,56905216797386E-10;
-6,42832673049951E-10;
-8,3966170289823E-10;
-1,19328895304125E-9;
-1,42473590894922E-9;
-1,2168815142371E-9;
-4,80097685541463E-10;
5,4531631098218E-10;
1,41969636434051E-9;
1,78136990530549E-9;
1,5756774500064E-9;
1,05362634616723E-9;
5,69737003357752E-10;
3,314706975658E-10;
2,87418688334659E-10;
2,3686610218632E-10;
3,52204851902958E-11;
-2,83504490642366E-10;
-5,52066274048959E-10;
-6,39363640862698E-10;
-5,86221383006231E-10;
-5,75614894700441E-10;
-7,57635757131109E-10;
-1,08165642560527E-9;
-1,29473488249179E-9;
-1,11485180664865E-9;
-4,56172884912674E-10;
4,66284531246121E-10;
1,25515761278772E-9;
1,58714541046001E-9;
1,4119420857724E-9;
9,50714615166823E-10;
5,20739561806367E-10;
3,10147644924003E-10;
2,71775047628767E-10;
2,26794606944144E-10;
4,68872541149226E-11;
-2,38919064250236E-10;
-4,81495725181945E-10;
-5,62190859748054E-10;
-5,17541682260922E-10;
-5,12617662461469E-10;
-6,78432775222608E-10;
-9,71639064586021E-10;
-1,16767154952181E-9;
-1,01101086182824E-9;
-4,27723735213203E-10;
3,92322723596457E-10;
1,10000588347704E-9;
1,40307905702921E-9;
1,25332405985065E-9;
8,50304621508427E-10;
4,73040847367321E-10;
2,87421159822788E-10;
2,55661113762484E-10;
2,166421164295E-10;
5,58575605942712E-11;
-1,98859841007405E-10;
-4,14635003188661E-10;
-4,8914603945819E-10;
-4,53978526854732E-10;
-4,50619604192976E-10;
-6,00478203339967E-10;
-8,65198835927637E-10;
-1,04360893455804E-9;
-9,11663962616238E-10;
-3,98821669537915E-10;
3,25886103026579E-10;
9,52536731498965E-10;
1,22735668704404E-9;
1,10337101207271E-9;
7,53363787870172E-10;
4,25749328729697E-10;
2,64578867232486E-10;
2,36793584747108E-10;
2,04251246435169E-10;
6,38243922534987E-11;
-1,61288224641875E-10;
-3,53131639062943E-10;
-4,21225466966097E-10;
-3,93550368820044E-10;
-3,94508061638616E-10;
-5,27882148613758E-10;
-7,63764073610608E-10;
-9,25528884458001E-10;
-8,13821776235641E-10;
-3,69699565776087E-10;
2,64993108071568E-10;
8,18483333640545E-10;
1,06326443346735E-9;
9,61042610236329E-10;
6,61671632258746E-10;
3,80513232438054E-10;
2,42781418935317E-10;
2,19750417088382E-10;
1,91007742260504E-10;
6,82031664799912E-11;
-1,27429048534019E-10;
-2,96408237076324E-10;
-3,57817877845181E-10;
-3,35835931053501E-10;
-3,4083090226623E-10;
-4,60337084484307E-10;
-6,67612694412941E-10;
-8,12093279147673E-10;
-7,20685800482878E-10;
-3,38297565985825E-10;
2,10734787830972E-10;
6,91673488631749E-10;
9,0988968983425E-10;
8,28991168080223E-10;
5,76001763167201E-10;
3,36045367930443E-10;
2,19514583884339E-10;
2,00798220527582E-10;
1,76455348188E-10;
7,2057713842202E-11;
-9,72229506890351E-11;
-2,44291301894092E-10;
-2,99727880299273E-10;
-2,84169683730112E-10;
-2,90399295473982E-10;
-3,96431944887175E-10;
-5,78848226322258E-10;
-7,06848674376575E-10;
-6,32629282395195E-10;
-3,08313370932437E-10;
1,60690340171588E-10;
5,75616480988868E-10;
7,68957726368862E-10;
7,05125048206659E-10;
4,94805266267927E-10;
2,95625847160909E-10;
1,9692930886381E-10;
1,82020564363963E-10;
1,63278889736542E-10;
7,39108165735369E-11;
-7,01584841776834E-11;
-1,97273125909931E-10;
-2,47948424034908E-10;
-2,36359644055484E-10;
-2,4440262095752E-10;
-3,36872256884349E-10;
-4,94405772576208E-10;
-6,0850964795429E-10;
-5,49478895507103E-10;
-2,78121722117998E-10;
1,17101690904009E-10;
4,71160928947443E-10;
6,39386813735904E-10;
5,91942429178877E-10;
4,20534268621618E-10;
2,56319121386375E-10;
1,75313337333034E-10;
1,63259117178892E-10;
1,48897887897652E-10;
7,46029188180107E-11;
-4,84584532013687E-11;
-1,55593361095069E-10;
-1,98487263514128E-10;
-1,93103557320921E-10;
-2,02679897236116E-10;
-2,81931660060208E-10;
-4,17482835907035E-10;
-5,16216158806444E-10;
-4,71870270101832E-10;
-2,49780400780215E-10;
7,96101115825117E-11;
3,76725579102398E-10;
5,21108585079173E-10;
4,88814839421932E-10;
3,5259975816688E-10;
2,19716371501259E-10;
1,55644439649915E-10;
1,4699757308408E-10;
1,34991603596668E-10;
7,37126262852338E-11;
-2,79905338157231E-11;
-1,17400315553282E-10;
-1,56155047344187E-10;
-1,53616579741476E-10;
-1,62684915030316E-10;
-2,3225785456871E-10;
-3,4696534773144E-10;
-4,31596773272373E-10;
-4,00366157031018E-10;
-2,21623540912878E-10;
4,66435981720468E-11;
2,91852715002252E-10;
4,15740046765362E-10;
3,95644474475634E-10;
2,8935926343619E-10;
1,85287071701272E-10;
1,36140210216266E-10;
1,29651257835982E-10;
1,21257401742636E-10;
7,32703527072502E-11;
-9,96302011143803E-12;
-8,36874964777027E-11;
-1,16832211770312E-10;
-1,1867384468753E-10;
-1,29289563094822E-10;
-1,86674997129536E-10;
-2,82196716889192E-10;
-3,54768221005925E-10;
-3,34563679665925E-10;
-1,96116048803746E-10;
1,80411817627998E-11;
2,16878720884328E-10;
3,20678269269219E-10;
3,11094400177621E-10;
2,33180899420503E-10;
1,54983978637239E-10;
1,17374663550907E-10;
1,14042807498819E-10;
1,07587091337136E-10;
6,9708736242606E-11;
4,57441323292449E-12;
-5,66437651756399E-11;
-8,43144514564627E-11;
-8,68724474258056E-11;
-9,8661449475196E-11;
-1,46137061103233E-10;
-2,24939342547009E-10;
-2,86658021802501E-10;
-2,7457456033521E-10;
-1,70294996543767E-10;
-6,01679139415483E-12;
1,50137397170201E-10;
2,36859718854985E-10;
2,36944248486555E-10;
1,82748156634213E-10;
1,26558538260273E-10;
1,00320492938351E-10;
9,99523886581941E-11;
9,53945781497356E-11;
6,51784570041673E-11;
1,6208806585749E-11;
-3,01395294948629E-11;
-5,45676088151575E-11;
-5,98484020467319E-11;
-7,17581615885516E-11;
-1,10097487334944E-10;
-1,71764964047092E-10;
-2,23727367404297E-10;
-2,2051177861261E-10;
-1,46309109706836E-10;
-2,4838712097062E-11;
9,38390781656078E-11;
1,62517682947472E-10;
1,69495616102925E-10;
1,37217175420062E-10;
1,0132334699326E-10;
8,48693376030904E-11;
8,53258651967094E-11;
8,35087646450708E-11;
6,28184398152555E-11;
2,66613894195839E-11;
-8,45916932401003E-12;
-2,943660535109E-11;
-3,63303968057207E-11;
-4,7101898597135E-11;
-7,90022758706217E-11;
-1,26850705788243E-10;
-1,6682014710547E-10;
-1,71288814932886E-10;
-1,25599107469252E-10;
-4,22213471632755E-11;
4,37988892547772E-11;
9,87640741062955E-11;
1,12230286866684E-10;
9,76759654468057E-11;
7,80258394388966E-11;
6,98865393531519E-11;
7,21534467460493E-11;
7,16470713086575E-11;
5,84011819997654E-11;
3,39852964022667E-11;
9,9319252293189E-12;
-6,38596486325272E-12;
-1,60122262791504E-11;
-2,68349853980048E-11;
-5,14471140272804E-11;
-8,71432242896641E-11;
-1,17967116471637E-10;
-1,2784909692632E-10;
-1,04441079166909E-10;
-5,45066117906388E-11;
1,43611997996427E-12;
4,35040726576889E-11;
6,16333522453856E-11;
6,24257710702232E-11;
5,81966577010307E-11;
5,75950302517229E-11;
6,04681539730375E-11;
6,12327626995757E-11;
5,52862123409464E-11;
4,10491402944932E-11;
2,45807215266798E-11;
1,13328075171773E-11;
8,75789119168518E-13;
-9,93050729280803E-12;
-2,69940243373592E-11;
-5,12247029005058E-11;
-7,57015261511894E-11;
-8,98164856962479E-11;
-8,51230471978194E-11;
-6,38288638731081E-11;
-3,37959189101552E-11;
-3,12280706959069E-12;
1,99013547340982E-11;
3,30681658055962E-11;
4,06058316237499E-11;
4,59241061105258E-11;
4,91459359715624E-11;
5,10689508349019E-11;
5,07691924503473E-11;
4,49676369806167E-11;
3,56682654581482E-11;
2,60862214573307E-11;
1,54669091368987E-11;
4,76829194936264E-12;
-6,75022285357225E-12;
-2,16961463636593E-11;
-3,8601909098204E-11;
-5,6941505700099E-11;
-7,0090882095828E-11;
-7,05516184848443E-11;
-6,15987456121612E-11;
-4,25231211399997E-11;
-1,6103031173911E-11;
7,01615876300878E-12;
2,39426479010173E-11;
3,44092255162877E-11;
3,9341513179788E-11;
4,27007729636464E-11;
4,60918405373155E-11;
4,84593147330906E-11;
4,61579810755557E-11;
3,81288939200041E-11;
2,818295969255E-11;
1,85932445645779E-11;
1,09512301806965E-11;
3,97994559942257E-12;
-8,32163312612652E-12;
-2,78465974374847E-11;
-5,30833579490051E-11;
-7,67217060491753E-11;
-8,49776269969179E-11;
-7,3742684210329E-11;
-4,70863254821799E-11;
-1,38128835004067E-11;
1,1891943792728E-11;
2,53107615724181E-11;
3,06145135197419E-11;
3,4392474412602E-11;
4,17981369490087E-11;
4,97988704247385E-11;
5,28793607072267E-11;
4,8643094567831E-11;
3,76583162621327E-11;
2,75343583441322E-11;
2,56396130425073E-11;
2,58907779641704E-11;
1,87660653895906E-11;
-3,40759128316965E-12;
-4,11571660696169E-11;
-8,01069028939197E-11;
-1,03729616974283E-10;
-1,00643263465794E-10;
-7,14948909613619E-11;
-3,12600164585545E-11;
5,91304508404667E-13;
1,60260664810641E-11;
2,19060613474292E-11;
2,71019816765035E-11;
3,74064102536988E-11;
5,08198782213779E-11;
5,96377060210013E-11;
5,6223991171148E-11;
4,43435096609092E-11;
3,68673374605074E-11;
3,71413682544081E-11;
4,23238055881425E-11;
4,05895007110437E-11;
1,71670134256372E-11;
-2,85246560410569E-11;
-8,13804373737924E-11;
-1,16604054795646E-10;
-1,19640435603647E-10;
-9,1316323721339E-11;
-4,68272637108923E-11;
-9,6066203287456E-12;
9,61764001271185E-12;
1,56847646374028E-11;
2,06315871611919E-11;
3,31199226789112E-11;
5,01536848207223E-11;
6,18118693511646E-11;
6,09330578800893E-11;
5,00297693055911E-11;
4,24805796089042E-11;
4,59515053384815E-11;
5,58382656435341E-11;
5,88392635100613E-11;
3,50714827786908E-11;
-1,81807229360637E-11;
-8,15418994139513E-11;
-1,27336104452738E-10;
-1,35262969920779E-10;
-1,06142272417819E-10;
-5,83592456346682E-11;
-1,72831732477479E-11;
3,90599431292056E-12;
9,47366674415097E-12;
1,38179467936997E-11;
2,90773130761403E-11;
5,04822284111741E-11;
6,47528500150978E-11;
6,48770125088609E-11;
5,46793891538191E-11;
4,72482655920857E-11;
5,33702515121529E-11;
6,78969894304417E-11;
7,24826020006485E-11;
4,87110910878334E-11;
-8,33526340755872E-12;
-7,97942971692962E-11;
-1,33521545892515E-10;
-1,45889884989814E-10;
-1,16334092535346E-10;
-6,70675249235734E-11;
-2,35780552405565E-11;
-9,38226895302215E-13;
3,69770509643417E-12;
9,39711131625234E-12;
2,62412887122478E-11;
4,81893348523696E-11;
6,45590159596403E-11;
6,6523677713546E-11;
5,72467711527349E-11;
5,1300951396202E-11;
5,91759897758469E-11;
7,60555716002469E-11;
8,33977686353547E-11;
5,95595511634757E-11;
-9,17289350677224E-13;
-7,73180613280923E-11;
-1,36921812073935E-10;
-1,5329415601144E-10;
-1,23529282631273E-10;
-7,2715249542196E-11;
-2,97468637318408E-11;
-7,20150782354757E-12;
-5,53301910964496E-13;
5,9384948643213E-12;
2,26107979067812E-11;
4,64286363641097E-11;
6,54197001490836E-11;
6,7801782180076E-11;
5,828199415886E-11;
5,23158850361871E-11;
6,15040454418446E-11;
8,25930209831918E-11;
9,19086392504783E-11;
6,78384029971569E-11;
6,51827903573556E-12;
-7,46419013837535E-11;
-1,38235232746361E-10;
-1,55823790852814E-10;
-1,28623904322385E-10;
-7,83899937620638E-11;
-3,29158245163114E-11;
-9,51632370768293E-12;
-4,26607980675858E-12;
7,08432418319779E-13;
1,80674564827505E-11;
4,36230136751471E-11;
6,34464588533045E-11;
6,69006024304642E-11;
5,83236633601164E-11;
5,3420355794982E-11;
6,36365018417602E-11;
8,56734967822544E-11;
9,71464228142267E-11;
7,37709164468297E-11;
1,15542783295476E-11;
-7,00859040132984E-11;
-1,36126671073858E-10;
-1,57147818989979E-10;
-1,30527928692428E-10;
-8,02554201870229E-11;
-3,60027076244015E-11;
-1,31130575509511E-11;
-7,94880497605181E-12;
-2,33516821003511E-12;
1,53764638287157E-11;
4,06446451287416E-11;
6,22814686212225E-11;
6,70234838821292E-11;
5,69303293544826E-11;
5,24492384378492E-11;
6,56816737999331E-11;
8,83797886542164E-11;
9,99066448750887E-11;
7,82952396051776E-11;
1,61911665191178E-11;
-6,59712141074691E-11;
-1,317876402919E-10;
-1,54179741173393E-10;
-1,29940691269815E-10;
-8,16295767915095E-11;
-3,79079687154506E-11;
-1,46960419285588E-11;
-1,030761085418E-11;
-5,67848775784363E-12;
1,27701281672106E-11;
3,88348471902634E-11;
5,91114474575224E-11;
6,35956818723666E-11;
5,62340533545524E-11;
5,29414822816859E-11;
6,43072355351935E-11;
8,73478967507298E-11;
1,00628771888121E-10;
8,00927129414093E-11;
2,05776841447163E-11;
-6,13284016785475E-11;
-1,28021035680802E-10;
-1,50825541105621E-10;
-1,2877128840071E-10;
-8,06011601266725E-11;
-3,76186392282764E-11;
-1,68717974849049E-11;
-1,18323060043993E-11;
-6,35876009861155E-12;
1,02926495428676E-11;
3,50214952945931E-11;
5,58614837395069E-11;
6,11557273995678E-11;
5,41453619044326E-11;
5,02891273707754E-11;
6,29282524952613E-11;
8,85427837517605E-11;
1,01623699376054E-10;
8,04850418842283E-11;
2,22360861545661E-11;
-5,61260921033885E-11;
-1,21509214258015E-10;
-1,45654269916575E-10;
-1,23727395574923E-10;
-7,87712303380561E-11;
-3,84323893013144E-11;
-1,74015021653012E-11;
-1,38605719035503E-11;
-9,81031418058024E-12;
7,18638718149305E-12;
3,28984413283611E-11;
5,26955827475429E-11;
5,729121847221E-11;
5,19074533660867E-11;
4,94012277347824E-11;
6,16585411600424E-11;
8,49844607942591E-11;
9,93526771093816E-11;
8,15104551352698E-11;
2,36843620891093E-11;
-5,27148013135839E-11;
-1,14883129677546E-10;
-1,39192563551386E-10;
-1,20237121055452E-10;
-7,69061975687731E-11;
-3,78337107121781E-11;
-1,87143286538619E-11;
-1,47840595323835E-11;
-9,89600302889534E-12;
5,86614846707804E-12;
2,88416811060274E-11;
4,84565398904126E-11;
5,45867023932127E-11;
4,90930506516557E-11;
4,70732430965194E-11;
5,88475309137958E-11;
8,1898892023292E-11;
9,6833821278055E-11;
7,89598690979586E-11;
2,51112299200272E-11;
-4,70273021567425E-11;
-1,07625286762227E-10;
-1,30623456059666E-10;
-1,13740824376182E-10;
-7,43761706119516E-11;
-3,74914332592264E-11;
-1,88684941304392E-11;
-1,50619336655116E-11;
-1,16577597366866E-11;
3,19944391889952E-12;
2,6695797200489E-11;
4,54027232276605E-11;
5,10425829895769E-11;
4,66435643265533E-11;
4,41117460198461E-11;
5,53384687748851E-11;
7,82308723686382E-11;
9,26901133707447E-11;
7,74580612821549E-11;
2,74066982414661E-11;
-4,20982634755527E-11;
-1,00687209967846E-10;
-1,23583632065198E-10;
-1,07322802859395E-10;
-6,98925561676844E-11;
-3,64234870701491E-11;
-1,98140548315426E-11;
-1,64489815317777E-11;
-1,25592006687092E-11;
2,24411378724828E-12;
2,45725795679856E-11;
4,22015711802156E-11;
4,74340428285422E-11;
4,35200039511076E-11;
4,15467696301179E-11;
5,27582952401601E-11;
7,41194084903329E-11;
8,69691240955626E-11;
7,34630162706572E-11;
2,75124825574462E-11;
-3,75270910685435E-11;
-9,30403056898138E-11;
-1,15233228826815E-10;
-1,00146543767511E-10;
-6,57357185735118E-11;
-3,46149072671089E-11;
-1,83251793385697E-11;
-1,497154023127E-11;
-1,18232465993528E-11;
9,57339207229456E-13;
2,06335233204907E-11;
3,75382147221971E-11;
4,33403526225606E-11;
3,95242335019791E-11;
3,86208781208199E-11;
4,96795385306904E-11;
6,91528112002592E-11;
8,25232052267144E-11;
7,06745552867718E-11;
2,66887830199268E-11;
-3,36433470196899E-11;
-8,47796579299749E-11;
-1,06334510709715E-10;
-9,26167490432449E-11;
-6,07238625226036E-11;
-3,26046441459361E-11;
-1,8212557907176E-11;
-1,60839599139783E-11;
-1,33736988679508E-11;
-5,71921835027137E-13;
1,87541218300413E-11;
3,44726628403859E-11;
3,94206967377116E-11;
3,62945800818591E-11;
3,50456762270076E-11;
4,54311954392832E-11;
6,49439932608818E-11;
7,726386561188E-11;
6,60529844450083E-11;
2,66297709928497E-11;
-2,91451915001668E-11;
-7,69250369930277E-11;
-9,66068193003058E-11;
-8,55101621288632E-11;
-5,69982770562378E-11;
-3,13677680233837E-11;
-1,87120801258824E-11;
-1,51999120872078E-11;
-1,23418379527369E-11;
-1,52435339763759E-12;
1,58276171693055E-11;
2,9862949654151E-11;
3,56534907347879E-11;
3,34102541504483E-11;
3,19013401282891E-11;
4,26157573928117E-11;
6,04916278786087E-11;
7,0993055544931E-11;
6,0722840015706E-11;
2,44677656397587E-11;
-2,50940036872532E-11;
-6,85737651667591E-11;
-8,78378108758954E-11;
-7,71108477488158E-11;
-5,17664164045765E-11;
-2,88153790535575E-11;
-1,72070089937758E-11;
-1,46114295389238E-11;
-1,15798043394888E-11;
-2,31138674769254E-12;
1,45801369270153E-11;
2,82957388507367E-11;
3,12573204717642E-11;
2,91095124470518E-11;
2,92602078597386E-11;
3,90964561860152E-11;
5,56935704184609E-11;
6,63643728867854E-11;
5,74302148264733E-11;
2,43924961262416E-11;
-2,12304795707919E-11;
-6,09502123878907E-11;
-7,85728092708798E-11;
-7,03570216042632E-11;
-4,77768824485476E-11;
-2,70680070200728E-11;
-1,63525167109486E-11;
-1,41399445588182E-11;
-1,22423692304187E-11;
-2,83802687919818E-12;
1,16510023208802E-11;
2,41691935910106E-11;
2,85092314678719E-11;
2,5924786873426E-11;
2,66371161426995E-11;
3,57918734464183E-11;
4,97862898109862E-11;
5,96946330330164E-11;
5,30124000232552E-11;
2,36129570474831E-11;
-1,79100106875799E-11;
-5,32399513336432E-11;
-6,97861004375612E-11;
-6,35616616769439E-11;
-4,32099401118521E-11;
-2,39431657726444E-11;
-1,48065952610807E-11;
-1,38288186729428E-11;
-1,14289728255113E-11;
-2,86679707757696E-12;
9,46749983259081E-12;
2,12989650607473E-11;
2,56741734843968E-11;
2,3279781531228E-11;
2,35425616421348E-11;
3,11937220960506E-11;
4,44907476866796E-11;
5,40893358870419E-11;
4,8347525607392E-11;
2,24296520667387E-11;
-1,53063091889609E-11;
-4,73077363524106E-11;
-6,20499965009938E-11;
-5,64203021593361E-11;
-3,87774176492264E-11;
-2,28804884577214E-11;
-1,47640252040419E-11;
-1,28908886398476E-11;
-1,04659592870962E-11;
-3,54129591570609E-12;
7,52457803011994E-12;
1,82169742651165E-11;
2,12913228877994E-11;
1,96660051582688E-11;
2,09591984130464E-11;
2,82473484271154E-11;
4,02493421020113E-11;
4,84733105710054E-11;
4,36451285868312E-11;
2,1116641205665E-11;
-1,27900339937943E-11;
-4,12391785786386E-11;
-5,35618031702574E-11;
-4,87324743030719E-11;
-3,43565767715397E-11;
-2,09224565725618E-11;
-1,2826534506315E-11;
-1,14887641820752E-11;
-1,08594058569509E-11;
-4,15740938749398E-12;
6,2923013618006E-12;
1,54782912893409E-11;
1,85173530501909E-11;
1,72908641889409E-11;
1,81336001917903E-11;
2,52813343545899E-11;
3,63241492390438E-11;
4,31003905716605E-11;
3,90555272160559E-11;
1,9549181236087E-11;
-8,92185737590617E-12;
-3,46772628799549E-11;
-4,81265316837169E-11;
-4,33506338495528E-11;
-2,94056136508905E-11;
-1,8068478349833E-11;
-1,20521258542756E-11;
-1,02939158735175E-11;
-9,39123954176218E-12;
-4,28552232113886E-12;
4,65371034987753E-12;
1,22419871381731E-11;
1,59976116692454E-11;
1,59398393116533E-11;
1,54458859480583E-11;
2,10949311965987E-11;
3,20044496410196E-11;
3,8514145255395E-11;
3,48634252076896E-11;
1,87337572004475E-11;
-6,86435915485254E-12;
-2,97592727730802E-11;
-4,06661240750651E-11;
-3,74090430656414E-11;
-2,5625903855739E-11;
-1,5592227845681E-11;
-1,16365885246794E-11;
-1,07857438610427E-11;
-8,7290442002395E-12;
-4,81281074444816E-12;
2,25311863894661E-12;
1,05765273906258E-11;
1,29420562051401E-11;
1,1926754761901E-11;
1,40728645108328E-11;
1,92626715253159E-11;
2,68770117969089E-11;
3,34123654396365E-11;
3,07695379361075E-11;
1,60835656355834E-11;
-5,06844724612913E-12;
-2,46373387513286E-11;
-3,42785325958678E-11;
-3,12008062169545E-11;
-2,2268639521926E-11;
-1,40974602198709E-11;
-9,36303548600507E-12;
-8,87867583270939E-12;
-8,34444869854221E-12;
-4,35422967177874E-12;
1,96157004274526E-12;
8,59925559688075E-12;
1,1305418751429E-11;
1,04965176813934E-11;
1,155518940016E-11;
1,58473389744575E-11;
2,34804642053125E-11;
3,0009192342604E-11;
2,71107803706083E-11;
1,47909242482654E-11;
-2,96866421236552E-12;
-1,99363465189311E-11;
-2,79174457131555E-11;
-2,69002164452851E-11;
-1,96715067158539E-11;
-1,1629088880474E-11;
-8,67661987298985E-12;
-7,95735349116859E-12;
-6,89800832589115E-12;
-3,84718624152092E-12;
1,73241328589283E-12;
6,76952636549892E-12;
8,91858954159311E-12;
8,3531600298219E-12;
9,81413744894926E-12;
1,41347606211462E-11;
2,02506553931381E-11;
2,6021631764761E-11;
2,36842904408392E-11;
1,28053514471536E-11;
-1,61353195746111E-12;
-1,55575195618349E-11;
-2,31679352013303E-11;
-2,20824625430458E-11;
-1,6022347620621E-11;
-1,04845674387773E-11;
-8,22589058166848E-12;
-7,41791102293732E-12;
-5,99812997831042E-12;
-3,831844330399E-12;
1,53652560048336E-13;
5,00430021433121E-12;
7,18335470684083E-12;
6,49835714443325E-12;
7,42504052834242E-12;
1,19604326371795E-11;
1,68391146610976E-11;
2,04494957783023E-11;
2,03186539017297E-11;
1,26101827800234E-11;
1,05331852772876E-13;
-1,16605929602584E-11;
-1,84016101075202E-11;
-1,76215051113214E-11;
-1,28188879327515E-11;
-8,59320859618837E-12;
-6,42055906941218E-12;
-6,25781536246481E-12;
-6,09334408634559E-12;
-4,60372470614146E-12;
-5,4767757063877E-13;
4,33225709982683E-12;
5,43037217506741E-12;
5,2262991437382E-12;
6,63461528980655E-12;
9,28067738269548E-12;
1,44495360003607E-11;
1,78928285849966E-11;
1,61310488355509E-11;
1,03230392904492E-11;
3,62940239685968E-13;
-9,45106967643226E-12;
-1,392094107519E-11;
-1,30093303637307E-11;
-1,04392893747237E-11;
-7,66075649464322E-12;
-5,49216485753781E-12;
-5,8654288143122E-12;
-5,31209559776242E-12;
-3,45345863911097E-12;
-1,16740498168119E-12;
2,06214114740767E-12;
3,65136734085722E-12;
4,29208321108616E-12;
5,24200383219204E-12;
7,6462853763795E-12;
1,15195461125794E-11;
1,41419815065677E-11;
1,44148858113517E-11;
1,0243930411567E-11;
1,8973532695931E-12;
-5,82554394514101E-12;
-1,06054115591504E-11;
-1,09511622140301E-11;
-8,00479758158331E-12;
-6,23482360666687E-12;
-5,22393721854558E-12;
-4,99287345859959E-12;
-5,55773878758894E-12;
-3,45528214784304E-12;
-6,1603785552322E-13;
1,27123419112047E-12;
3,22061983469193E-12;
3,44317869280406E-12;
3,84795549975575E-12;
6,08842171822499E-12;
8,88195406949322E-12;
1,15868360943896E-11;
1,09375498393738E-11;
7,32101611951964E-12;
2,37720793710313E-12;
-3,57803067502828E-12;
-6,75987512087758E-12;
-7,75926140318897E-12;
-7,26981999702409E-12;
-4,73320242975971E-12;
-4,00769925577153E-12;
-4,38790720578944E-12;
-4,17495468032532E-12;
-3,03380314511377E-12;
-5,86254910660466E-13;
3,37233393544138E-13;
9,55022735301591E-13;
1,8500627965521E-12;
2,25939443009543E-12;
4,07313998869165E-12;
6,42120077965448E-12;
8,79228939680102E-12;
9,9898277362101E-12;
7,88883362213392E-12;
3,13536970066237E-12;
-1,50259256324591E-12;
-4,03639068410945E-12;
-5,14967629879225E-12;
-4,36383551309663E-12;
-3,35967940481827E-12;
-4,03230055670924E-12;
-3,4143113524569E-12;
-2,99797623781876E-12;
-3,84356293460024E-12;
-2,29140463856975E-12;
-2,89274692148328E-13;
2,96706551922985E-13;
7,42024712599548E-13;
9,80435189440951E-13;
2,47535039782307E-12;
5,07274397141678E-12;
6,75544862855301E-12;
7,12430067325268E-12;
5,63075726700144E-12;
3,2973229797217E-12;
6,20402896151946E-13;
-1,97837096991271E-12;
-2,20204513302606E-12;
-2,2838263136067E-12;
-2,82649358896061E-12;
-2,54685145348579E-12;
-3,1876551254582E-12;
-3,22590204384702E-12;
-2,92923456739443E-12;
-2,60533218457985E-12;
-1,05766171058957E-12;
-4,64472083934039E-13;
-4,67576759203054E-14;
9,6967691073573E-13;
2,08100989494095E-12;
3,83277786945909E-12;
4,85105387763286E-12;
4,81102638834561E-12;
4,8530354692116E-12;
4,06169930404E-12;
1,65317077950973E-12;
-7,89443369003778E-14;
-8,88281296221923E-13;
-1,61179615352998E-12;
-1,64247654708568E-12;
-1,89046742162054E-12;
-2,57085938240184E-12;
-3,08518402299249E-12;
-2,35884193829679E-12;
-1,15581414520701E-12;
-1,49914665679864E-12;
-1,37350005870824E-12;
-5,26720921506354E-13;
-2,66733788139572E-14;
9,07471047581547E-13;
1,65578024708024E-12;
2,91709352950474E-12;
4,16103428554137E-12;
4,9213383242462E-12;
4,71581154809565E-12;
3,49558295437078E-12;
2,46901099160027E-12;
1,93240113108597E-13;
-5,92581800459915E-13;
-6,02797319534374E-13;
-2,26499961959784E-12;
-2,24390059388263E-12;
-1,57367140562146E-12;
-1,95265811151021E-12;
-1,92344616249293E-12;
-1,00081803257512E-12;
-1,42382545245604E-12;
-2,06104433069873E-12;
-6,00119641550931E-13;
-2,87006885342028E-13;
-5,83255033729908E-13;
1,44544679680524E-12;
3,21623164892917E-12;
3,09052011709433E-12;
3,73968970689409E-12;
4,41961532704984E-12;
3,41222232727883E-12;
2,12684924167809E-12;
4,33949986115325E-13;
-4,36307950454584E-13;
-1,88924452532036E-13;
-4,52969504777463E-13;
-9,78970400321377E-13;
-1,71310765558378E-12;
-2,20814657022373E-12;
-2,06746306860869E-12;
-2,13548873668042E-12;
-2,18386559658106E-12;
-1,04526856841427E-12;
-3,25671718693384E-13;
-4,5899780293824E-13;
1,69552559525779E-14;
1,37161773094798E-12;
3,35832253372799E-12;
4,21992001564335E-12;
4,70639873350683E-12;
5,20440084064036E-12;
3,83095113669824E-12;
1,43929037642595E-12;
-3,81711612866208E-13;
-6,01197735447321E-13;
-7,31361591995252E-13;
-1,77654386368688E-12;
-1,53142364406566E-12;
-1,30372035011552E-12;
-2,47619825202616E-12;
-2,72655115381404E-12;
-1,82945626449759E-12;
-1,07609409247384E-12;
-9,07024658223724E-13;
-1,6864406037676E-12;
-1,72094488578618E-12;
2,01338215297714E-13;
2,53663306095311E-12;
4,51182251845041E-12;
5,28823564904989E-12;
5,24261888259472E-12;
4,22924967073427E-12;
1,32835809379515E-12;
3,62712109642529E-14;
3,69312160973119E-13;
-1,03022309976001E-12;
-1,64382492693275E-12;
-1,27733033052137E-12;
-2,12443321855874E-12;
-2,01617299466607E-12;
-2,58414881042444E-12;
-2,86383465711439E-12;
-1,00608272732239E-12;
-1,56427488221906E-12;
-2,31241915303786E-12;
-1,29356776726338E-12;
-8,13392827271237E-13;
1,30336556187873E-12;
4,37967879300913E-12;
5,21693996738922E-12;
5,93399118840268E-12;
5,60403447287338E-12;
2,53287595218708E-12;
1,12334701083554E-12;
1,02407303882164E-13;
-9,72809335423102E-13;
-7,42101412429096E-13;
-1,78385136381024E-12;
-2,322839904738E-12;
-2,05523101957702E-12;
-2,15029409795549E-12;
-2,10139524763348E-12;
-1,93263295151594E-12;
-1,85742609404117E-12;
-2,37696188921158E-12;
-1,82945356003998E-12;
-4,36211456763319E-13;
1,49282386937007E-12;
4,97572125034936E-12;
6,67355313018354E-12;
6,68064200162014E-12;
6,38714892602968E-12;
3,28880606436001E-12;
1,12525519486642E-12;
1,21091782422594E-12;
-5,58731816825006E-14;
-6,58919759948697E-13;
-1,23493590590029E-12;
-2,42868452045668E-12;
-2,08137224452145E-12;
-2,13187213347376E-12;
-2,4237708935531E-12;
-1,79802092876948E-12;
-1,80989603379405E-12;
-2,55956936497259E-12;
-3,50225330743188E-12;
-2,45692245036559E-12;
1,49927392839731E-12;
5,13036155530021E-12;
7,28193323488841E-12;
7,48244387708806E-12;
5,85937758279463E-12;
3,8283518317767E-12;
1,66292668211117E-12;
6,70170269127207E-13;
8,52344025340684E-13;
1,9874374540348E-13;
-1,24498624588405E-12;
-1,80212557746686E-12;
-2,92246346064806E-12;
-3,54594241682128E-12;
-1,96951945634689E-12;
-2,26873325021292E-12;
-3,02145460357442E-12;
-2,95930144485992E-12;
-3,59707379704482E-12;
-1,93566509766317E-12;
6,90803285989134E-13;
3,31419855186141E-12;
6,87173312199794E-12;
7,83491843037607E-12;
6,02111993807193E-12;
4,24458146024453E-12;
2,63283977580766E-12;
7,44732084212833E-13;
1,86248277286487E-13;
3,5828244281641E-13;
-4,88060590019696E-13;
-1,28122488457733E-12;
-2,25469726184649E-12;
-2,60788611091002E-12;
-2,49335716172036E-12;
-1,86697721534899E-12;
-1,66242612152845E-12;
-3,93392141600297E-12;
-3,63616613554492E-12;
-2,11120393470577E-12;
-8,98483156901615E-13;
3,09806245448022E-12;
6,53990089854962E-12;
7,43131105917281E-12;
5,62705072521891E-12;
3,2899719250232E-12;
1,64728078995453E-12;
8,10980480666323E-13;
1,02578380404814E-12;
6,13560409901433E-13;
2,14669489653121E-13;
-9,22382100134445E-13;
-2,10903753474909E-12;
-2,40067296397262E-12;
-2,05585118416287E-12;
-1,0743000509345E-12;
-2,21705511040541E-12;
-3,54941275597772E-12;
-3,58847794606936E-12;
-2,58184267809551E-12;
2,40984497427252E-13;
2,99958356801904E-12;
5,88965717680755E-12;
6,8777622401544E-12;
5,94716029254171E-12;
4,58078013691291E-12;
2,09744275468583E-12;
1,29717371234933E-12;
5,18231031416423E-13;
-8,39348883652807E-13;
-5,90441813429401E-13;
-1,15456555181328E-12;
-2,12428009613669E-12;
-2,30438682002432E-12;
-2,29527371471995E-12;
-1,7048539940024E-12;
-1,56598812242184E-12;
-2,8010285865447E-12;
-4,11433722180952E-12;
-3,49383540262476E-12;
-2,84574031953148E-13;
3,49166136291144E-12;
6,25131275537286E-12;
7,6218586549451E-12;
6,53766694908427E-12;
4,10662136353073E-12;
2,49109792593224E-12;
1,63022298479928E-12;
1,22307360839006E-12;
7,29826962546838E-13;
-4,20600019121421E-13;
-1,03847168291017E-12;
-1,62163580586535E-12;
-2,37095875411476E-12;
-2,37555419280726E-12;
-2,01508816484517E-12;
-2,05829123023265E-12;
-3,95739372597889E-12;
-4,55242953296304E-12;
-3,12029130953423E-12;
-1,4052074873479E-12;
3,00748543432127E-12;
6,36001519375189E-12;
6,58626497773728E-12;
5,88167477019234E-12;
3,86896435088676E-12;
2,36769293153932E-12;
1,14472363233096E-12;
2,07686717812939E-13;
7,71086419920962E-13;
4,17573511672798E-14;
-1,78812865343714E-12;
-2,24094666697306E-12;
-2,01056134528483E-12;
-1,57952080720966E-12;
-1,37071061632192E-12;
-2,11872603593753E-12;
-2,99025950174704E-12;
-3,59792936691231E-12;
-3,4235529477815E-12;
-1,0872685384166E-12;
3,06347165399392E-12;
6,2279092076421E-12;
6,44640787734765E-12;
5,16102252319609E-12;
3,19631803914909E-12;
1,5020117281791E-12;
1,54575495450848E-12;
1,63777845059359E-12;
1,04888216668617E-12;
6,72704629021814E-13;
-1,07248111105073E-13;
-1,3760752852304E-12;
-1,93058323720126E-12;
-1,92669398431803E-12;
-1,83212460995681E-12;
-2,15227914114497E-12;
-3,57380832517617E-12;
-4,49937490294355E-12;
-3,15133289973981E-12;
-4,88962010660205E-13;
2,07041179901283E-12;
5,06218067559021E-12;
6,22481328847679E-12;
4,99914955690946E-12;
4,40323607464532E-12;
2,00551076413361E-12;
9,24344759549909E-15;
1,96895178189443E-12;
2,02008892998348E-12;
-2,10338017156825E-13;
-1,20999955423599E-12;
-1,47490986277039E-12;
-1,16523617061179E-12;
-1,18783060763231E-12;
-1,4646487669105E-12;
-1,70961955738964E-12;
-2,72131399690506E-12;
-3,76755936860532E-12;
-2,98485518838611E-12;
-2,97106172459807E-13;
2,31683408085929E-12;
4,50484354703106E-12;
5,07181353305081E-12;
4,72742603285512E-12;
4,84882320083276E-12;
2,25492820041635E-12;
6,81581425759034E-13;
2,62642668930022E-12;
2,12946215056554E-12;
5,51431305217947E-13;
-4,01727344944104E-13;
-1,85068089395239E-12;
-1,53899662261171E-12;
-9,9410778323073E-13;
-1,32546422063775E-12;
-1,68018443542277E-12;
-2,84451111193521E-12;
-3,68062595725637E-12;
-2,94334525265854E-12;
-5,76465982194369E-13;
1,8939368203364E-12;
3,61584152635208E-12;
5,34315278560502E-12;
5,18994999272152E-12;
3,50943822765028E-12;
2,33718989558639E-12;
1,19734449387897E-12;
9,86531923111989E-13;
1,31309533368633E-12;
2,37112545704854E-13;
-6,49170854120043E-13;
-7,45259224493322E-13;
-1,55678084511645E-12;
-1,80809209629562E-12;
-1,52776896397537E-12;
-1,74765651324186E-12;
-2,56984091746438E-12;
-3,28226763355753E-12;
-2,34491653773501E-12;
-6,34259020659953E-13;
1,86097625628791E-12;
4,3815939500965E-12;
5,32311717624568E-12;
5,01841253765243E-12;
3,43663961901577E-12;
1,85835038509281E-12;
1,21213092604491E-12;
1,03462873209138E-12;
9,85399222148054E-13;
3,41946595348924E-13;
-5,52105856437436E-13;
-1,26420139314478E-12;
-1,87487347989549E-12;
-1,09081890338632E-12;
-6,79826552619364E-13;
-1,65812315803479E-12;
-2,18831065205176E-12;
-3,0701863846292E-12;
-2,68309216778188E-12;
-5,91938248596439E-13;
1,4962839406398E-12;
3,78008319322465E-12;
4,86914881784559E-12;
4,09190890574135E-12;
2,72787224480812E-12;
1,66339875637713E-12;
1,21475959744319E-12;
1,37130167264111E-12;
8,93137093397209E-13;
3,0055819103977E-14;
-3,95047668321855E-13;
-9,98125147840432E-13;
-8,50084369725271E-13;
-5,33721893947622E-14;
-2,83704593626451E-13;
-2,03244470199366E-12;
-3,74321318770834E-12;
-3,55738693810274E-12;
-1,9711411413822E-12;
-3,5244373947546E-13;
1,13660110327662E-12;
3,49246289785746E-12;
4,42683885988032E-12;
3,03481963213682E-12;
2,43204935066296E-12;
1,94257661313977E-12;
1,77368898609969E-12;
1,46374942300969E-12;
6,40112022442808E-13;
1,48414316998425E-12;
7,03732424226505E-13;
-1,25455442053998E-12;
-1,16105602358556E-12;
-9,34587997932506E-13;
-9,37201246908721E-13;
-1,54019537566496E-12;
-2,29762953742203E-12;
-1,9052392201972E-12;
-1,84654856129842E-12;
-1,08266644934315E-12;
7,94166144017256E-13;
2,68923644274213E-12;
4,29146156326487E-12;
3,44207446226254E-12;
2,14190687383014E-12;
1,56235270524364E-12;
3,27133030041815E-13;
1,0795291213711E-12;
2,21384565760489E-12;
8,97092852200161E-13;
-3,87019556656473E-13;
-7,70768115181621E-13;
-8,43252016594334E-13;
-1,17702827437694E-12;
-1,31600866974827E-12;
-7,92049803170709E-13;
-1,86608230602194E-12;
-2,85885578127538E-12;
-1,98684094469512E-12;
-1,79433857627317E-13;
1,14063841571971E-12;
1,93154499586298E-12;
3,90960368283779E-12;
3,15820131888308E-12;
1,67895496284179E-12;
2,07100731982854E-12;
9,2189545086619E-13;
1,13510346649202E-12;
1,29462884296079E-12;
6,95356132683199E-13;
7,82720800084388E-13;
-6,85083922497164E-13;
-4,79309613403208E-13;
2,16461795671624E-13;
-4,95341530635997E-13;
-5,42473121778467E-13;
-1,64746194105482E-12;
-2,25037921019351E-12;
-1,81824701457974E-12;
-1,29498465015688E-12;
6,3383563314655E-13;
2,57791233853054E-12;
3,27098730848526E-12;
2,32463870828847E-12;
1,47506716255035E-12;
1,41980755517954E-12;
1,55521376926189E-12;
1,72232911452315E-12;
7,30236595587788E-13;
9,20590943723076E-13;
1,03643432087084E-12;
-4,0949606850613E-13;
-4,93999146942807E-13;
-9,90662517454388E-13;
-1,43124595955837E-12;
-4,30407006968184E-13;
-8,29763057853584E-13;
-1,85396611720546E-12;
-1,5548799844935E-12;
-7,91942596519375E-13;
3,4537017543039E-13;
2,40984642084136E-12;
3,08799396177348E-12;
2,08257257623075E-12;
2,3555032806866E-12;
1,98135235454971E-12;
9,71092551291764E-13;
1,70184423991324E-12;
1,60804120776527E-12;
1,04785464054351E-12;
4,63265425114269E-13;
-7,23836999665068E-13;
-3,64317441203282E-13;
-1,36900384834635E-13;
-4,16502547980396E-13;
-3,10378666000117E-13;
-1,28866277386996E-12;
-1,59358369032817E-12;
-1,50958221040254E-12;
-1,25662936745995E-12;
8,80171398099183E-13;
1,80617303478466E-12;
1,81011827500941E-12;
2,16268873996615E-12;
1,17293998746195E-12;
1,09124604254984E-12;
9,17468597271507E-13;
5,38156395605646E-13;
1,40744641695519E-12;
8,72059573344835E-14;
-5,02499716267635E-13;
9,16359016752976E-14;
-5,32728673673958E-13;
4,11514714372323E-13;
-5,89364379965365E-14;
-8,36956080736373E-13;
-3,94846277831361E-13;
-1,63950079326034E-12;
-7,85846526203173E-13;
1,706374907739E-13;
1,29818297514348E-13;
1,83895659720151E-12;
2,12017991298331E-12;
2,16614568051281E-12;
2,01434842830229E-12;
9,74431721757206E-13;
7,1519316934227E-13;
5,87300550497505E-13;
1,00597753820076E-12;
4,37339597717043E-13;
-7,80675642886204E-14;
4,08653956870396E-13;
8,14075969754163E-15;
-7,27751464328303E-14;
-2,44199962056721E-13;
-1,52588451455367E-13;
-3,68312021026247E-13;
-9,9997019800856E-13;
-4,36934672910036E-13;
-7,87363425364084E-13;
6,31290226039044E-13;
2,83531740260856E-12;
1,90132396999851E-12;
2,0741675603854E-12;
1,78992211809558E-12;
4,52871056159116E-13;
1,03875724856996E-12;
6,99793058695054E-13;
6,73364600983557E-13;
8,0794898352784E-13;
-2,90495235498089E-14;
2,82103838968658E-13;
2,28433130970198E-14;
-9,24723795936236E-14;
-2,27048627812963E-13;
-1,27753762482029E-12;
-1,0132766123011E-12;
-9,14918703351222E-13;
-9,83606708697505E-13;
-3,27116700951358E-13;
3,5235205516127E-13;
1,05106648583371E-12;
8,01424852696868E-13;
1,18384693875079E-12;
1,48296558555533E-12;
5,08019317794376E-13;
1,20622512164384E-12;
1,12248075254092E-12;
-2,38556601163793E-14;
7,15513709662969E-13;
2,62997109527566E-13;
-5,23665851988661E-13;
2,86643284417968E-13;
4,8674420143848E-13;
3,8271876105213E-13;
8,58131542349787E-14;
-4,07797216898446E-13;
-9,50110349911396E-13;
-8,8526654469263E-13;
-6,17612078830417E-14;
-1,04152558292415E-14;
1,08235323411038E-12;
1,76920868735033E-12;
6,68587973769245E-13;
7,58489499585205E-13;
1,06401709986151E-12;
7,59370020327322E-13;
3,35549459199462E-13;
8,64509933462445E-14;
3,6909707077734E-13;
5,64714094325474E-13;
2,5195466672899E-13;
-2,1174292934706E-13;
-1,03694197575273E-13;
1,13525386968596E-13;
6,56811975375584E-14;
-6,88711359608261E-13;
-1,3249094323084E-12;
-6,23072287028174E-13;
-3,15599771396281E-13;
-5,77584405084865E-13;
2,50728126319184E-13;
1,54033416964307E-12;
2,06677562639E-12;
1,34821848903285E-12;
1,91688521950383E-13;
4,78704216585607E-13;
6,71695455710219E-13;
-1,68141401372338E-13;
2,95672092641772E-13;
7,89365109312302E-13;
1,25709659017163E-13;
2,22473851396532E-14;
5,2531099948413E-13;
-2,12382968795574E-13;
-1,29845095111392E-12;
-3,99668392074075E-13;
1,62882305279837E-13;
-1,82850518752581E-13;
-3,7906531071952E-14;
2,11038154075614E-13;
1,07677637994809E-12;
1,42582566935229E-12;
1,13254010627913E-12;
7,41808189206255E-13;
5,54765643987554E-13;
1,10898173815084E-12;
6,139201134794E-13;
3,01987903274554E-13;
9,6227989486256E-13;
4,78563229247815E-13;
2,84345968276682E-13;
3,9883791591581E-13;
-2,13741737689433E-13;
1,46441585330227E-13;
4,92953832141838E-13;
6,49030241842555E-14;
-8,49356091497878E-14;
-3,580230701354E-13;
-3,26531351196804E-13;
-1,75203148698951E-13;
2,62409454433792E-13;
1,20704354091355E-12;
8,14397026659754E-13;
3,00445693646226E-13;
5,14663732026091E-13;
-3,91698886334907E-15;
1,50048134785151E-13;
6,62125688427828E-13;
5,44213513218801E-13;
9,27710536709018E-13;
1,05449834193918E-12;
7,53870490720957E-13;
5,67314616199098E-13;
1,85599475301462E-13;
1,88223102105056E-13;
-4,3181908541504E-14;
-5,17354592746453E-13;
-1,04313983708375E-13;
-5,81563684292362E-13;
-7,27935152249855E-13;
5,81062970701556E-13;
1,02851591168296E-12;
1,27565592573353E-12;
1,39942380951011E-12;
1,14214511413237E-12;
2,35258224443796E-13;
-1,77973240324777E-13;
4,93138982735475E-13;
1,57470721528431E-13;
4,23249128573328E-13;
4,90567194948928E-13;
1,6638148304207E-13;
4,34275178947017E-13;
-3,49888094679866E-13;
1,60723548571446E-13;
4,60814061769053E-13;
-4,06318731400081E-13;
3,52413304560751E-13;
1,11295962125239E-12;
4,42603041570642E-13;
-3,27621604310281E-13;
6,36583641929256E-13;
8,86254232845864E-13;
2,73143953175515E-13;
1,05263867521305E-12;
9,47343521451663E-13;
9,99891636643984E-13;
1,44244372824402E-12;
1,72573716699396E-13;
1,18146346993807E-13;
1,03222183548114E-12;
4,45436731151572E-13;
-8,0466635181262E-14;
2,9836900459452E-13;
9,71364526646856E-13;
2,62321594599537E-13;
-6,30787858662148E-13;
-2,1831846715345E-13;
2,9313265208781E-14;
2,44228254531355E-13;
3,54942948939695E-13;
3,99012738993821E-13;
-1,61025099880402E-13;
-2,33007485960299E-13;
8,47082841019468E-13;
5,78294115959288E-13;
3,51089900680567E-13;
8,8791974046777E-13;
1,08947313053897E-12;
9,37544090182538E-13;
6,99456158465842E-14;
-7,21314062035854E-14;
-2,47613258861901E-13;
-6,77508923792805E-13;
2,48406698144686E-13;
1,48104728061006E-13;
-2,49610135898776E-13;
6,52786751669727E-14;
-5,8515398034363E-13;
-1,77105970442604E-13;
5,21717612688988E-13;
2,52601174251597E-13;
-2,34077602702887E-13;
-2,20726660274942E-13;
6,56197835460041E-13;
3,33092946369734E-13;
5,72058321580782E-13;
6,67606549629102E-13;
-1,76158869904676E-14;
1,16553502853995E-12;
1,39526071832979E-12;
6,40877888706554E-13;
6,30237522050831E-13;
1,07569697775285E-12;
7,86584022283783E-13;
-1,26696119356171E-13;
1,4758081162826E-13;
2,71267614082201E-13;
2,85139322638258E-14;
1,53539696838326E-14;
2,86677665918741E-13;
4,56964793410298E-13;
2,13007823201049E-13;
6,44410102803822E-13;
1,02841299420547E-12;
5,8436241387784E-13;
9,3140308567881E-15;
4,08658212453816E-13;
6,67981021215173E-13;
-2,07190010113807E-13;
-2,29452529961459E-13;
-1,89376210219807E-13;
-5,78887600901033E-13;
-8,39900947534007E-13;
-3,16533209108438E-13;
1,14948255373417E-12;
5,09686554704997E-14;
-9,95378817297139E-13;
2,88007303526167E-13;
3,27286790119471E-13;
4,04586120694674E-13;
8,49577463884029E-13;
2,6164692692328E-13;
3,27323444575623E-13;
9,31184108871407E-13;
1,0308520425324E-12;
6,6290197153955E-13;
6,37386566865933E-13;
1,36912304679513E-12;
9,58053951908995E-13;
2,25153331532027E-13;
6,63764895188183E-13;
7,47140703518494E-13;
1,04989975153664E-12;
7,4233029196315E-13;
-1,95453212502187E-13;
5,51642983843387E-13;
-7,23498424510923E-15;
-8,38679407572941E-13;
2,0775713302386E-13;
-6,88862386311403E-14;
4,62210576401015E-14;
9,25238162106522E-13;
3,38077783990113E-13;
-1,36774418114532E-13;
5,17939569495629E-13;
7,06612485781745E-13;
1,60019261227007E-13;
-8,24100147236134E-14;
-7,70514082632345E-14;
5,20655009271876E-13;
4,58681942592709E-13;
8,84519538327707E-14;
5,89485737778454E-13;
2,13700798415509E-13;
-2,65605842041718E-13;
2,49696636878784E-13;
4,81941611695286E-13;
4,3903162615322E-13;
6,23615964724612E-13;
6,23681704942748E-13;
4,01755457040282E-13;
5,14247113854466E-13;
9,50680360323536E-13;
4,63538332760438E-13;
-2,77240522969754E-13;
-4,83854591662941E-13;
-1,91800892990875E-13;
9,16707043506809E-13;
7,52866013017599E-13;
-2,04955472370254E-14;
-2,02218901755092E-13;
-2,9972007833517E-13;
4,62957779334235E-13;
3,54409965164685E-13;
-4,90624848997513E-13;
2,01602746024909E-13;
4,7216941105542E-13;
1,02995596156954E-13;
7,10849018321966E-13;
-1,84616937726786E-13;
-5,11764631188955E-13;
1,22181761868655E-12;
3,10820539897407E-13;
-5,96731584758345E-13;
4,87168730386775E-13;
3,14510742068426E-13;
6,55684487083206E-13;
7,63378188944022E-13;
-4,87739075467275E-13;
1,39658999246323E-13;
1,15647217982463E-12;
6,69963651444945E-13;
1,85908507671167E-13;
3,72087885106953E-13;
4,47166695882455E-13;
7,64195757454002E-13;
1,75055177788093E-12;
9,75836495386559E-13;
-6,15394504822444E-14;
2,82940982857706E-13;
-4,45113769137218E-13;
-7,22174914776216E-13;
4,60685187657174E-13;
1,05957980189033E-12;
6,95824443811922E-13;
7,63299005180089E-15;
3,12614402914893E-13;
1,11776713267011E-12;
8,06380067600678E-13;
3,81512371346161E-13;
4,99256231367164E-13;
7,61827487998943E-13;
1,34104208438873E-12;
1,09710838358035E-12;
4,79064152351174E-13;
1,03149511987516E-12;
8,49958890216572E-13;
2,51580477511141E-13;
8,50020410077076E-13;
1,30433565498246E-13;
-6,77591341183116E-13;
4,24572181125888E-13;
7,3579042385757E-13;
6,89996819307481E-13;
8,5325063593648E-13;
3,13720870477888E-13;
1,42047064706174E-13;
5,70225677448792E-13;
1,05996408915516E-12;
5,43191307290017E-13;
3,96250245527327E-13;
1,5019895670948E-12;
7,30244548430515E-13;
-1,8611580074077E-13;
4,04853893805811E-13;
6,85546238233259E-13;
7,52473366633054E-13;
1,39621961442288E-14;
-5,10222331142166E-14;
1,22278340786375E-13;
-1,87226881430562E-15;
1,17410854902414E-12;
8,75004334114085E-13;
-2,69140135812852E-14;
1,57687725233561E-13;
5,31498327045031E-14;
4,24106533287849E-14;
-1,20669167208691E-13;
4,73713560790065E-13;
9,26177530640398E-13;
4,6361415153954E-14;
1,4950033415244E-13;
4,58458969312407E-13;
2,47614676891991E-13;
5,49522193430183E-13;
1,01804664229482E-12;
8,9894443197174E-13;
1,76089707983258E-13;
3,57625694705681E-13;
7,00488367015271E-13;
1,71256508054545E-13;
-3,70583592761297E-13;
7,98151005788331E-15;
6,18930787736583E-13;
2,27561323578793E-13;
6,99095993206712E-13;
7,95888906461025E-13;
-2,84952894857745E-13;
3,17973034632862E-13;
1,09504485318855E-12;
6,44866653440507E-13;
-1,45128576600265E-13;
-6,30144921645569E-14;
8,02626944978884E-13;
6,96919781976077E-13;
7,53064781447954E-13;
1,17420970745165E-12;
4,32555509508212E-13;
1,09867622395553E-13;
2,40493314927557E-13;
-3,92627902967994E-13;
-7,04594922432843E-14;
4,73030271779025E-13;
2,97470077320708E-13;
3,67798251910482E-13;
7,50729235675626E-14;
4,28592685084938E-13;
7,45623987066813E-13;
3,44359768599447E-14;
2,38852426032139E-13;
4,88312453673488E-13;
2,26407764351526E-13;
4,99753444414709E-13;
8,34801205369489E-13;
7,57046025121251E-13;
1,77755236387709E-13;
-3,77930321016975E-14;
2,27750750437316E-13;
-1,33379203445389E-13;
-5,35089265570171E-14;
3,01353411800583E-13;
-4,47008568539046E-13;
-8,48146399910165E-13;
-9,45996279755975E-14;
3,05886584555768E-13;
2,49470273727383E-13;
7,1744129505701E-13;
2,50538456147092E-13;
7,11484262693987E-14;
1,24014096371273E-12;
1,35606742041514E-12;
1,31020586858777E-12;
1,06723046109877E-12;
3,61376608701479E-13;
-5,45056960436589E-15;
4,3668068712651E-13;
1,25095885140821E-12;
6,86186633512343E-14;
-4,21550412065639E-14;
6,73734563224755E-13;
-2,71927536365125E-13;
1,19848129487962E-13;
-6,63187481596145E-14;
-2,17578029603173E-13;
1,09572584832167E-12;
4,81037459534734E-13;
-2,46139147345919E-15;
1,08525732272261E-13;
-2,05896334759488E-13;
6,50220824596783E-13;
6,77351143147714E-13;
2,85742173355259E-14;
-2,30091169958647E-13;
-2,33086117547456E-13;
4,30417508967325E-13;
4,1150476081718E-13;
4,29240526253915E-13;
6,68400740696346E-13;
4,19953892667266E-13;
2,26891251259559E-13;
5,62219408282187E-13;
9,90422955326363E-13;
5,97989455146267E-13;
1,96125089735818E-13;
3,59404896705029E-14;
6,53528506042832E-13;
7,93487122600487E-13;
5,93204826324579E-14;
4,75121868958978E-13;
3,71937176606626E-13;
7,24777233596292E-13;
1,51484176021309E-12;
5,50512053968562E-13;
3,91174870474161E-13;
3,67358328246256E-13;
-1,28268759268375E-13;
8,57627133769919E-13;
1,24214419078949E-12;
4,27802613426376E-13;
-2,08144701690267E-13;
-3,19911470074027E-13;
2,80276313584678E-13;
2,47595144636117E-13;
9,43051525249892E-14;
9,98127967004292E-13;
7,86233280040796E-13;
-1,92856539718701E-13;
2,19113711221066E-13;
4,62456492293433E-13;
5,5944477522644E-14;
2,57177818395108E-13;
4,02943887710162E-13;
3,91884326869997E-14;
7,51389567917172E-14;
6,4627465130484E-13;
9,46078093106573E-13;
1,0284581589768E-12;
6,72827560026984E-13;
3,68783574685865E-14;
-5,08293191273584E-13;
-3,09864539290603E-14;
8,15781541607472E-13;
-3,25704376698854E-13;
-8,17147808645472E-14;
1,05422164014807E-12;
1,65484783361412E-13;
5,23697008046819E-13;
1,26187783067658E-12;
4,36970297971321E-13;
2,64990912269648E-13;
7,48617709176178E-13;
3,28085843442275E-13;
6,09412750028906E-13;
4,03271057869619E-13;
5,87608742159522E-14;
8,00177643295989E-13;
2,40765209539834E-13;
7,52176247974436E-13;
6,23456658882941E-13;
5,86143132506597E-14;
8,50859313718804E-13;
1,45022828674171E-13;
2,46728307488798E-13;
4,92587025040772E-13;
-3,09538867594832E-14;
1,03057975058459E-13;
8,1932189621556E-13;
1,46927344781014E-12;
8,80959893597838E-13;
5,44117402752609E-13;
1,94848287588793E-15;
-2,38404361782713E-14;
1,403014053073E-12;
1,29137258886518E-12;
1,14360037645197E-12;
1,18865820847036E-12;
-1,33275146782458E-13;
3,5031762498011E-14;
7,84175737448249E-13;
1,58162406631528E-13;
-3,74543008961587E-13;
-2,53703373209864E-13;
-2,20510421551755E-13;
-4,88351514036744E-13;
-1,07713844168138E-13;
2,43605487714508E-13;
2,71822777534861E-13;
5,41493156816664E-13;
5,75644826564816E-14;
1,03405770675206E-13;
7,33760881181641E-13;
5,27309463686336E-13;
-4,93783343857422E-14;
-4,14811511695019E-13;
1,02328796887287E-12;
1,23783733585414E-12;
-2,75350211809044E-13;
4,04956344251561E-13;
5,82287872019458E-13;
3,38913229179544E-13;
6,80779617114829E-13;
2,08846439005641E-13;
7,98300684099026E-13;
8,6105284679831E-13;
-2,45979897611774E-13;
3,98877248563986E-13;
9,75697882392136E-13;
5,40120689312626E-13;
7,31997502686483E-13;
9,4741557109219E-14;
-3,22204217459945E-13;
5,11428356431187E-13;
5,0469404075747E-13;
3,51194613403435E-13;
5,31174922026478E-13;
4,66584759678433E-13;
3,70022938399389E-13;
4,92101107303353E-13;
4,71151684072785E-13;
3,83696403201371E-13;
4,30886673884161E-13;
8,48725064405165E-14;
4,22914457523418E-13;
5,81651325840743E-13;
3,3628635830436E-14;
1,27108931059838E-13;
-5,57636165082895E-14;
2,60976147686888E-13;
1,54657347208912E-12;
8,14938820013611E-13;
-3,81783149070769E-13;
9,85912481822424E-13;
1,04855922342918E-12;
1,39453651361945E-13;
6,67802979765259E-13;
-4,88165204628861E-14;
-1,06803019579174E-13;
4,11101213202037E-13;
-2,74649104183957E-13;
1,7270648619557E-13;
3,4770719632347E-13;
9,0263314368232E-14;
6,91335937902835E-13;
8,27437932558608E-13;
9,26133906584836E-13;
6,8233546796938E-13;
1,12331086869449E-13;
2,36635265203778E-14;
-1,14171225581668E-13;
6,64511151580723E-13;
1,4425077407567E-12;
3,74957215223294E-13;
-4,9873902917739E-14;
1,01421475566646E-12;
6,24861555175502E-13;
7,70006287580483E-14;
6,01329490560358E-13;
2,30408065845534E-13;
5,17517155431479E-13;
5,87986823036127E-13;
-3,37234870099201E-13;
3,93168919952644E-13;
4,51840528590643E-13;
1,38301974116445E-13;
1,10469254217299E-12;
6,13270473715853E-13;
-7,62820368062901E-14;
4,24466361193062E-13;
4,55630375923351E-13;
-3,27211031724997E-13;
-1,31883641770275E-13;
8,20913656500708E-13;
4,19500771408508E-13;
3,74410409263989E-13;
6,96862833444821E-13;
7,68113905124046E-14;
8,37226213445081E-13;
1,91648293561232E-12;
9,84524482470227E-13;
-4,05752124476924E-14;
2,9242600640483E-14;
3,06984338531294E-13;
9,27090796026716E-14;
6,50350719009225E-13;
9,0039042337932E-13;
2,38601009666127E-13;
1,3217246412183E-12;
1,02647571730722E-12;
-2,35547606519779E-13;
5,89567474474565E-13;
8,27873170080628E-13;
2,38437869830738E-13;
1,90256310478938E-13;
5,06176029802971E-13;
2,73290163743571E-13;
5,91378656382451E-13;
7,28129586823614E-13;
4,39244246681035E-13;
1,15987600714802E-12;
7,51389373933361E-13;
4,65247143861345E-13;
1,88520741876989E-13;
-3,6194959546796E-14;
6,40943548071345E-13;
7,82987544604887E-14;
2,58524470706914E-13;
5,64120697765138E-13;
2,41579242070188E-13;
1,6796964965146E-13;
4,09285041094675E-14;
8,15181733991936E-13;
7,07441381924169E-13;
3,58889152784421E-13;
8,25695142736644E-13;
6,90601669676444E-13;
9,24448188973228E-13;
6,26219419952829E-13;
1,09700012021873E-13;
7,46950419877134E-13;
8,66216009421377E-13;
1,13997309762474E-12;
7,41908540493839E-13;
1,42877406013517E-13;
9,32468214136776E-13;
4,17304852835139E-13;
2,21986506607765E-13;
4,54294192410104E-13;
-4,35239814638713E-13;
-3,87610414792806E-13;
-3,39299094057653E-14;
-5,22303185115511E-14;
-7,64695735403176E-14;
3,07124431007085E-13;
2,50457101034068E-13;
2,21395406374724E-13;
8,94828838391906E-13;
-5,95811660281111E-14;
5,33801306059743E-14;
5,57982034794138E-13;
-5,59503966651982E-13;
1,5386987383009E-13;
2,67832281884453E-13;
-1,17749868108094E-14;
3,71856166563291E-13;
-3,32897489894584E-13;
1,11615318612158E-13;
6,21250843814879E-13;
4,24029917780082E-13;
8,54672043353649E-13;
9,51287314024047E-13;
2,36852811128303E-13;
1,55297932047604E-13;
1,12890124082904E-12;
8,38103476229262E-13;
1,37782143585015E-13;
4,11239432921175E-13;
3,4283017952795E-14;
1,28526733072811E-13;
3,66351299950089E-13;
-5,27498703161078E-14;
3,31180656329375E-13;
1,57714363247626E-13;
1,95602832905414E-13;
7,8374988626267E-13;
6,73717914565305E-14;
-6,58828812971625E-13;
-1,3883079789119E-13;
8,82290659873634E-13;
8,32880956624817E-13;
2,35228889781912E-13;
3,50132926890517E-13;
6,19243821399007E-13;
6,68903537372529E-13;
9,53678510696795E-13;
8,42031032897635E-13;
4,09676364622401E-13;
4,60938135394455E-13;
-7,12745418541197E-14;
2,06364420349986E-13;
7,84827859739564E-13;
9,36822474442559E-14;
3,78968082147414E-14;
-3,04783887833808E-14;
3,52087680348322E-13;
3,33410007940326E-13;
-1,07862528883276E-13;
7,02799036852828E-13;
1,10074121987222E-13;
1,66966833806574E-13;
9,3126470236347E-13;
4,16798524887342E-13;
7,01494108947103E-13;
5,75477937468433E-13;
7,21980982504265E-14;
3,77369571122109E-14;
4,2740233318405E-13;
7,71175057818019E-13;
3,14105899126866E-13;
3,24879893838299E-13;
3,03470727811159E-13;
1,78989770338109E-13;
2,41791029897413E-13;
3,15552991044531E-13;
7,74212798959153E-13;
4,21834341344563E-13;
3,34258231790981E-13;
7,47254792127712E-13;
3,08438377736875E-13;
-3,71937840846234E-16;
5,73628374196793E-14;
3,17119122977949E-13;
5,33701140634713E-13;
5,78313373446877E-13;
4,07127465134697E-13;
5,67277891779272E-13;
7,16186838463334E-13;
-1,24858482295515E-13;
1,18859391643261E-13;
9,50311300533396E-13;
1,18759925570671E-12;
8,19994688101144E-13;
-3,58015803382084E-13;
2,79778937454656E-13;
1,34190620190215E-12;
1,26100891337046E-12;
9,59565773457981E-13;
-2,34281748570231E-13;
-3,3552353775082E-13;
3,28667801074525E-13;
3,11671003806538E-13;
5,3411877802797E-13;
-3,20703812811036E-15;
-9,50939354511715E-14;
5,12531738580621E-13;
-2,78307416031321E-13;
-3,45155305087153E-13;
6,79771567797047E-13;
6,88547006087984E-13;
-9,74948406197013E-14;
-1,73518016490655E-13;
2,31556150887132E-13;
1,66586951900483E-13;
5,78584729501675E-13;
3,89582508541112E-13;
6,16540430750764E-14;
5,43946137608999E-13;
5,47909753902629E-13;
2,25133374681405E-13;
4,11721525768561E-14;
4,67492197199947E-13;
3,66968794156634E-13;
6,99626991028617E-14;
1,15399597168898E-13;
6,02238284476668E-13;
1,54003326761142E-12;
6,46820520675873E-13;
-3,40287417799276E-13;
-1,29814979619082E-13;
1,39826606818991E-13;
4,06012795615817E-13;
3,35686912533803E-13;
6,26312604976977E-13;
8,28779350974985E-13;
6,44164230765456E-13;
3,74267201520053E-13;
-4,1728001768752E-13;
-3,45571817141218E-13;
4,75449048022926E-13;
2,39049632024062E-13;
4,60203608403361E-13;
5,01294141047338E-13;
-5,57645453768256E-13;
3,60979757843163E-13;
1,04039912082138E-12;
4,98561354063316E-13;
4,32840084086657E-13;
6,16516226448537E-14;
6,5889995679637E-13;
5,50403078211176E-13;
1,93569573096385E-13;
8,81875082515487E-13;
4,5628165775473E-13;
4,29527512445077E-13;
4,54457338163792E-13;
2,18040996741042E-13;
8,42247223886368E-13;
2,51434644519624E-13;
-1,14554049125436E-13;
7,07477575712086E-13;
5,29507387606356E-13;
3,3363769807492E-13;
6,4500567003561E-14;
-2,47477280486002E-13;
2,05763467412987E-13;
5,94703024127676E-13;
6,50218385106124E-13;
1,026255831319E-13;
-2,75367098868058E-13;
-1,64995983175418E-13;
5,40380387305488E-13;
7,97161468825844E-13;
-1,09268918322931E-13;
6,65840117840891E-14;
3,81661868703134E-13;
3,21557141015421E-13;
6,26306422107284E-13;
4,51462782459663E-13;
5,53998832612716E-13;
2,58409386977124E-13;
-3,87388225108018E-13;
2,50601911964636E-13;
5,26846314501891E-13;
-3,97187493797719E-14;
1,22613254082213E-13;
4,77620405860612E-13;
7,70943004436387E-13;
1,04960635995319E-12;
5,37700681877631E-13;
-1,93074701680465E-13;
-3,10013156250875E-13;
-1,19818128059449E-13;
7,75480672157641E-13;
8,48896235275679E-13;
-2,8080243969579E-14;
8,71488320137147E-13;
7,49921497432736E-13;
1,13633020590409E-13;
8,14594342623731E-13;
-3,90368890093958E-13;
-1,29586213134201E-13;
1,43181998283464E-12;
-1,22977558260274E-13;
-3,93477064550619E-13;
2,60609456738667E-13;
-5,53657016142614E-13;
3,63811906044509E-13;
6,67325504486192E-13;
3,17172549894971E-13;
6,31249752506089E-13;
2,72206374589946E-13;
7,65006004294494E-13;
2,2857991582168E-13;
-3,2429814624638E-13;
6,00404523928555E-13;
5,58131281280503E-13;
5,57591078471619E-13;
5,60397924171034E-13;
2,27415361096523E-13;
1,17854137156633E-13;
6,51432993065196E-13;
1,06066234005254E-12;
5,42918368460002E-13;
2,89397828366135E-13;
1,33697274075661E-14;
1,24024880592778E-13;
2,59771350870902E-13;
-4,17228886440108E-14;
7,7127132042658E-14;
3,58896125651699E-13;
6,24932181761829E-13;
8,51700086674792E-13;
9,70588221698677E-13;
4,23175673119333E-13;
5,947673343661E-14;
5,23792306522554E-13;
3,15170315517521E-13;
8,73789211118469E-14;
4,49872771508172E-13;
3,42608450992988E-13;
5,4288490245962E-13;
4,69454058664772E-13;
8,22794747277783E-14;
2,39704484537725E-13;
1,24034232451899E-13;
1,0541739853451E-13;
-2,47308727570496E-13;
-1,2910103072057E-13;
7,74935527346637E-13;
6,73067901227463E-13;
5,5828004797267E-13;
8,35934974001694E-13;
4,79510060339903E-13;
1,60821326642134E-13;
6,44364387613466E-13;
6,12591703728567E-13;
2,10675538172129E-13;
8,09857684606221E-13;
7,92796008531656E-13;
4,81823236934804E-13;
7,97929480304784E-13;
5,77671743064232E-13;
5,05811956718784E-13;
6,12513240444659E-13;
1,75611968272848E-13;
2,96152766687295E-13;
1,10087800537375E-12;
6,89731221484207E-13;
1,20223908485212E-13;
4,68530157719553E-13;
5,70127476866928E-13;
6,81074316387055E-13;
2,86436831426378E-13;
1,51655066267916E-13;
3,08075126890841E-13;
2,76889840460524E-13;
6,0820661978525E-13;
-5,09712795872749E-14;
4,05850020704797E-13;
9,38406673423872E-13;
-2,93748114724029E-13;
5,26526106667861E-13;
1,14947211398832E-12;
4,34384803621468E-13;
7,2980077347892E-13;
2,52615819634663E-13;
3,95000798532003E-14;
6,77159081605247E-13;
3,23941444344648E-13;
1,22769034615737E-13;
-3,03355137987326E-13;
-6,53371798761374E-13;
1,46288802556534E-13;
8,39845503872882E-14;
3,38892549667422E-13;
8,66518765431426E-13;
1,44905998224118E-13;
3,03193993624399E-13;
1,08709276490172E-12;
6,14580004253126E-13;
-3,6634268238117E-13;
-7,60325479455381E-14;
4,04814628375539E-13;
3,95607829301875E-13;
3,91237074886712E-13;
2,32746866040391E-13;
1,06595007459165E-12;
1,01201457643484E-12;
1,65331957409835E-13;
7,06455738105351E-13;
3,88053369375071E-13;
-2,67625832568325E-13;
-2,69154456693827E-14;
1,71417230481266E-13;
3,39819185912443E-13;
5,51569179139896E-13;
5,67550063569987E-13;
1,72951548558601E-13;
9,42650732989148E-13;
1,37994889072011E-12;
-3,01870508353826E-13;
-8,73297700411176E-13;
4,41147708247279E-14;
4,41585949802002E-13;
4,52433958485894E-13;
8,32309150701307E-13;
1,01431484439442E-12;
8,96220272671822E-13;
1,07290183442838E-12;
1,97620605818947E-13;
-8,26839873688972E-14;
7,85818127829935E-13;
2,3920024345527E-13;
8,90171668185471E-15;
2,07010105971786E-14;
-3,01026326677216E-13;
3,14771260920834E-13;
2,8606187990296E-13;
-3,62022688656116E-14;
8,91905869067881E-13;
1,29650057074056E-12;
1,18635311742151E-13;
-4,42066919449118E-13;
3,43333910935494E-13;
6,91761225893272E-13;
6,52789881076054E-13;
5,54666612858372E-13;
-1,49772291777551E-13;
1,41529949388126E-13;
7,6185022320374E-13;
2,44009987476079E-13;
8,65707577047581E-14;
5,20141718349047E-13;
6,79855653350477E-13;
3,00169065474637E-13;
1,7620858630466E-13;
8,59868842528218E-14;
-1,07248171969781E-13;
4,5634651799315E-13;
7,94930188843247E-13;
2,78740080734336E-13;
3,15921588063097E-14;
6,18768616751727E-13;
8,66745127296782E-13;
3,91204746060132E-13;
3,0047102395012E-13;
2,95151972559549E-13;
1,25656098201871E-13;
5,24793029965901E-13;
4,16854379788239E-13;
2,4814141962767E-13;
3,38330924262225E-13;
-7,1272445875181E-13;
-6,53156024882386E-13;
3,80131027740825E-13;
3,38533526990085E-13;
2,48500591480718E-13;
5,87495567001844E-13;
6,96594484469322E-13;
-8,63986725422159E-14;
-9,21020077952601E-14;
6,47753074925428E-13;
5,90470922209624E-13;
7,42209740166464E-13;
4,31434194580556E-13;
3,79087556660667E-13;
5,55761069047553E-13;
-6,05940682108195E-13;
-5,22477417041439E-14;
6,27648450051483E-13;
-1,40349956891436E-13;
2,07657987929778E-13;
-5,97390046343516E-13;
-1,02805183013676E-12;
4,55264782954263E-13;
9,32068312652371E-13;
6,7792624511774E-13;
1,81022306466754E-13;
1,85508459113771E-13;
1,0080429184597E-12;
1,31058834975721E-12;
6,25287149317896E-13;
2,17253074158721E-13;
2,87982866653615E-13;
-2,07278783165614E-13;
2,54067424179166E-14;
5,62564770756381E-13;
2,70314703537547E-13;
-1,96408174866204E-13;
-3,23764767348419E-13;
6,01463679363523E-15;
3,80455870616431E-13;
7,43611824221056E-13;
6,48149978733216E-13;
8,85951880042144E-13;
7,18123490292018E-13;
-1,61396817085484E-14;
2,28389895041163E-13;
2,61207758319636E-13;
9,55366665626158E-13;
1,02453887456061E-12;
7,89296062248194E-14;
8,14098293136447E-13;
8,00212025887971E-13;
-7,76803522641505E-14;
-1,67601414744541E-13;
6,69558782414968E-14;
8,03025923219247E-13;
7,50973635956772E-13;
2,77433367466969E-13;
6,11266311872729E-13;
5,94427038128877E-13;
5,37687052293539E-13;
7,87928150271894E-13;
2,90321219680558E-13;
-3,84294050702022E-13;
-3,9371556359159E-13;
4,78919850310828E-13;
9,10922875877001E-13;
2,63513811326922E-13;
5,96604518684443E-14;
-2,09605540750537E-13;
1,52710816120609E-13;
7,5184707038791E-13;
2,53447338368939E-13;
5,61765683935049E-13;
5,0300093378353E-13;
1,44578887873021E-13;
7,13278253404376E-13;
5,24356198336613E-13;
5,2387685988496E-13;
1,17686302988723E-12;
5,8742744647822E-13;
-8,83682277163598E-14;
8,05103624666342E-13;
7,24815137328615E-13;
1,58871154614984E-13;
8,21776992996731E-13;
2,65633804592404E-13;
-1,95066748732506E-13;
6,12579366894401E-13;
3,7724069111354E-13;
3,83644627558247E-13;
6,5268369925323E-13;
-1,13208434706314E-13;
-9,92323193427857E-14;
-1,69718693115448E-14;
1,60435495543701E-13;
5,34113493455462E-13;
-1,48001952911375E-13;
3,35435194058067E-13;
1,28068806219196E-12;
7,67920796959057E-13;
8,68742949301691E-13;
1,06178466551773E-12;
8,64844226555273E-14;
4,92860525467512E-13;
9,15151391528003E-13;
-1,07418801280506E-13;
-2,08240396439901E-13;
4,33349862688082E-13;
7,2276927149544E-13;
1,61529392332271E-13;
2,52768003893488E-13;
7,72398850314172E-13;
6,20300850011166E-13;
1,13041494850804E-12;
7,20012640740116E-13;
-7,74705291353051E-17;
5,44965289298275E-13;
4,0554172227705E-13;
2,42653606487832E-13;
6,61985981866139E-13;
9,045055521519E-13;
1,03145323431513E-12;
3,40281842274599E-13;
-4,18960393694086E-13;
-2,01293549648237E-13;
5,1762810476665E-13;
8,57013217707455E-13;
2,00842159818058E-13;
2,14567887007412E-13;
9,73327790103576E-13;
8,71466186090566E-13;
1,94930801709233E-13;
-1,538429918876E-13;
5,84495747415978E-13;
1,07879915299113E-12;
7,62663086852403E-13;
5,90144420513489E-13;
6,17660591294202E-13;
3,92469313381652E-13;
1,42151329843463E-13;
5,19137617918914E-13;
2,44461880133906E-13;
3,68019100950867E-13;
1,05821429635618E-12;
3,11164313590465E-13;
-1,64847023681393E-13;
-2,91335894304193E-13;
-2,09245706249878E-13;
3,42394576080339E-13;
5,11466995275208E-13;
1,00734569377245E-12;
5,57575250314431E-13;
-1,93608751566459E-13;
1,63597282095123E-14;
1,18625074167977E-14;
2,56218981138681E-13;
1,99888375164496E-14;
-1,62888049439226E-14;
4,13121367832882E-13;
3,66605590474335E-13;
9,77153921891528E-13;
6,8932620903583E-13;
6,80848881432955E-13;
1,55807514337228E-12;
9,54792851577737E-13;
2,75432795519252E-13;
-4,80307725395273E-13;
-1,56639167447015E-13;
5,73957446290823E-13;
-5,39587475768087E-13;
-1,19352802071348E-13;
7,71664538391815E-13;
1,77216617130078E-13;
2,56861900935031E-13;
-2,85274128278135E-13;
-8,02028910609369E-13;
5,04158943644131E-13;
9,5481090543517E-13;
2,89946797457247E-13;
-7,85156000766492E-14;
-2,48309276792635E-13;
1,16919283934099E-13;
6,14907024672631E-13;
6,03943440597214E-13;
9,89127368443555E-14;
1,11914880366376E-13;
3,22184120306029E-13;
4,84413629406106E-14;
4,38829848116465E-13;
9,66663377269337E-13;
7,51046928395278E-13;
3,46559107612178E-13;
1,33902817249516E-13;
3,54501729522884E-13;
3,89461943049224E-13;
-2,09180990879909E-13;
1,11662910925723E-13;
1,0919940522101E-12;
5,10235788845071E-13;
9,0766789319672E-14;
1,0605474389318E-12;
7,97733794092362E-13;
5,32508778143003E-13;
1,23909147485944E-12;
3,84564501260999E-13;
-2,85389409853393E-15;
4,05728359371601E-13;
-1,88484556606026E-13;
2,7596617790261E-13;
7,90652695444254E-13;
3,29646121606921E-13;
1,93692213491286E-13;
6,31643118590917E-13;
9,16006550480134E-13;
1,50418810197531E-13;
2,31899703559967E-13;
1,18394102247888E-12;
2,96961272505396E-13;
-6,19127409756109E-13;
5,10338928795882E-13;
6,42393777472707E-13;
2,93259966097395E-14;
1,35871309463226E-13;
-5,73814050773152E-13;
-1,08758412424579E-13;
8,21003061942461E-13;
6,28442043257978E-13;
1,22598737911438E-12;
1,07490762028065E-12;
4,19973631320795E-13;
1,0581329899702E-12;
7,26283188327619E-13;
-3,74095899780288E-13;
9,59167686066475E-14;
5,34091220600902E-13;
4,13207677515632E-13;
5,68488183047938E-13;
3,79723490787308E-13;
5,19538771828042E-13;
5,64988180883137E-13;
5,18705250065722E-13;
7,30791571326254E-13;
8,4633445979611E-13;
7,46184093639367E-13;
-1,7606766498168E-13;
8,72733026870923E-14;
7,14835831010501E-13;
-1,84043304561854E-13;
-3,66624638148419E-14;
8,89063447705083E-13;
9,20617901546945E-13;
4,4116300472412E-13;
-7,04452087955112E-14;
2,51996932758586E-13;
4,21172558719986E-13;
-1,58152468492138E-13;
4,48518134110758E-13;
9,14452749752E-13;
8,06494003835864E-13;
7,53359667253036E-13;
9,08100574997179E-14;
2,77363150825334E-13;
3,35519662036975E-13;
-5,23317919740987E-14;
1,05096598644411E-13;
7,41364851812065E-13;
6,49370273674166E-13;
-2,63430191223251E-14;
1,02030726264248E-12;
6,66016895255282E-13;
-2,8322313113339E-13;
1,19317486217934E-12;
1,12307170371175E-12;
4,97280336263083E-13;
8,78790771482741E-13;
4,73106939150143E-14;
4,6322628910594E-13;
1,25497147868535E-12;
2,40662900542998E-13;
3,32938403802753E-13;
4,52309466733784E-13;
-1,40696703313483E-13;
9,55020320335691E-14;
3,21929644747295E-13;
2,65174126784006E-13;
2,21928013085493E-13;
9,24075227982656E-13;
9,4005330760296E-13;
6,98747853554184E-14;
4,39418972058265E-13;
2,1630177249553E-13;
-4,35012703351575E-13;
6,2699367585363E-13;
7,27105910327678E-13;
2,81812972205217E-13;
1,41953670739584E-12;
1,13922562104331E-12;
6,51018395659486E-13;
1,12361378275689E-12;
3,47303610856487E-13;
-3,4065913185136E-13;
-4,98195709072654E-13;
-3,04648384505281E-13;
-3,75745031942252E-13;
-4,59413238071661E-13;
7,23263283769161E-13;
7,77329765864631E-13;
5,58898586599128E-14;
5,38866773711643E-13;
6,4073039535551E-13;
5,79237821163322E-14;
1,74833905361073E-13;
1,29184901954106E-12;
1,16423008556577E-12;
3,45771757928668E-13;
4,50298558176285E-13;
-2,33079341092699E-13;
-3,5010180238869E-13;
-4,44381207949868E-14;
-1,55576540156824E-13;
4,05592214315406E-13;
3,37495795537121E-13;
-2,57928309860605E-13;
4,46456489438948E-13;
1,51527129039967E-12;
3,86328578330641E-13;
-1,33294440057829E-13;
7,7899102985859E-13;
2,46123026692275E-13;
3,4808081432473E-13;
8,80917088897649E-13;
3,68645345139052E-13;
5,65876475020399E-13;
1,14521678024273E-12;
4,63383889208999E-13;
-9,99858010407202E-14;
7,33650635784886E-13;
1,30865021351994E-12;
8,36607486084044E-13;
-2,38020619096701E-14;
-1,78623506158539E-13;
2,74114850173111E-14;
1,37407914741275E-13;
5,76808302793882E-13;
5,36654408007338E-13;
3,30005980515525E-13;
1,36772079526761E-13;
-1,92479173404224E-15;
-1,91330133127167E-14;
-1,71112218137917E-13;
4,3198297564129E-13;
7,97151025147591E-13;
1,04775439124281E-13;
-1,65764550057779E-13;
1,94588553295577E-13;
2,5444931336437E-13;
9,56466616644175E-13;
1,20073727156E-12;
5,70111805688812E-13;
1,39713034763627E-12;
7,38399240921584E-13;
-3,49698658931669E-13;
6,8372771551843E-13;
5,25246943814559E-13;
8,77119253693504E-14;
4,88697428836402E-13;
9,12561261123344E-13;
1,29075204655227E-12;
9,17552844189224E-13;
6,22439449479819E-13;
5,26663378741197E-13;
-7,44477003732252E-14;
-1,69868008355711E-13;
2,77887815396382E-13;
1,93038766442822E-13;
-5,50460713567121E-13;
-7,2817716142517E-13;
2,97942567926421E-13;
4,87616225187536E-13;
-1,07588235516818E-13;
4,11255448664479E-13;
4,27153268411378E-13;
-5,71683274614756E-14;
4,12610410031324E-13;
3,60808918509788E-13;
-1,98416179944095E-13;
1,80763073713045E-13;
1,02868959547265E-12;
9,38301736465702E-13;
4,7061100730211E-13;
-1,32332589221168E-13;
-4,26024472412876E-13;
5,30399187146489E-13;
6,37882619607398E-13;
4,20005091490589E-13;
6,86083203149494E-13;
4,8572844872008E-13;
9,95481171480638E-13;
1,05040087846854E-12;
8,3281779902913E-13;
1,31497552707757E-12;
6,82251688916253E-13;
3,81974906657415E-13;
2,31770291376739E-13;
-4,54011919624527E-13;
1,46703661285003E-13;
4,54465749369308E-13;
7,37657319047936E-13;
1,06906808504214E-12;
5,97523524828157E-13;
3,59321924980296E-13;
2,44356698771429E-13;
3,80582568618988E-13;
-1,63607841002826E-13;
2,77389304257678E-13;
6,77432273264856E-13;
-1,61106370610806E-13;
5,71075359212628E-13;
2,95888980701435E-13;
1,74919037198067E-13;
6,3072486214336E-13;
9,39094757199677E-14;
6,04722401696202E-13;
4,99191717938676E-13;
4,20662965741792E-13;
1,08150198796891E-12;
1,0081999753819E-12;
3,90332215415245E-13;
-2,4632821545379E-13;
-2,79887773234856E-13;
9,46128900171568E-14;
4,15167364076307E-13;
7,40510489505099E-13;
1,2014680785001E-12;
7,53594878132544E-13;
1,76483140498884E-13;
7,79689608001192E-13;
1,35457025463705E-12;
1,04155360718636E-12;
4,39081177079937E-13;
-9,04754730194775E-15;
8,72601356775341E-14;
1,03024077827955E-12;
8,51408082400709E-13;
-3,17042592787146E-14;
1,00789458390818E-13;
2,7748550840664E-13;
7,64483737915581E-14;
-2,47871459398362E-13;
1,22147734025155E-13;
8,74068136276951E-13;
9,66954799202568E-13;
3,12277082197009E-13;
1,29910424802249E-13;
6,79587119884651E-13;
2,66443612272465E-13;
2,89859222697082E-13;
5,54766451983244E-13;
6,00722025834306E-13;
6,85098798463406E-13;
-4,11937812467562E-13;
1,45080908379321E-13;
5,81087846423179E-13;
-3,38979306510823E-13;
1,41316373447973E-13;
4,58967678430073E-13;
6,35186676066126E-13;
8,41530169623283E-13;
6,88353836442143E-13;
9,08274914590388E-15;
-1,47943410831435E-13;
8,14816307793855E-13;
4,4977190272167E-13;
1,99571282393348E-13;
8,74485425780013E-13;
6,00630803023217E-13;
2,09868388473993E-13;
2,81609844326466E-13;
3,13603810202472E-13;
-1,76881012543848E-13;
-2,31602016806154E-13;
1,42434172057763E-13;
-5,83907075604268E-14;
3,06763956381253E-13;
4,37745272100977E-13;
1,54478083337637E-13;
3,13931544948192E-13;
4,44880571463372E-13;
8,83443182404222E-13;
8,80430923680558E-13;
8,04609408841505E-13;
8,53311530562846E-13;
5,2368077974441E-13;
5,73257919034792E-13;
1,15022355674536E-13;
6,4940527917094E-13;
1,68729396559787E-12;
5,50118035211167E-13;
3,64594790334027E-13;
9,46196771138133E-13;
6,55511264659519E-13;
8,0073700870131E-13;
8,43826764038434E-13;
7,04470151821621E-13;
2,75975684922385E-13;
5,35365966801358E-13;
1,07568391113393E-12;
2,7052914867492E-13;
-2,38071225338156E-13;
-3,44282895921769E-13;
-3,00749487039373E-13;
2,8767736175851E-13;
4,67139293619225E-13;
5,06134001087366E-13;
4,36183891587889E-13;
5,82117897227121E-13;
1,04532226866329E-12;
5,21192390648895E-13;
7,03630970939887E-14;
3,96581389448675E-13;
4,44619196147916E-13;
3,96769920877834E-13;
-1,66900403622122E-13;
-5,45074438914568E-13;
5,81600568521162E-13;
8,4019908961297E-13;
-4,05032196509899E-13;
-2,56351386240386E-13;
5,94067367222615E-13;
-7,73855860250407E-14;
-2,64896499738944E-13;
5,74674419121434E-13;
6,05605818564423E-13;
8,85223162751264E-13;
1,11431209305511E-12;
6,04323785081833E-13;
4,07458245487084E-13;
2,18445222624515E-13;
1,58055289753213E-13;
5,25815629155675E-13;
6,16357761090941E-13;
9,82118765834846E-14;
5,64377758733825E-13;
1,91671961247048E-12;
1,1556664576632E-12;
-6,06258424636062E-14;
-3,12888288934498E-14;
5,0343127847417E-14;
3,01912774596555E-13;
1,90436154762681E-13;
5,14012920145736E-13;
7,88042384466689E-13;
5,42506282186022E-13;
1,99486116327328E-13;
-3,37540846195639E-13;
4,20559835331632E-13;
5,11273319101132E-13;
-4,68910108749253E-14;
4,04501799748666E-13;
3,74616778801168E-13;
7,48273185928465E-13;
1,09723387851543E-12;
7,55379250212768E-13;
5,61666583277853E-13;
3,47428171626198E-13;
4,45612375486838E-13;
7,23005352317711E-14;
3,28527092129354E-13;
9,0364582684411E-13;
-4,05880288184838E-13;
-8,18516093529629E-13;
3,2589057197719E-13;
5,41715482272949E-13;
1,81908358698205E-13;
7,3529629958348E-13;
9,65466212852312E-13;
-6,42192870093649E-14;
-6,7784130011725E-14;
6,1301855367347E-13;
8,73612729565788E-13;
1,100907597064E-12;
6,37170988296712E-13;
-2,74278603187185E-14;
-2,65918570747704E-14;
3,95652262798661E-13;
7,6347898788327E-13;
4,85726000195391E-13;
6,71265290135075E-13;
1,48899315718877E-12;
7,16340475319637E-13;
1,1412745343278E-13;
1,9871794753955E-13;
-2,63201707762272E-14;
3,79744650997858E-13;
-2,03098182967712E-14;
-8,43119657834886E-14;
1,08461012385036E-13;
-5,97614783778421E-13;
-5,20322554388676E-13;
2,57195250372046E-13;
5,5369257517574E-13;
1,57506860091888E-14;
2,09423936369582E-13;
3,56083674910667E-13;
6,01253956767254E-13;
1,24562533580103E-12;
5,89743290690801E-13;
6,62006489268104E-13;
8,76401876846411E-13;
7,10106457018879E-13;
7,6194989098027E-13;
-2,00313868314249E-13;
-1,48595919502614E-13;
1,16218199084092E-12;
9,00396653805318E-13;
-5,38805912352634E-14;
5,3219409193529E-13;
5,57574276501104E-13;
-3,39518722814744E-13;
6,98743330388451E-14;
3,06869601949685E-13;
1,95739877120189E-13;
8,45097261808394E-13;
8,92948782861259E-13;
6,07448417069621E-13;
1,90130420856119E-13;
-2,31711030334603E-13;
7,88147488126185E-14;
1,57157540725477E-13;
3,03726780376513E-13;
5,61454350939749E-13;
5,26219683254308E-13;
-1,52128916724374E-13;
-2,44187666400653E-13;
9,07423837214408E-13;
5,78352938174435E-13;
1,21052083511444E-13;
4,27478419309366E-13;
4,67789538812074E-14;
-3,87693168690216E-13;
9,74428113633965E-14;
1,0741670410009E-12;
4,85903585670859E-13;
1,30978823145818E-13;
9,03446416154655E-13;
8,439696959538E-13;
5,29782849757517E-13;
5,96210021069187E-13;
7,71430834977362E-13;
8,0494115804264E-13;
8,08315137448938E-13;
7,35562786237671E-13;
7,73286938201229E-13;
2,67763296457534E-13;
1,65184864002325E-14;
5,18820233716458E-13;
3,59133152970143E-13;
2,94787556028323E-13;
-4,51340182973608E-13;
-6,30805800544199E-13;
8,46925927354258E-14;
-7,78268776496303E-13;
-3,2230266658785E-13;
6,18629282744886E-13;
-9,13528366664932E-14;
2,8174170241871E-13;
4,51546868507598E-13;
1,70746605945391E-13;
7,19364861543289E-13;
1,87770853245525E-13;
1,38165200575385E-14;
1,20925365536455E-13;
-8,76467883490614E-13;
-7,4167080855418E-14;
1,15299351766433E-12;
2,43714547748246E-13;
-5,25785228307894E-13;
-5,07663134156817E-14;
5,34888454530906E-13;
6,62447793187555E-13;
4,67784628590692E-13;
3,65428508904573E-14;
6,06296882374815E-14;
6,23911310525568E-13;
2,67895504269239E-13;
-5,98619336274344E-13;
-1,98729396740337E-13;
7,9843399966771E-14;
-3,52897672000516E-14;
9,22142737112186E-13;
3,34862773887263E-13;
-5,95227635676013E-13;
3,39710357377223E-14;
-1,02764541176428E-13;
4,20344267107925E-13;
1,19982471636952E-12;
6,92324997890976E-13;
-2,59702891025071E-14;
3,39464771439594E-13;
1,4568400367601E-12;
8,94745067516832E-13;
1,08947630475251E-12;
1,88493380405755E-12;
4,03232734207063E-13;
3,17192402953933E-13;
6,1082370581617E-13;
-7,17599542785822E-14;
7,13869754688694E-13;
1,70588950985988E-13;
-2,66392619722682E-13;
1,11900647422223E-12;
6,91035474880225E-13;
-7,10524777883722E-14;
4,94418324189241E-13;
2,35060590781144E-13;
-8,8405483510672E-14;
5,76712205601912E-13;
2,3031706924223E-13;
6,27202481607154E-14;
8,36372975758686E-13;
8,70173355208884E-13;
7,25743874646791E-13;
3,97976967541679E-13;
4,35520563626964E-13;
8,26646686145958E-13;
4,14290367690656E-13;
-9,65475056986724E-14;
3,59217219886198E-13;
6,08541009253228E-13;
2,35559510251742E-13;
7,88617652266289E-13;
5,64475669264537E-13;
5,03656046437766E-13;
1,2463899089487E-12;
-2,38316630107012E-13;
-6,51708370028688E-14;
8,61915895880886E-13;
-3,32032955643935E-13;
4,62479375977151E-13;
4,14189240113596E-13;
-7,72722958195069E-14;
6,66979844959195E-13;
-3,180492684146E-14;
9,88231322284858E-13;
1,07154101778515E-12;
-5,901248714162E-13;
6,34394028072097E-13;
9,48433880501711E-13;
-2,82380724065357E-13;
7,96949506355201E-14;
5,46169198761315E-13;
4,89272640657633E-13;
1,99599343118447E-14;
-3,20939875784424E-13;
6,98821489257714E-14;
5,18297224293214E-13;
7,41796184618611E-13;
6,57033805026302E-14;
3,59938338239753E-14;
5,66522854754944E-13;
5,33356868937014E-13;
1,01052330968412E-12;
7,12755600707441E-13;
3,91031056465556E-13;
6,51649739470314E-13;
4,42322154537739E-13;
6,36818531326933E-13;
8,82491760331385E-13;
6,43637550675328E-13;
1,22332242678897E-13;
2,50101090980961E-13;
1,20664356230331E-12;
8,22548570546762E-13;
-4,119673108902E-13;
-5,85589298497307E-13;
-8,76307255204987E-14;
4,80539126462777E-13;
3,82902916191556E-13;
3,38026393389743E-13;
5,41630528560648E-13;
1,7677635967336E-13;
3,82888710372199E-13;
4,67005656236019E-13;
-2,50987283993191E-13;
-1,20234926733144E-13;
6,89789032880909E-13;
7,93768884768167E-13;
4,36153074812976E-13;
-1,17299292535204E-13;
-4,26347689022287E-13;
-1,44297550210438E-13;
3,86374581642344E-15;
4,47597894247129E-13;
5,87762715273886E-13;
6,27687362909726E-13;
8,281874437021E-13;
-5,68079270879134E-14;
-2,40494719930692E-13;
2,61606468578658E-13;
3,84417398147819E-13;
5,43725950321501E-13;
-6,03779161059941E-14;
2,65852070493929E-14;
1,09609702768909E-12;
5,28676479400784E-13;
-3,0933669700149E-13;
4,77622346190727E-14;
-1,42157196494041E-14;
1,23481220995033E-13;
8,750306068378E-13;
9,61881084603923E-13;
5,96231932485387E-13;
5,67949208997394E-13;
7,56642105503227E-13;
1,14801275995601E-12;
5,54929620530321E-13;
-4,28519663441289E-13;
2,79056245621992E-13;
2,60268831463478E-13;
4,65692469450072E-13;
7,63286629662273E-13;
-6,8349065230738E-13;
-4,21946240043001E-14;
5,9080259479137E-13;
2,41426140860092E-13;
5,66310004379476E-13;
-9,7888330305792E-14;
6,3875000061306E-13;
1,4205437519567E-12;
6,68452028513328E-13;
9,65927679607496E-13;
9,17479572638713E-13;
2,69587541660708E-13;
1,39626234249451E-13;
5,62174707814764E-13;
8,05732580092598E-13;
-1,53722236186351E-13;
-6,77878192985105E-13;
2,5155314475021E-14;
8,13025744262992E-13;
6,27802491668443E-13;
-2,27389852823166E-13;
5,65751213734654E-14;
1,2853393097245E-12;
1,01549019513879E-12;
8,87868818072252E-14;
5,69987208231259E-13;
3,29959537432239E-13;
-2,36099579487258E-13;
8,40740822230229E-13;
7,47627519957724E-13;
-4,62181845151404E-14;
5,42670132446143E-13;
4,68233180196564E-13;
6,29594937809034E-13;
7,35269721512263E-13;
-1,01121555930532E-13;
5,83529915792901E-13;
1,20950544664216E-12;
4,66886405586376E-13;
3,34992937534267E-13;
1,68942500988104E-13;
-3,78262311271525E-13;
3,41667847076657E-13;
2,00019054761601E-13;
-2,7979395277756E-13;
4,23638687092926E-13;
1,05477258102309E-13;
5,72250397064675E-13;
3,86900872738594E-13;
-7,17906116324334E-13;
2,08346704807772E-13;
-3,06939468256542E-14;
-4,1411504214126E-13;
2,63269085177215E-13;
1,82399139765344E-13;
2,27680810748993E-13;
1,00727199646749E-13;
2,85891388103717E-13;
4,97730700606643E-13;
4,94854067008943E-13;
5,94149878719374E-13;
1,70987972512561E-13;
-1,88325682757839E-13;
3,87910768010139E-13;
7,78991295129577E-13;
-3,63606518979944E-13;
-1,35463914142046E-13;
8,28545771768837E-13;
4,28646136127504E-13;
2,77986533327257E-13;
-1,27662812355219E-13;
8,55749828285095E-14;
5,47123416901992E-13;
-3,1724784044894E-13;
-6,39488449799191E-14;
7,7063076152779E-13;
5,06570773282217E-13;
9,15566948608555E-13;
8,73694547937399E-13;
-1,13555789651337E-14;
-2,66465689352853E-13;
1,82076186525355E-13;
6,45713886095606E-13;
-1,05110283382495E-13;
5,41300052855651E-13;
1,13505626591131E-12;
1,39148928211637E-13;
6,08608666472777E-13;
6,14254368063208E-13;
5,87832174311386E-13;
7,29726113310638E-13;
5,63649063602032E-13;
8,8560004810965E-13;
2,87900459049645E-13;
8,55159029508965E-13;
1,01266676464233E-12;
3,37766878960552E-13;
7,5387095085965E-13;
-1,91830021284211E-13;
-2,12768717973108E-14;
7,51434675601113E-13;
-3,0390603786386E-13;
-2,46157573677662E-13;
2,48242151431603E-13;
-2,89215688527947E-14;
1,93125987604545E-13;
4,83548045478182E-13;
8,67916792798228E-14;
1,63235637003753E-13;
3,36050539673123E-13;
-2,82721892716468E-13;
1,02111383447783E-13;
8,93061745619316E-13;
4,15165661458127E-14;
-2,63534532845712E-13;
8,3041521698E-13;
4,07280528945592E-13;
2,92295715465354E-13;
7,40583124058306E-13;
-1,01907966978286E-13;
6,13766716605441E-13;
6,4610640041877E-13;
1,94132496639149E-13;
1,41441614602296E-12;
2,69555693546329E-13;
-4,57087177902981E-14;
1,21706758788203E-12;
5,58589819759155E-14;
-2,04008068968448E-13;
5,31967674787943E-13;
4,69026425116517E-13;
1,50977019353429E-13;
3,18710145495383E-14;
1,06362566602E-12;
9,12784181291908E-13;
-5,6711517376078E-14;
-2,09288040527458E-14;
-3,77048695575835E-15;
7,19818166567765E-13;
1,09400344495792E-12;
5,77400611131732E-13;
3,8963024267282E-13;
1,97018753821622E-13;
1,84612702058448E-13;
2,92717366460481E-13;
3,98008231650599E-13;
6,58616084821426E-13;
2,10419329402639E-13;
-2,16248289991764E-13;
7,81735060920169E-13;
9,22506357652794E-13;
5,22800750191638E-13;
1,02729842496102E-12;
3,25656917123518E-13;
5,26068119447758E-13;
1,12210078353645E-12;
-1,9854509250189E-13;
-2,61692348829294E-13;
1,72675149937232E-13;
-9,70462729593986E-15;
3,64461270022136E-13;
5,48060281120524E-13;
6,10504815314344E-14;
7,03352365253373E-14;
7,98889248466345E-13;
4,21658333863979E-13;
4,5327829688739E-13;
8,16909300098177E-13;
7,1658252676748E-13;
1,06637302084103E-12;
-6,38699266451366E-14;
-3,03383405132923E-13;
6,10825473622107E-13;
2,9992053845152E-13;
2,24103990321332E-13;
-6,87491657241378E-14;
5,74384427829481E-13;
1,17504432160052E-12;
3,10271705239462E-13;
5,013512463245E-13;
6,06322849883586E-13;
-2,97764216612057E-13;
1,78661619264328E-13;
9,8062507896043E-13;
4,53025055765062E-14;
-1,84999848599476E-13;
8,23891247945821E-14;
9,78914336177731E-14;
6,30080732249997E-13;
5,73445760293793E-13;
8,39072169455895E-13;
1,43613997221521E-13;
-7,85185949405646E-13;
4,99480553472028E-13;
8,30696775901827E-13;
8,38864088814369E-14;
2,79053086623686E-13;
6,9807152340179E-13;
2,49515042295859E-13;
9,51605920563891E-14;
8,74910307141039E-13;
3,30832666185004E-13;
7,93071249446924E-13;
1,5971857514938E-12;
-7,66478226293569E-14;
-4,79104615001502E-14;
7,30895198789696E-13;
6,15415057915731E-14;
2,49162507568079E-13;
5,26491328601964E-13;
3,41296641982832E-13;
-1,10313139758355E-13;
-7,39114160121355E-13;
3,86433973357323E-13;
1,03289864400466E-12;
-2,00437174376404E-13;
2,00291151345057E-13;
3,26137161435261E-13;
4,02976860103037E-13;
1,40352580364457E-12;
2,98997786079753E-13;
-2,5294319114044E-13;
3,70362237323089E-14;
1,61734967410661E-14;
3,04190578690084E-13;
-2,92646440598045E-14;
-7,12505586968898E-14;
-1,51521286215113E-13;
-1,29267865071842E-13;
3,30364299073289E-13;
4,72561698748517E-13;
3,61192674342711E-13;
-1,65980429026788E-14;
1,56941188335419E-13;
4,66600256753487E-13;
3,19004088296518E-13;
1,72290061856137E-13;
2,36988117991919E-13;
3,33419706551961E-13;
5,40060996170156E-13;
4,17654807285105E-13;
2,86858978388592E-15;
6,51735908268815E-13;
6,71938542190475E-13;
2,8750945097966E-14;
4,55743628367595E-13;
1,28110151703816E-12;
9,6301458226972E-13;
-4,97913576088215E-13;
-4,24817315595568E-13;
5,36062539690302E-13;
1,01073378744478E-12;
8,13603515727712E-13;
-3,23781562635653E-13;
-4,06777014835685E-14;
8,43031238329831E-13;
8,72494023767765E-14;
-2,23082146296069E-13;
3,27656892564833E-13;
2,88690715288557E-13;
4,0620245039314E-13;
6,12421875779456E-13;
-1,37480218336321E-13;
-5,07217076129173E-13;
8,21027199099495E-13;
9,10946263004385E-13;
-4,57490312641644E-13;
1,36524824188479E-15;
2,08176165260131E-13;
7,98840132692652E-14;
1,00492234586621E-12;
5,53967422402866E-13;
-5,24764542682602E-14;
3,03150172087759E-13;
6,85192977361869E-13;
9,16347205672895E-13;
6,20507746801716E-13;
3,20062688442193E-13;
1,99160972887163E-13;
3,63924854335555E-13;
1,06629609280788E-13;
-4,2909694625194E-13;
6,54902075248938E-13;
9,44478391672464E-13;
2,73724690096053E-13;
6,5856769974458E-13;
-4,17473761998673E-13;
-6,76228597588721E-13;
6,51807412703692E-13;
4,19579752291056E-13;
4,16402667593785E-13;
7,11914419673884E-13;
8,29277190806494E-13;
4,50154418659962E-13;
-7,45514923208837E-15;
7,47546880915195E-13;
5,01285495491559E-13;
5,05903664015246E-13;
5,11545147454038E-13;
-2,46466153362085E-13;
1,29734912438074E-13;
-1,17656406590625E-13;
1,13432123168327E-13;
3,39066014684146E-13;
5,96035191718828E-14;
8,03538270336638E-13;
3,80276918697648E-13;
9,45338125104572E-14;
4,02686097612734E-13;
-1,4175284782852E-13;
1,36873697623236E-13;
6,04357625977755E-13;
3,42177425095957E-13;
5,0568764847887E-13;
3,99593319044901E-13;
6,36942760570389E-13;
1,23172855992698E-12;
1,72900595556392E-13;
-3,49008481579557E-13;
4,68102080144624E-13;
9,80381196682247E-13;
7,00017480763196E-13;
2,82909325081135E-13;
1,03920834671567E-12;
1,05770272452746E-12;
1,78831759845955E-13;
4,15325847276414E-13;
5,09373352718777E-13;
2,21909251606574E-13;
9,2678938463068E-13;
1,17204540924916E-12;
2,91941374148123E-13;
1,65141285586749E-14;
2,18815330048366E-13;
4,14681882820752E-13;
4,34098825251079E-13;
-4,39404859573801E-14;
-2,0642763095742E-13;
4,99813300481131E-13;
8,50449418344156E-13;
1,56170065844666E-13;
2,86082766685755E-13;
4,51235280818756E-13;
-2,47512278473316E-13;
2,22428427331162E-13;
3,50505776062276E-13;
2,65852126249833E-13;
7,5101744126397E-13;
3,92969999501804E-13;
8,60257168196009E-13;
1,00587166147696E-12;
6,1348319445169E-13;
7,74349394523342E-13;
7,91983159493613E-14;
-1,3997127528522E-13;
-1,60576076590827E-13;
1,48792715009661E-13;
9,42540374511331E-13;
3,15573827213811E-13;
3,38780661953413E-13;
8,74682336463754E-13;
2,69443564543687E-13;
6,76033434881864E-13;
9,09253382660017E-13;
3,89525626595169E-14;
3,57678965865507E-13;
6,80404601385804E-13;
4,46829413788264E-13;
4,23636421774015E-13;
3,25521915291609E-13;
3,27190153592693E-13;
9,12533210669923E-14;
4,61596358998734E-13;
9,96873014398473E-13;
5,64886136406233E-13;
2,30807662553366E-14;
-5,76377356787103E-14;
5,05372534232848E-13;
6,80129340161264E-13;
4,0851231793483E-13;
2,72345456599171E-13;
7,1959292333655E-14;
4,93946194365618E-13;
4,51418335046198E-13;
-4,22743984742343E-14;
5,21665160891724E-13;
8,71665715744614E-13;
1,68492372214658E-13;
-2,58520696768341E-13;
4,57330120732954E-13;
1,92642139242779E-13;
-5,53950226871474E-14;
1,11892199151789E-12;
6,7164760855485E-13;
2,47349876636461E-13;
2,50976484279138E-13;
-4,55044592803517E-13;
1,32353377427813E-13;
6,90007797566199E-13;
3,36203148646424E-13;
5,97979806423083E-13;
1,05422225900208E-12;
3,09130194431004E-13;
2,1314303473619E-13;
1,0767052663738E-12;
2,16566595497551E-13;
-6,29158425467357E-13;
9,91670549099791E-14;
8,41061299988896E-13;
1,06911726353871E-12;
6,88843531175918E-13;
2,24222235350117E-13;
-2,03193449038305E-13;
4,58537163224848E-14;
1,02646262474216E-12;
7,15731812973987E-13;
5,4419474498988E-13;
9,72109773429113E-13;
3,28894586924267E-13;
-3,2324733645473E-13;
-3,02694052131145E-13;
4,98358174881414E-15;
4,17951350050017E-13;
4,09617367134861E-13;
9,06836989324792E-14;
6,27721708788663E-13;
1,02906115676893E-12;
9,72789724988849E-13;
1,04507738325241E-12;
7,40288629280329E-13;
3,66397480772731E-13;
-3,04142619325531E-13;
-6,03644595736345E-14;
7,21755129547642E-13;
7,90821739989263E-13;
9,20877020731584E-13;
5,86671596163849E-13;
5,15937779343147E-13;
2,58123917637521E-13;
-6,98725830643545E-14;
8,22782566600364E-13;
3,75741532754559E-13;
-4,45094359232208E-13;
6,26412812011466E-13;
9,90095229319539E-13;
3,07267349066142E-13;
3,05378114930054E-13;
7,50479908910883E-14;
-1,72852296469312E-13;
4,03105135610041E-13;
3,64942047868412E-13;
5,74747850258294E-13;
1,22383313988842E-12;
4,24896994692954E-13;
6,49930913184325E-13;
1,13800858201642E-12;
-1,20143283544917E-13;
2,85052608840752E-13;
5,16021253521778E-13;
-4,43916315988022E-13;
2,26756761324449E-13;
6,05441570267246E-14;
-6,11449887935259E-13;
5,69164160869037E-14;
-4,50365737222191E-14;
-7,09804146378593E-14;
5,92415031519714E-13;
-2,97843248998462E-13;
-7,68068244397916E-13;
6,66817933446552E-13;
8,20721789192925E-13;
9,60835439770934E-14;
3,0750611166757E-13;
5,41209660478284E-13;
8,33866994261334E-13;
7,29282575910192E-13;
3,61247685047977E-13;
9,27728948975529E-13;
8,7717327928771E-13;
5,1541683284279E-13;
5,0533317282037E-13;
-1,93311479906274E-13;
2,03979658981585E-14;
8,23858208115954E-13;
9,39234557251667E-13;
1,19494923108645E-12;
1,09817207269873E-12;
-2,23060420388067E-13;
-5,53361128275542E-13;
3,78431673580194E-13;
4,18509414443081E-13;
2,27923303598505E-13;
6,62446487647039E-14;
6,43368038690667E-13;
1,03039904828607E-12;
2,50803430329409E-13;
4,55307614626066E-13;
3,04067157648957E-13;
-2,69069923414579E-13;
8,39931346734504E-13;
1,24189361168161E-12;
3,33038603175245E-13;
1,49966496770975E-13;
1,49278427362992E-13;
3,31215978907248E-13;
-1,65207027908079E-13;
-2,17131875844862E-13;
1,32233370576115E-12;
8,52643432224131E-13;
-3,17306556098863E-13;
-1,56350527852516E-13;
2,67660218391367E-13;
-8,18766438191345E-14;
-5,09419140520046E-13;
1,87292335631669E-13;
2,76895410877411E-13;
6,1225549560559E-13;
5,6452826687286E-13;
5,85803654523888E-14;
2,40830758624687E-13;
-1,06452107559924E-14;
6,32482846148916E-13;
3,42514953048811E-13;
-3,03266639350806E-13;
7,78250703640735E-13;
4,50485295428334E-13;
-4,49088435579654E-13;
3,65989809301915E-13;
1,06053882152484E-12;
3,29003418600757E-13;
-1,40860846487478E-13;
1,96691167468056E-13;
9,40577144144758E-13;
3,17845775112446E-13;
-8,6718903578829E-13;
2,55291295159809E-13;
4,01288608308281E-13;
1,98253218686943E-13;
6,10255080082316E-13;
1,82176901211736E-13;
7,07909556675945E-13;
7,86259562051571E-13;
4,48381458681856E-13;
6,42610712390093E-13;
4,75774617727849E-13;
-7,90751534995983E-14;
-1,18489259460782E-13;
7,86288335048191E-13;
8,64949871872379E-13;
-9,66871465526704E-14;
2,71176304686163E-13;
1,02334547745766E-12;
5,05573081352659E-13;
2,72838012352197E-13;
-4,80252587373175E-13;
-3,00347624095636E-13;
5,23666214999748E-13;
-2,19599107624603E-13;
6,71998858927471E-13;
7,92266931206181E-13;
-1,52822321381596E-13;
4,57729893053666E-13;
2,74075648411844E-13;
3,69959342411415E-13;
7,40279087486054E-13;
6,17915999216781E-13;
2,86108292316422E-13;
-2,20943162261742E-13;
4,71178321363788E-13;
7,70446490198438E-13;
3,35751074273117E-13;
2,35106682581794E-13;
2,04393591270986E-13;
5,06684364479076E-13;
5,8164295125728E-13;
5,75120957928866E-13;
1,56272077436965E-13;
-1,74442043102291E-13;
6,65821319304393E-13;
1,19397409624787E-12;
6,13272353630255E-13;
-1,28699572222193E-13;
4,26049958893324E-15;
3,45344606546518E-13;
1,43047177167267E-13;
-7,78703509904271E-14;
1,37094553512689E-13;
1,6876956330838E-13;
-5,47425634448295E-13;
-7,08080033687023E-13;
-6,77509047149269E-14;
4,6347538589701E-13;
3,34088856519855E-13;
2,15584858122204E-13;
8,90412686115076E-13;
9,78025595320039E-13;
6,33537224425841E-13;
3,05638721288103E-13;
-1,11245360468128E-13;
5,27873464983798E-13;
7,53730623304738E-13;
2,8209774478534E-13;
5,34821565304161E-13;
5,27452243595958E-13;
5,4282636265039E-13;
3,26363456897028E-13;
-3,32377144700311E-13;
4,46846485280516E-14;
3,52548094277451E-13;
4,58429597958136E-14;
4,60359651644043E-13;
1,78628368254506E-13;
1,7862383530651E-13;
1,32222387819629E-12;
2,33848658961888E-13;
-1,89810248970685E-13;
6,8282275922532E-13;
4,42296367158787E-13;
1,14232457155513E-12;
1,16109613642267E-12;
2,16212222011678E-13;
3,87551429616869E-13;
8,29550188177885E-13;
1,9592662392513E-13;
-1,53050806275595E-13;
3,73254707741002E-13;
2,57172516842424E-13;
4,33061189883052E-13;
9,14360917378349E-13;
6,05130897251988E-13;
2,08492112655404E-14;
3,77916986274295E-13;
1,12687565269108E-12;
3,64786484743806E-13;
-2,82552245139142E-13;
7,05006072472242E-13;
6,04803241691235E-13;
4,00066371192636E-14;
9,77736186234481E-13;
7,39085368141695E-13;
-2,60996926121757E-13;
-9,98419251863362E-14;
8,50194593855146E-13;
8,06664819193922E-13;
-6,69573042842269E-13;
1,50019650891713E-13;
1,35096088018508E-12;
-1,0373183407652E-13;
-1,37328953689615E-13;
1,18526109982859E-12;
-1,61898884574585E-13;
-9,67136874057542E-13;
6,38505982735041E-13;
4,68728616428188E-13;
2,11356943045436E-13;
7,63752818428272E-13;
6,69166825927628E-14;
2,87701503360365E-13;
4,75636273280457E-13;
1,83330976371117E-13;
6,44229815362076E-13;
1,32660942406254E-13;
-1,06406836831455E-13;
3,57510296606286E-13;
6,11926027693434E-13;
8,48360884198007E-13;
5,30182096295942E-13;
2,73657609912042E-13;
7,56161576453965E-13;
1,07311414659142E-12;
3,69559400987955E-13;
1,85541621810146E-13;
8,35964575576326E-14;
-3,84109128838164E-13;
2,05703301852612E-13;
7,38455221217638E-13;
4,32057745770185E-13;
1,90328314645962E-13;
8,26596889666742E-13;
6,51175168536271E-13;
-1,23770383590259E-13;
5,98041147677367E-13;
9,35279364156368E-13;
3,20838586311708E-13;
4,90813236926543E-13;
5,79698005374354E-13;
-5,33919122782036E-14;
8,56007289394387E-13;
8,58513948432826E-13;
-5,92306120209442E-13;
3,94987872692667E-13;
5,15702842909743E-13;
5,15034248283825E-13;
1,07367245544544E-12;
-9,37070070331399E-14;
2,88063299132919E-13;
-4,27072137954291E-15;
-3,249317045843E-13;
1,09286473471726E-12;
7,34050619692893E-15;
-7,554630073075E-13;
1,4303133674299E-13;
1,12404080757529E-12;
1,49905565557163E-12;
4,19429542647286E-14;
4,87303521100821E-13;
9,41306642093638E-13;
1,31634165467189E-13;
1,04129128047498E-12;
5,01335435007222E-13;
3,26872696101588E-13;
8,09358660968804E-13;
-4,07542255079547E-13;
5,88014803446992E-13;
1,14398664830053E-12;
-4,7576250011336E-15;
3,1137910238476E-13;
-1,17529432093186E-13;
-2,24431639001336E-13;
4,81118353309196E-13;
6,54142824792952E-13;
7,32067327069529E-13;
3,43804357286222E-13;
1,05513939050552E-12;
6,53734338837483E-13;
-1,31208600363537E-13;
1,03790545439457E-12;
5,50291243376303E-13;
4,92561435080692E-13;
9,91552154943137E-13;
5,36009738296961E-13;
4,94898617982128E-13;
-2,86832808614693E-14;
2,01567151362549E-13;
2,33753505230593E-13;
2,08441744010404E-13;
5,55025446466593E-13;
-2,15208514889998E-13;
1,80307142076434E-13;
8,35558466407416E-13;
7,93743302163574E-13;
5,43919923332495E-13;
8,55139261888065E-14;
1,44767918478602E-13;
-2,4474786656757E-13;
6,21788688541134E-13;
9,56709941684969E-13;
-8,04963768086112E-13;
-4,50425854496271E-13;
6,19663698050673E-13;
3,52220571353409E-13;
-1,11553010210259E-13;
1,43733583111563E-15;
3,31082999694109E-13;
-1,58461460444996E-14;
4,24244905911361E-13;
5,97954802641007E-13;
3,66693811125919E-14;
5,8667137335921E-13;
5,08596890929908E-13;
6,63227962070468E-14;
7,1655467576155E-13;
8,59622166648931E-13;
4,97214814463212E-13;
5,51610169452581E-13;
1,70761994344508E-13;
-9,14001071536235E-14;
4,60875112199133E-13;
6,69961655323087E-13;
3,30742420762967E-13;
3,06651395485911E-13;
9,92670446233668E-13;
9,04955874940163E-13;
6,1014915279896E-13;
5,14710269251578E-13;
-5,44912267033227E-13;
4,77530496311949E-14;
6,97126236702041E-13;
-1,71592108370965E-13;
3,99981979377214E-13;
8,85542650494984E-13;
4,97031436304166E-13;
3,67832663227563E-13;
3,0250926305673E-13;
7,69324211838924E-13;
1,3023089013646E-12;
1,10993489996771E-12;
6,81233914292896E-13;
2,5795669405587E-13;
3,28834259905013E-13;
1,03934839308881E-12;
5,91598316551646E-13;
-1,9644903189885E-13;
2,46487413951077E-13;
1,58948591203393E-13;
4,1965807377673E-13;
1,51333499662847E-12;
7,03115444394886E-13;
9,80476387400961E-14;
4,53582799425479E-13;
-1,29871819120189E-13;
7,96747242226885E-13;
8,10334792824282E-13;
-6,39407388606554E-13;
4,48530772149715E-13;
3,08445178606834E-13;
6,26224226783692E-14;
1,6093634255089E-12;
4,75194796710469E-13;
-3,05441297573451E-13;
5,61706341316953E-13;
1,85460956668103E-13;
2,37609790851883E-13;
9,86228967810398E-13;
8,84257717687924E-13;
3,4754281831635E-13;
-1,45878490532024E-13;
-2,39735956238333E-13;
2,86094073934008E-13;
1,4491853046889E-13;
-9,23644212686638E-14;
3,73360255213849E-13;
7,0030185495766E-13;
6,73356608662204E-13;
5,70578248291026E-13;
6,00460038928239E-13;
3,99780860009904E-14;
-3,00485097690078E-13;
4,36342046711105E-13;
6,27653820514111E-13;
5,55109357620304E-13;
1,32781256460648E-12;
9,07720518069842E-13;
3,86421578524252E-13;
9,43557235600042E-13;
2,09159100921261E-13;
6,39666150908981E-14;
8,53940646126734E-14;
-3,22491648432549E-13;
3,80794909915923E-13;
4,60818890602154E-13;
2,38177477889405E-13;
-2,55224005708922E-13;
-1,95241630118757E-13;
5,40984461215008E-13;
6,76550761874816E-13;
7,35988908641149E-13;
3,4971284984143E-13;
1,2720591247746E-13;
1,79366973511283E-13;
3,57936292545836E-13;
3,81812381123404E-13;
3,97876800362123E-13;
3,06764476131928E-13;
-8,32138257289696E-14;
5,14683959385853E-13;
2,7627991179445E-13;
-1,15010004500092E-14;
5,97596200690186E-13;
2,33565466437518E-15;
-7,77686874366494E-14;
4,46890083302134E-14;
2,78339779959075E-13;
8,57991146594579E-13;
-1,280911090975E-13;
2,25376624669407E-13;
1,34742460341973E-12;
4,53492925431143E-13;
-9,12029090187843E-14;
2,49228047803321E-13;
5,71778754924907E-13;
2,60439809056228E-13;
-7,17251867286284E-14;
7,06801971596365E-13;
4,50151390300846E-13;
2,61934336349069E-13;
9,78431544835896E-13;
-4,97346062411472E-14;
2,70703609624608E-13;
9,92330459104744E-13;
-1,45871365864293E-13;
4,90759453262289E-13;
5,93616782575285E-13;
-2,3245445444291E-13;
4,05980295563731E-13;
2,38509653590789E-13;
1,23211000049493E-13;
5,5921989325403E-13;
4,15654513033477E-13;
8,07218446095663E-13;
5,56979136765954E-13;
-2,00453063893682E-13;
-2,88367981229812E-13;
-4,18621130564053E-13;
1,54028394006765E-13;
4,10935134241179E-13;
3,54220064125244E-13;
8,80207895571813E-13;
3,61661426830405E-13;
4,06473267566185E-14;
1,685339879825E-13;
2,16068460361747E-13;
2,95381383652078E-13;
-2,18079788879911E-13;
9,77307277650593E-14;
2,79168354021397E-13;
-9,51797781661379E-14;
2,0906306071305E-13;
7,05930350911629E-13;
5,13460924531844E-13;
1,93755259383347E-13;
7,50363711952407E-13;
1,07901568302512E-13;
-5,78797669819632E-13;
3,70939246275957E-14;
3,1313729194227E-14;
-2,47320923511289E-13;
-1,76299048655934E-13;
2,40219334292435E-14;
-3,49188666249229E-13;
1,55464598680889E-13;
5,21858905787385E-13;
-1,6097782679305E-13;
8,8359600418476E-13;
9,63376734898615E-13;
2,31568458851333E-13;
7,41028334509304E-13;
1,34325798047072E-13;
-4,11382020218245E-13;
-3,89976963793948E-14;
1,7238681094226E-13;
4,49377081575123E-13;
5,60674256297359E-13;
5,59528635035377E-13;
4,8534236378457E-13;
3,79482639656058E-13;
8,3760966562713E-13;
4,67504748269091E-13;
2,57365899609423E-13;
1,23614704112781E-12;
3,49974180828753E-13;
-2,86761104825718E-13;
4,75474748336384E-13;
3,72831063551493E-13;
3,22178399952301E-14;
2,33585511747333E-13;
1,02873049726407E-12;
2,14779120918177E-13;
-1,29407822314547E-13;
8,20965372788501E-13;
-1,16206065685578E-13;
-1,7724725471966E-13;
3,03014331075875E-14;
1,74387970510465E-14;
7,2139217534981E-13;
-2,00725425638603E-13;
8,68110440343881E-14;
9,25281521667428E-13;
1,9047913976809E-13;
1,25185834856042E-13;
2,78283727624079E-13;
4,1232807386622E-13;
6,22305152652399E-13;
8,14163850011444E-13;
3,92904189142013E-13;
-3,09094652004081E-13;
9,6335310433858E-14;
5,81983893937616E-13;
9,08228985358816E-13;
7,70752148446682E-13;
4,49400059333973E-13;
8,70265488087378E-13;
7,38358360718585E-13;
1,65802138707289E-13;
3,84738292815334E-13;
4,34648782949808E-13;
4,27160471258291E-13;
1,35237529104236E-12;
5,329105715753E-13;
-1,91447361559186E-13;
6,04131801386189E-13;
-4,09648741946463E-14;
5,40081741258063E-13;
8,40823790517735E-13;
2,9721641859818E-13;
8,96998424904145E-13;
4,68709583573482E-13;
4,69521297048846E-13;
6,02228158478064E-13;
4,17417354234112E-13;
1,96588430382123E-13;
3,24405010764579E-13;
5,68505976253988E-13;
-3,44057976892341E-13;
5,70112290564066E-13;
1,01667035253164E-12;
-4,08593166383104E-14;
1,11002286804698E-13;
1,57106275623817E-13;
7,19186938308222E-13;
8,25588234373758E-13;
4,68954986740023E-13;
2,12684551519147E-13;
-5,59714798740816E-13;
-3,79009485828287E-13;
-2,82998593518837E-13;
4,48566047427691E-14;
4,43021358887397E-13;
4,08558178050945E-13;
1,04763654093286E-12;
6,29803590835365E-14;
-3,03848568059448E-13;
9,24863398111794E-13;
-2,34798020282812E-13;
-7,37644486842188E-13;
2,95722895589794E-13;
1,01623580418719E-13;
1,72995567520888E-13;
5,44601027130254E-13;
4,25769623628069E-13;
2,45176295682329E-13;
4,57279614469408E-13;
3,47020992577292E-13;
-1,69115685718939E-13;
9,61161901673054E-13;
8,09092682992498E-13;
-7,68991629597368E-13;
3,20267955775263E-13;
5,76356644110363E-13;
1,64450697392933E-14;
1,13222336786289E-12;
8,83340698389979E-13;
1,35755580372598E-13;
6,90299669743886E-13;
6,96390590639978E-13;
2,59349148534471E-13;
4,59458570741464E-13;
7,14093178257688E-13;
2,06686600024817E-13;
-1,94290078817475E-13;
9,9850342549829E-13;
8,39365515529839E-13;
-5,59367291433061E-13;
4,52534478203249E-13;
6,66941565276381E-13;
-2,17032317387058E-13;
6,46565537449756E-13;
1,05344590801535E-12;
7,06688642589243E-13;
1,1354560500593E-13;
1,5051115502158E-13;
1,30049913196083E-12;
4,36407608704375E-13;
-2,76083858966645E-14;
1,01248972839548E-12;
-2,68202550090521E-14;
-2,3248057192253E-13;
8,56133501523812E-13;
5,12475273057919E-13;
3,64334320838176E-13;
7,25882860058361E-13;
2,28154746758853E-13;
-4,89472225158515E-13;
-1,95861120357206E-13;
5,50474473476739E-13;
5,48888941236022E-13;
1,15495749149896E-13;
8,12721407831667E-13;
1,38418126162777E-12;
5,49990583605807E-13;
5,09016263964135E-13;
8,78988964293439E-13;
4,17131362746868E-13;
2,2532018323998E-13;
3,92659438648222E-13;
8,20576436970845E-13;
6,58507543330182E-13;
-4,09820099909433E-13;
4,20151693859397E-13;
9,92316759232707E-13;
3,91689048682889E-13;
1,05585100706816E-12;
3,48013519212108E-13;
-1,84238600551606E-13;
1,36527009337873E-14;
2,096010914182E-14;
5,63017389539719E-13;
2,85935046713763E-13;
5,40966157517492E-13;
4,48708372217389E-13;
6,02020350897525E-13;
1,17743638549309E-12;
1,94192949897354E-13;
2,04152914908568E-13;
1,03980938313837E-12;
6,79101304786054E-13;
-2,40041077293378E-13;
-2,98970757017217E-13;
7,01614834261378E-13;
1,16763475238464E-12;
6,23326873571044E-13;
2,89896708112765E-13;
1,91246654893543E-13;
2,46967891287418E-13;
2,55571360053075E-13;
-2,47579396679368E-13;
5,51749326320338E-13;
1,14737947064348E-12;
-1,54662150774519E-13;
-2,65964430874782E-13;
6,1750609239423E-13;
6,64392748207037E-13;
5,84373225359424E-13;
9,94607792053747E-13;
9,62943351914603E-13;
-1,76766773895371E-14;
-2,51005025173656E-13;
5,59367160859056E-13;
9,28119959442374E-13;
7,86805366212147E-13;
6,83528265313733E-13;
3,13733121052788E-13;
2,70819897368645E-13;
4,58670760556561E-13;
-4,05423784511997E-14;
3,08966480619075E-13;
8,8916988673869E-13;
4,81608679908563E-13;
-7,922980861928E-14;
-5,22450209224738E-13;
6,20967630217686E-15;
3,20084155345821E-13;
4,53326842276547E-13;
6,85759747644213E-13;
5,46826496028384E-14;
8,65362349680434E-14;
5,09338913464784E-13;
5,92490311817959E-13;
3,97194595106064E-13;
2,36497197421439E-13;
3,50232114384014E-13;
8,30161127679147E-13;
1,21072123442619E-12;
6,18080580939954E-13;
8,12380827262381E-13;
1,25675115121788E-12;
5,35737333856266E-13;
-1,52521755769843E-13;
1,16624038752219E-14;
1,06284895826638E-12;
4,74410393489226E-13;
-5,86572832528863E-13;
5,32754596992256E-13;
2,94748178143567E-13;
1,31787872798743E-13;
1,15288841276147E-12;
1,78930330686844E-13;
-1,25421034423474E-13;
1,85448996851192E-13;
-3,92982070038268E-13;
-1,27474783130045E-13;
7,17591976307647E-13;
5,95802255072676E-13;
-4,12189093403998E-13;
1,4398793657259E-13;
7,65956978144827E-13;
-2,36338266052825E-13;
2,27272405669827E-13;
1,11350690139998E-12;
5,58713805693253E-13;
3,95282576582641E-13;
4,14654533017192E-13;
-2,83279535657762E-13;
-7,62790699899987E-14;
1,23013833847808E-12;
9,20904968110578E-13;
1,92704965427629E-13;
8,90125459740012E-13;
7,64050753832271E-13;
8,8261735421485E-14;
-2,09932328711096E-14;
-1,48073483318229E-13;
2,9133609070455E-13;
9,42698434105104E-13;
1,19944530657964E-12;
8,72344255461844E-13;
2,58386667126505E-13;
6,37315077118653E-13;
8,14846192834186E-13;
4,68408729359822E-13;
5,65478403446801E-13;
3,80347538126758E-13;
5,29867748800036E-13;
8,95923197546745E-13;
5,20845625162603E-13;
4,22018583074101E-13;
3,05588615914084E-13;
6,26785622712196E-14;
5,99518459693193E-13;
2,78542246590713E-13;
-1,75128444534888E-13;
4,33531788893043E-13;
9,70945092843475E-13;
1,34467828947508E-12;
6,14055198589368E-13;
1,25383324193742E-13;
5,01691237191856E-13;
1,65478498969957E-13;
6,13692909416732E-13;
1,12942322572602E-12;
1,97108570931369E-13;
1,23315933932531E-13;
5,90858588978311E-13;
-4,09373644811763E-13;
-1,77344891269804E-13;
8,96973594460296E-13;
2,83324927953734E-13;
3,69194838813728E-13;
6,90472871794004E-13;
5,85763086184314E-13;
5,52993750628741E-13;
-3,22216677831351E-13;
4,56637262735556E-14;
6,99429163909141E-13;
4,12400631810134E-13;
4,81940135023497E-13;
1,69955060593105E-13;
5,76986670987896E-13;
8,38017925851089E-13;
9,3128090287698E-14;
5,37467235959711E-13;
5,61138529778925E-13;
-1,87196614952115E-13;
7,46865997218162E-13;
7,91168631546601E-13;
-4,73369640675041E-13;
2,3227481167754E-13;
6,13171021062017E-13;
4,95870371945874E-13;
1,21106521732639E-12;
9,02445443664584E-13;
1,81500782052597E-13;
3,36126207313908E-13;
9,72021521219745E-13;
1,49214101972089E-13;
-5,05490721253625E-13;
2,02539958836266E-13;
-1,7177133187022E-13;
3,54607376495367E-13;
9,89044046800116E-13;
2,25782573898097E-13;
2,91129814235083E-13;
3,52361040485858E-14;
3,17494113215071E-13;
6,45981516618754E-13;
3,12207692544611E-13;
1,03405472013825E-12;
6,24542833332799E-13;
4,42650388663553E-13;
8,6807783651642E-13;
-6,03294588992091E-14;
3,68554255352042E-13;
1,46450454162569E-12;
3,90215387601912E-13;
-2,98859005650359E-13;
1,12164374233116E-12;
9,04290801980021E-13;
-1,56512583411788E-13;
1,52472204833465E-13;
4,21468839823696E-13;
8,90682186750666E-13;
6,47861342056131E-13;
5,88756036348049E-13;
1,18556335510277E-13;
-3,03132973723987E-13;
9,55682565375685E-13;
-1,18529713704072E-13;
-6,4152980186214E-14;
9,12595752549543E-13;
-6,53960285644775E-13;
5,82372257282705E-14;
3,94737342397247E-13;
4,2751930770607E-15;
6,16032263664658E-13;
-1,12457124586363E-13;
8,90468408786511E-14;
6,42850931051349E-13;
2,10659280828229E-13;
-3,54803373616885E-13;
-3,05010110254565E-14;
4,52296763536019E-13;
-2,13852449540941E-13;
1,20903350523163E-13;
7,26034738059491E-13;
9,14623144036854E-13;
1,5724450650838E-12;
7,62716200294046E-13;
-1,09362597615867E-13;
3,49721751896752E-13;
1,55581253680241E-13;
3,75392108231729E-13;
1,39867365777655E-12;
5,7673045562952E-13;
-7,68165156098247E-13;
-3,30360931709554E-13;
2,11741672943748E-14;
3,1397243247387E-13;
7,61055100178485E-13;
6,31533938069179E-13;
4,4982146206636E-13;
2,43471860154642E-13;
5,55896650824319E-13;
6,88190002988439E-13;
5,71149477587747E-13;
3,54354126212162E-13;
5,60334746853118E-13;
9,15506398345442E-13;
3,14430651288794E-13;
6,45250924209695E-13;
4,90578281342541E-13;
6,44142566244559E-14;
8,40110516139945E-13;
1,04774616407573E-13;
-1,16277256627922E-14;
1,05316151417449E-12;
2,47899736329616E-13;
-2,80671294299234E-13;
1,79887823559532E-13;
-4,15871943201569E-14;
-5,511426753156E-14;
1,17195421807387E-13;
1,61563704397009E-13;
3,27065400667785E-13;
5,2029208904201E-13;
2,80425149877557E-13;
1,27063403723401E-13;
9,56294967229533E-13;
4,41956768543559E-13;
-2,76026092602174E-13;
1,19926452416656E-13;
-1,36622096601743E-13;
2,1683702159957E-13;
5,2225216666194E-13;
5,30279428227988E-13;
8,78508178726104E-13;
4,05135819040788E-13;
3,65449190921431E-14;
2,66922626440851E-13;
5,80559416399448E-13;
1,11578251994056E-12;
5,47423927095201E-13;
6,04117592787328E-14;
1,50849090105837E-12;
1,10169446296088E-12;
2,03087159523494E-13;
9,91166170482469E-13;
2,17719095735727E-13;
2,87345266570388E-13;
9,51641334350395E-13;
6,476463000047E-13;
9,90166331530096E-13;
3,87622720753058E-13;
1,64653787229169E-13;
4,91076566369756E-13;
4,24934660367717E-13;
5,91726800263443E-13;
-2,68075363628165E-14;
1,52578474977029E-13;
1,71281081392086E-13;
-2,27094589705682E-13;
6,17894631530209E-13;
3,24256410013918E-13;
3,26218396685375E-13;
9,52839441170126E-13;
4,84275634810672E-13;
4,94842152816631E-13;
3,22631136019666E-13;
3,17822794464504E-13;
7,62884342091715E-13;
4,15606452946377E-13;
6,38790935443655E-13;
1,22835385221299E-12;
4,42267830131803E-13;
-1,21052146199328E-13;
1,14959618935393E-12;
1,21063208271537E-12;
-1,81453358347032E-13;
-2,84815883936577E-15;
2,84109746470866E-14;
-3,92973654156479E-13;
-9,04324337173343E-16;
1,46115162533561E-13;
9,93587887152171E-13;
1,4942198674069E-12;
6,10808148348739E-13;
4,2913167357287E-13;
5,90567003763737E-13;
6,57727883884233E-13;
2,55748396645273E-13;
-4,89052532561759E-14;
9,75697027726964E-14;
-3,87690055252418E-15;
7,7825140922782E-13;
7,20750753553722E-13;
5,62026830807396E-13;
3,95998315830002E-13;
-3,85643834528636E-13;
6,25675491061859E-13;
8,7163972017658E-13;
8,54522481343207E-13;
8,14398596844205E-13;
1,37641634333233E-13;
2,56805200122651E-13;
-2,42173282670378E-13;
-2,14203497352717E-13;
-2,78000224663063E-14;
-5,57353341953272E-14;
4,74179064811118E-13;
3,94382747246042E-13;
4,45342743062674E-13;
7,37040806739542E-13;
3,38473295232382E-13;
1,16561737240812E-13;
6,51177290365498E-13;
1,46138259945817E-12;
1,03854264671144E-12;
-1,75386254982226E-13;
-6,51353457774418E-15;
5,11400228289729E-13;
5,49450108865148E-13;
1,53364389902593E-14;
2,60818234343824E-13;
7,76147138375508E-13;
1,24871703440772E-13;
7,16239200004651E-13;
9,75928063808235E-13;
1,44410458761516E-13;
2,81684046859575E-13;
8,28307611150681E-13;
1,02057792646588E-12;
3,53474695619018E-13;
1,14651356825687E-13;
4,84316369442452E-13;
-2,81306174947349E-13;
-6,26080998088661E-13;
6,50900243288352E-13;
1,20180968418001E-12;
3,14742293829455E-13;
3,68405110821952E-13;
3,67809635917984E-13;
-1,88130482614764E-13;
6,2160290148861E-13;
1,27518587870746E-13;
-3,79923774384132E-13;
1,06928392794184E-12;
1,18525286142538E-12;
-1,48910854781787E-13;
-3,28483940055181E-13;
9,02186799431653E-13;
3,09128208863055E-13;
-6,85410373515572E-14;
1,28932795334571E-12;
4,80556011089065E-13;
3,59446187641538E-14;
5,78067826435704E-13;
-2,63308496951972E-14;
3,7368740534292E-13;
5,59518916934393E-13;
5,88507709180492E-14;
5,05702567401809E-13;
1,61553827565196E-13;
-3,82898352073572E-13;
6,72954316691411E-13;
3,76634387336332E-13;
-5,37252771565969E-13;
8,3099041339081E-13;
7,71487436110502E-13;
1,77590566400915E-14;
9,95326750412033E-13;
3,92904107283392E-13;
-2,47023628831607E-13;
4,50644053815562E-13;
6,16382105905766E-14;
-5,17030137627266E-14;
5,94247489676062E-13;
5,38936864391512E-13;
-5,72692676492959E-14;
-6,49514823226063E-14;
5,06242405482728E-13;
7,10454917554107E-13;
9,2703927809762E-13;
2,54145526418925E-13;
-2,26395553656055E-13;
5,10815155208107E-13;
2,2554094805584E-13;
3,0271852771422E-13;
5,78001908287423E-13;
-7,09640650715716E-14;
1,36529698025969E-13;
4,7659056854817E-13;
5,22522797959524E-13;
3,19186541593844E-13;
2,31799726950925E-13;
9,06285037178837E-13;
7,81165680017348E-13;
5,08804197330675E-13;
1,03149112268395E-12;
3,75786634355616E-13;
-5,07390511007835E-13;
5,25341652498633E-13;
1,04212488879876E-12;
4,78487256972088E-13;
7,3434298169155E-13;
3,6134842488286E-13;
-8,33991959452445E-14;
6,92204318870682E-13;
6,60091597538245E-13;
8,96134200958352E-14;
-2,17312918566762E-14;
3,28412091245652E-13;
5,47977618552525E-13;
-1,64733655382518E-13;
2,47035703195406E-13;
1,45886839611329E-13;
-4,5625584243345E-13;
9,90035401684743E-13;
5,68843421168095E-13;
-3,27771233600201E-13;
1,97702185504481E-13;
2,66700988762598E-14;
1,2504799623964E-13;
-4,08156201687045E-13;
2,9986938411638E-13;
1,35593706929877E-12;
-6,37398934097456E-14;
1,45550758591304E-13;
6,65078804420374E-13;
1,89723444965452E-13;
6,65140481792875E-13;
2,9735890045201E-13;
5,12726925486075E-14;
2,83684761887026E-13;
7,32606712893994E-13;
8,26452647435888E-13;
-2,29079498787482E-13;
4,95918414775677E-13;
9,64931682478328E-13;
-4,30541786794809E-14;
5,59369361279865E-13;
4,86267404763992E-13;
-7,10923632198023E-14;
2,74623707490592E-13;
4,73768828360371E-14;
8,78194108574486E-13;
9,52342743392704E-13;
-3,63401793213473E-14;
6,26057401380869E-13;
7,90187302024903E-13;
5,62358594377069E-13;
7,22209853162598E-13;
6,01973188476503E-13;
2,19725076049146E-13;
-2,36384947056947E-13;
1,26275849116646E-13;
2,05047179905652E-13;
-2,61393081926172E-13;
4,60066368072237E-13;
1,08416650897508E-12;
6,25556345287094E-13;
4,65233871628027E-13;
5,01316245763333E-13;
3,24639939339973E-13;
-1,09397973748698E-13;
-2,26279390052726E-13;
4,75465449812176E-14;
4,30964954292761E-13;
9,28869251636734E-13;
9,09043753617188E-13;
5,12551791265811E-13;
-1,15600573273798E-13;
3,85601384830438E-13;
1,15525317605685E-12;
5,7109018797263E-13;
4,44624067082597E-13;
2,97766306052536E-13;
5,51888427284808E-13;
8,67684473604757E-13;
1,4900371966065E-13;
5,7953968907036E-13;
6,18082953310345E-13;
3,85585099874287E-13;
1,10476228798802E-12;
6,76733369264183E-13;
2,55789028360484E-13;
8,04364818777351E-13;
1,05573918071335E-12;
5,26974229188716E-13;
3,63270331514105E-13;
2,56923161969448E-13;
-2,26197764140691E-13;
8,51647127690383E-14;
-2,48907906950912E-13;
6,84835252099522E-15;
1,39931884192851E-12;
7,18405632896682E-13;
3,94247981115667E-14;
5,39597786868882E-13;
2,9214976445729E-13;
3,35810658886923E-13;
8,07199534881726E-13;
8,70766214668514E-13;
-3,16779418204774E-13;
-1,00551087599762E-12;
3,72253564999938E-13;
4,35413341716247E-13;
3,19068813254496E-13;
7,89789706736351E-13;
9,94601160759475E-14;
4,3039722038571E-13;
2,64342484078516E-13;
-3,84377631516896E-13;
2,72111680530393E-13;
2,07831382730036E-13;
7,96128349055362E-14;
3,23806424472476E-13;
6,0504447511714E-13;
9,8115864267807E-13;
5,71006026567046E-13;
3,09849838756606E-13;
6,77184911366305E-13;
7,9310294721763E-13;
5,43058489780238E-13;
1,81430614739359E-14;
1,11169538860615E-13;
6,93140009886501E-13;
-1,3617470626455E-13;
-7,79535130457912E-13;
2,97064301955601E-13;
1,31452276201546E-12;
9,14742607045686E-13;
2,3223607244438E-13;
6,45615757402171E-13;
4,65036541394511E-13;
-2,91321765087745E-13;
5,01508732390559E-13;
1,3217836082125E-12;
3,81622236363284E-13;
6,02743045933282E-14;
9,23049763087273E-13;
5,67447127721002E-13;
-1,47123346615662E-13;
6,64243743710304E-13;
8,56190513293029E-13;
2,85802666727354E-13;
5,83174618192626E-13;
5,46836298820698E-13;
5,75702862974138E-13;
2,56501193326737E-13;
2,17644508606551E-13;
8,82906097407303E-13;
7,7976733461272E-13;
7,05292794538406E-13;
4,8907911714223E-13;
7,34451389505574E-13;
4,47063713818459E-13;
-4,83140754909998E-13;
-1,02107268590816E-13;
8,37306920625353E-14;
5,86113283528759E-13;
4,5842730278091E-13;
-3,2318805032823E-13;
7,70209199750091E-13;
3,8485986506019E-13;
-7,81918841619464E-13;
-2,00831198347351E-13;
-3,24920460514699E-13;
-4,7698047106926E-13;
2,37902332675421E-13;
6,35330246050544E-13;
6,3479291194748E-13;
7,58655655495992E-13;
6,70276772447559E-13;
5,72045851327059E-13;
6,32919262110691E-13;
-3,9030466144697E-14;
-3,76560192087973E-13;
1,74515309307869E-13;
7,61006297480185E-13;
7,80078965330626E-13;
7,37801146946004E-13;
1,0060146773301E-12;
1,96959300311022E-13;
1,48006376988015E-13;
