3,80414560646018E-7;
4,09661212339798E-7;
3,49935305833292E-7;
2,10076190391858E-7;
4,12357943041938E-8;
-9,38658163010377E-8;
-1,62160457070937E-7;
-1,79321470876406E-7;
-1,90296280709223E-7;
-2,27011198792522E-7;
-2,79632900270746E-7;
-3,07394202130485E-7;
-2,80351097329009E-7;
-2,13928138082628E-7;
-1,61249789003108E-7;
-1,64403460597578E-7;
-2,05218548220163E-7;
-2,03159392118123E-7;
-7,23275252857846E-8;
2,01819337021668E-7;
5,28891178888819E-7;
7,57961689674217E-7;
7,7417369338166E-7;
5,77046135271628E-7;
2,79761028920826E-7;
2,83574613604657E-8;
-9,75195789940253E-8;
-1,26280104613991E-7;
-1,49477424709382E-7;
-2,32092713198769E-7;
-3,55502418066008E-7;
-4,40876115612195E-7;
-4,29940604902172E-7;
-3,48335910428603E-7;
-2,89869998266755E-7;
-3,28993707541708E-7;
-4,35900276171836E-7;
-4,74556867375215E-7;
-2,9912391933168E-7;
1,20308885124741E-7;
6,44764971706044E-7;
1,03803597843719E-6;
1,11790498057564E-6;
8,76001345277383E-7;
4,75727252397636E-7;
1,30738679652988E-7;
-4,14559639186169E-8;
-7,9482066231709E-8;
-1,12568503435336E-7;
-2,32436355892278E-7;
-4,13390052221094E-7;
-5,45873871352232E-7;
-5,48717562866199E-7;
-4,55719993311589E-7;
-3,93387589952011E-7;
-4,62205736441093E-7;
-6,23076663717926E-7;
-6,95465354774321E-7;
-4,85412727027017E-7;
4,94995117262974E-8;
7,31687537619908E-7;
1,25695646726713E-6;
1,38926945184335E-6;
1,11368587003617E-6;
6,33215555873237E-7;
2,15010237174884E-7;
6,59893344906755E-9;
-3,86034427585116E-8;
-7,94827427980976E-8;
-2,28826700291023E-7;
-4,55400648927926E-7;
-6,25514516546892E-7;
-6,39983717690401E-7;
-5,38923462584501E-7;
-4,74385005833935E-7;
-5,67210906468174E-7;
-7,71109286130752E-7;
-8,70892758508641E-7;
-6,35070040560606E-7;
-1,12973212444197E-8;
7,93139656763139E-7;
1,42153036120615E-6;
1,59613237342434E-6;
1,29663198326676E-6;
7,56195339624962E-7;
2,82878909272311E-7;
4,72310884914039E-8;
-3,29648153384069E-9;
-5,01002241761078E-8;
-2,21977461999816E-7;
-4,83528829131174E-7;
-6,8278839506504E-7;
-7,06904487367557E-7;
-6,00683644756704E-7;
-5,35353249371383E-7;
-6,47070325921734E-7;
-8,84211686538552E-7;
-1,00568020961211E-6;
-7,51864876277469E-7;
-6,27983243554562E-8;
8,32412080777851E-7;
1,53824638795022E-6;
1,74600996031181E-6;
1,43109919794856E-6;
8,48491690714925E-7;
3,36011836724471E-7;
8,10318211312934E-8;
2,68080899163401E-8;
-2,42665432782753E-8;
-2,12541488663002E-7;
-4,99649668710216E-7;
-7,20522441422237E-7;
-7,52484955629712E-7;
-6,43597778194938E-7;
-5,78665090249917E-7;
-7,04714108249215E-7;
-9,66418179412685E-7;
-1,1044686669559E-6;
-8,39422171552882E-7;
-1,05733259351678E-7;
8,52585151937469E-7;
1,61323802775988E-6;
1,84602327466526E-6;
1,52302893141076E-6;
9,13743851179442E-7;
3,76010216321157E-7;
1,08596052340017E-7;
5,20926195042246E-8;
-1,80821701801489E-9;
-2,01102934668059E-7;
-5,0550863031787E-7;
-7,4137347416822E-7;
-7,79551353045387E-7;
-6,70117340757895E-7;
-6,06566380039608E-7;
-7,42912546082825E-7;
-1,02154729252223E-6;
-1,1716576237213E-6;
-9,01195940707388E-7;
-1,40831187348313E-7;
8,56516454055807E-7;
1,65224025228108E-6;
1,90285726289715E-6;
1,57801356554126E-6;
9,55393227029873E-7;
4,04407838930349E-7;
1,30510756253306E-7;
7,29441025322864E-8;
1,74667432120771E-8;
-1,88184238174495E-7;
-5,02716387369779E-7;
-7,47803863306816E-7;
-7,90736320332408E-7;
-6,8252954425781E-7;
-6,21156896295927E-7;
-7,64267836340755E-7;
-1,05318969278333E-6;
-1,21139044316985E-6;
-9,40448807939011E-7;
-1,68812730668703E-7;
8,4683675180683E-7;
1,66057896657905E-6;
1,92273108788395E-6;
1,60126525037983E-6;
9,76659417732765E-7;
4,22654865123772E-7;
1,47344279036903E-7;
8,97478919282794E-8;
3,37665729561838E-8;
-1,7424355760613E-7;
-4,92750241834312E-7;
-7,42091387896719E-7;
-7,88477123687548E-7;
-6,82958044974168E-7;
-6,24388871006556E-7;
-7,71199163232369E-7;
-1,06468997254147E-6;
-1,22752753519668E-6;
-9,6023606300644E-7;
-1,903853119177E-7;
8,25947429181817E-7;
1,64315886593561E-6;
1,91138683028199E-6;
1,597607470956E-6;
9,80534108428219E-7;
4,3211079880166E-7;
1,59649703185489E-7;
1,02887675608894E-7;
4,7303276832708E-8;
-1,59682523326003E-7;
-4,76950745957263E-7;
-7,26316836267606E-7;
-7,75007356487855E-7;
-6,73351971135881E-7;
-6,18062718724088E-7;
-7,65945686042496E-7;
-1,05914019896979E-6;
-1,22364383572583E-6;
-9,63396148051059E-7;
-2,06229781835656E-7;
7,96018243844669E-7;
1,60445424631229E-6;
1,87408654491195E-6;
1,57147171021004E-6;
9,69771703660852E-7;
4,34041950524838E-7;
1,67954556047132E-7;
1,1273612239791E-7;
5,83010264821946E-8;
-1,44842213634237E-7;
-4,56522043728338E-7;
-7,02366471909181E-7;
-7,52362802277683E-7;
-6,55490123961595E-7;
-6,03823437806167E-7;
-7,5055449338259E-7;
-1,03937319489718E-6;
-1,20302267248596E-6;
-9,52547813520175E-7;
-2,17002510196541E-7;
7,58999893438262E-7;
1,54852576236777E-6;
1,81560806553862E-6;
1,52688740049136E-6;
9,46893486111101E-7;
4,29619320532849E-7;
1,72757119031182E-7;
1,19653629184839E-7;
6,69787597628737E-8;
-1,30016652593978E-7;
-4,32543121076516E-7;
-6,71940344564598E-7;
-7,22373887022864E-7;
-6,30976721799343E-7;
-5,83162710491196E-7;
-7,26889810106338E-7;
-1,00796854675844E-6;
-1,1686517914467E-6;
-9,30084294832927E-7;
-2,23323564531892E-7;
7,16626797584341E-7;
1,47901502493282E-6;
1,74025751713641E-6;
1,46750071472494E-6;
9,14184554719655E-7;
4,19913424781493E-7;
1,74528467081194E-7;
1,2398585008742E-7;
7,35572075439692E-8;
-1,15447574354309E-7;
-4,05965210842705E-7;
-6,36555588336007E-7;
-6,86687916857512E-7;
-6,01258227210298E-7;
-5,57423238676386E-7;
-6,96629170120275E-7;
-9,67258577993774E-7;
-1,12324017745478E-6;
-8,9817924005989E-7;
-2,25781249033567E-7;
6,70424198128556E-7;
1,39917032619868E-6;
1,65188523524895E-6;
1,39657505631015E-6;
8,73699313156262E-7;
4,05899142754192E-7;
1,73707709361948E-7;
1,2606073420654E-7;
7,82512869525932E-8;
-1,01336837025779E-7;
-3,77621937827568E-7;
-5,97547186785553E-7;
-6,46759457956695E-7;
-5,67617779274107E-7;
-5,27803562643842E-7;
-6,61274880740101E-7;
-9,19322084434004E-7;
-1,06920713838459E-6;
-8,58793329710982E-7;
-2,24923821821806E-7;
6,21725592540119E-7;
1,31185560223902E-6;
1,55390145760625E-6;
1,3170122401437E-6;
8,27275309305776E-7;
3,88458690484741E-7;
1,70702274792264E-7;
1,26185417073738E-7;
8,12702203213864E-8;
-8,78381707659246E-8;
-3,48236398732471E-7;
-5,56092071956185E-7;
-6,03868908301213E-7;
-5,31184661808202E-7;
-4,95360471074046E-7;
-6,22160208331142E-7;
-8,66016316246959E-7;
-1,00871061762884E-6;
-8,1367453930659E-7;
-2,21262794810213E-7;
5,71678918223889E-7;
1,21957939879214E-6;
1,44930226681229E-6;
1,23136584681464E-6;
7,76534681470819E-7;
3,68379153855266E-7;
1,6588297567077E-7;
1,24647751263198E-7;
8,28159400694161E-8;
-7,50772448148672E-8;
-3,18427393185916E-7;
-5,13206625019814E-7;
-5,59132600157136E-7;
-4,92946182540183E-7;
-4,61024056272786E-7;
-5,80454330549738E-7;
-8,08966634341341E-7;
-9,43652303716053E-7;
-7,64374030721188E-7;
-2,15265053421549E-7;
5,21266677104405E-7;
1,12451073661635E-6;
1,340686535269E-6;
1,1418592862887E-6;
7,22900062445817E-7;
3,46360030995673E-7;
1,59593355842331E-7;
1,21716128650687E-7;
8,30778682469978E-8;
-6,31423737946869E-8;
-2,88717476775607E-7;
-4,69760973883242E-7;
-5,1350795215528E-7;
-4,53756107474636E-7;
-4,25598152751261E-7;
-5,37174783773977E-7;
-7,4959206816745E-7;
-8,75687942967565E-7;
-7,12250620252869E-7;
-2,07361441811751E-7;
4,71310279011628E-7;
1,02850188520411E-6;
1,23029062797506E-6;
1,05041557524071E-6;
6,67604793614737E-7;
3,23013886311576E-7;
1,52137984620149E-7;
1,17634734354694E-7;
8,22372284503422E-8;
-5,20969007996426E-8;
-2,59540341022854E-7;
-4,26491014073493E-7;
-4,6781148934002E-7;
-4,14340358757166E-7;
-3,89771714657558E-7;
-4,93196341186489E-7;
-6,89116911037595E-7;
-8,06252952619909E-7;
-6,58487145155806E-7;
-1,9794327379666E-7;
4,22489106544594E-7;
9,33117541006489E-7;
1,12001131926861E-6;
9,58670630512802E-7;
6,11707788528194E-7;
2,98881078335807E-7;
1,43799874843721E-7;
1,12630104714867E-7;
8,0464567138487E-8;
-4,19761461992159E-8;
-2,31251939300559E-7;
-3,8400970326487E-7;
-4,22724915011496E-7;
-3,75310111747125E-7;
-3,54129193458681E-7;
-4,49265983243795E-7;
-6,28580995568133E-7;
-7,36567833653804E-7;
-6,04099305700566E-7;
-1,87359081728451E-7;
3,75355309073391E-7;
8,39657818781278E-7;
1,01143301972668E-6;
8,67996202205471E-7;
5,56106140553396E-7;
2,74420677669163E-7;
1,34819060751456E-7;
1,06902833352287E-7;
7,79149520536346E-8;
-3,27983236194441E-8;
-2,04134508982663E-7;
-3,4281735403553E-7;
-3,78811593342357E-7;
-3,37173103797686E-7;
-3,19155308612809E-7;
-4,06002746967133E-7;
-5,68857819803369E-7;
-6,67662905426049E-7;
-5,49950575733586E-7;
-1,75924562668673E-7;
3,30341333339267E-7;
7,49178650086376E-7;
9,05859316182836E-7;
7,79529160515285E-7;
5,01544488308583E-7;
2,50025746410196E-7;
1,25415123764226E-7;
1,00635852775158E-7;
7,47350123110936E-8;
-2,45582360723381E-8;
-1,78404865690336E-7;
-3,03310613383983E-7;
-3,36523305416462E-7;
-3,00340388263512E-7;
-2,85247593555883E-7;
-3,6392032357133E-7;
-5,10668324334244E-7;
-6,00390744739994E-7;
-4,96760409096948E-7;
-1,63915809912894E-7;
2,87776666687917E-7;
6,62521385954499E-7;
8,04334958285442E-7;
6,94188723238245E-7;
4,48635437952047E-7;
2,26025733060377E-7;
1,15781096133332E-7;
9,39926946509458E-8;
7,10540584986085E-8;
-1,7239728068439E-8;
-1,54223313267951E-7;
-2,65800046339342E-7;
-2,96216467511736E-7;
-2,65134948495446E-7;
-2,52723687274152E-7;
-3,23433876518389E-7;
-4,54594932013485E-7;
-5,35439407817499E-7;
-4,45122094063302E-7;
-1,5157794980914E-7;
2,47902025385073E-7;
5,80332275249891E-7;
7,07676473299846E-7;
6,1269853073035E-7;
3,97867462343735E-7;
2,02692794986938E-7;
1,06076531239459E-7;
8,71163344121947E-8;
6,69955966524022E-8;
-1,08145082061516E-8;
-1,31703738286218E-7;
-2,30513659604925E-7;
-2,58157624851995E-7;
-2,31806228518675E-7;
-2,21827946821282E-7;
-2,84862105196131E-7;
-4,01097211022307E-7;
-4,73360019948657E-7;
-3,95510438325203E-7;
-1,39122861936233E-7;
2,10872405169135E-7;
5,03086170620134E-7;
6,16494907483268E-7;
5,3560951339232E-7;
3,49620839094601E-7;
1,80245291498053E-7;
9,64426978363497E-8;
8,0129521359188E-8;
6,26630364898669E-8;
-5,24139372020505E-9;
-1,10909778230532E-7;
-1,97607687743147E-7;
-2,22536510761308E-7;
-2,00532455667086E-7;
-1,9274376004347E-7;
-2,48449205410586E-7;
-3,5051917968728E-7;
-4,14569157325699E-7;
-3,48296397362339E-7;
-1,2672835558251E-7;
1,7677888783873E-7;
4,31107544275033E-7;
5,31224330912427E-7;
4,63318411466713E-7;
3,04175861235722E-7;
1,58858515420687E-7;
8,70004159910428E-8;
7,31418416595929E-8;
5,81528751645273E-8;
-4,74798556330146E-10;
-9,1873159159621E-8;
-1,67180934284313E-7;
-1,89479235714897E-7;
-1,71436791982771E-7;
-1,65597732385553E-7;
-2,14367873185637E-7;
-3,03113684156507E-7;
-3,59371297636282E-7;
-3,03756879446629E-7;
-1,1455020972008E-7;
1,45650125919873E-7;
3,64592270430115E-7;
4,52140614885853E-7;
3,96090063407349E-7;
2,61730417684018E-7;
1,38657415542917E-7;
7,78420804304501E-8;
6,62445975571658E-8;
5,35504687466027E-8;
3,53888058596207E-9;
-7,45913652676933E-8;
-1,39274189061939E-7;
-1,59050332271318E-7;
-1,44588409857622E-7;
-1,40467855375996E-7;
-1,82731461474642E-7;
-2,59043715644349E-7;
-3,07971142302444E-7;
-2,62091706747213E-7;
-1,02713180157212E-7;
1,17469737160886E-7;
3,03619852235703E-7;
3,7938433974372E-7;
3,34073391475511E-7;
2,22406138995576E-7;
1,19738513275698E-7;
6,90489487641217E-8;
5,95138127714531E-8;
4,89271633224668E-8;
6,85428833552902E-9;
-5,90357823476124E-8;
-1,13888894662341E-7;
-1,31267449155509E-7;
-1,20009925567968E-7;
-1,17388579632759E-7;
-1,53595321381417E-7;
-2,18399483237405E-7;
-2,60486223156126E-7;
-2,23420148172747E-7;
-9,13233371369262E-8;
9,21724388200005E-8;
2,48179809696134E-7;
3,12981451236807E-7;
2,77316331631606E-7;
1,86259388553729E-7;
1,02159236651093E-7;
6,06828907741857E-8;
5,30138745489916E-8;
4,43471053787802E-8;
9,53007127238875E-9;
-4,51595285868302E-8;
-9,09879641483681E-8;
-1,06105030630819E-7;
-9,76910977690519E-8;
-9,6362400434535E-8;
-1,26974776534191E-7;
-1,81205764700213E-7;
-2,16958473848103E-7;
-1,87810181518281E-7;
-8,04603773518981E-8;
6,96674084880459E-8;
1,98178610441148E-7;
2,52862006556571E-7;
2,25782485956337E-7;
1,53294258832803E-7;
8,59527539595752E-8;
5,27881949947673E-8;
4,67958402928718E-8;
3,98627794858327E-8;
1,16249501340532E-8;
-3,28934848348517E-8;
-7,05011383542037E-8;
-8,35032866204226E-8;
-7,75895269632204E-8;
-7,73597595972819E-8;
-1,02843304984444E-7;
-1,474376793839E-7;
-1,77367172032569E-7;
-1,55265686101185E-7;
-7,01893076934955E-8;
4,98300897649591E-8;
1,53461091749324E-7;
1,98874593240076E-7;
1,79367032535557E-7;
1,23467266838661E-7;
7,11273430178192E-8;
4,54011950333768E-8;
4,08987161353955E-8;
3,55197121557432E-8;
1,32013147998819E-8;
-2,21567032919408E-8;
-5,23351921966394E-8;
-6,33751518287199E-8;
-5,96354965543955E-8;
-6,03254354556512E-8;
-8,1144776050119E-8;
-1,17023054314644E-7;
-1,41641515198428E-7;
-1,25755984372165E-7;
-6,05536170710046E-8;
3,25210176229324E-8;
1,13816181379877E-7;
1,50803778741575E-7;
1,37909022485952E-7;
9,66975870718688E-8;
5,76688917716981E-8;
3,85410683871822E-8;
3,53510053772091E-8;
3,13519294270533E-8;
1,43138532880199E-8;
-1,28620395418048E-8;
-3,63798735148074E-8;
-4,56117630429615E-8;
-4,3741543151876E-8;
-4,51862248851743E-8;
-6,1795542445105E-8;
-8,98538098074358E-8;
-1,09664806831438E-7;
-9,92080934383391E-8;
-5,15842119580191E-8;
1,75830052038537E-8;
7,89962311023292E-8;
1,08385005514832E-7;
1,01199605265412E-7;
7,28734282995814E-8;
4,5549047611608E-8;
3,22180519864175E-8;
3,01740261044061E-8;
2,73896272024706E-8;
1,50196465273814E-8;
-4,91000873071429E-9;
-2,2507098794082E-8;
-3,00861054072759E-8;
-2,98035171412223E-8;
-3,18546707352626E-8;
-4,46932151967104E-8;
-6,57927933132872E-8;
-8,12858974178241E-8;
-7,55210224909081E-8;
-4,32999921127634E-8;
4,85147029077204E-9;
4,8722322022875E-8;
7,13115465614068E-8;
6,89989062245799E-8;
5,18595661687927E-8;
3,47235890156471E-8;
2,64373221406529E-8;
2,53814795456242E-8;
2,36533843173292E-8;
1,53713466577548E-8;
1,80160224315978E-9;
-1,05798254254902E-8;
-1,66622469181077E-8;
-1,77058591709712E-8;
-2,02284489026408E-8;
-2,97186555208626E-8;
-4,46817723692645E-8;
-5,63293534022997E-8;
-5,45670591904686E-8;
-3,57052143863138E-8;
-5,8481264050709E-9;
2,26952506805398E-8;
3,92521059831556E-8;
4,10385710676928E-8;
3,35012604331855E-8;
2,51356173625178E-8;
2,11912960912804E-8;
2,09775595729151E-8;
2,01597202486807E-8;
1,54212475973432E-8;
7,37311551366848E-9;
-4,56860862905508E-10;
-5,1901267131121E-9;
-7,32326297142833E-9;
-1,01998754736153E-8;
-1,67445676581071E-8;
-2,6345416429895E-8;
-3,45955445753199E-8;
-3,62031173161795E-8;
-2,87944274020975E-8;
-1,46874395547281E-8;
5,99883938972515E-10;
1,18530036736006E-8;
1,70321785631244E-8;
1,7632640788193E-8;
1,67249886277119E-8;
1,64691259122312E-8;
1,69619383078765E-8;
1,69181807117824E-8;
1,52171574933763E-8;
1,19113036373085E-8;
8,00853963987571E-9;
4,47974193947611E-9;
1,47164010281298E-9;
-1,65387347418128E-9;
-5,63114022976648E-9;
-1,05973348492326E-8;
-1,58762315371589E-8;
-2,02730394777214E-8;
-2,25553345882773E-8;
-2,1842626362534E-8;
-1,78835596327765E-8;
-1,12461345906057E-8;
-3,31591232524564E-9;
4,0780458695416E-9;
9,41958961243236E-9;
1,22531453367832E-8;
1,33302918993045E-8;
1,39328631082314E-8;
1,48008002646216E-8;
1,55177115508698E-8;
1,49642302382257E-8;
1,2499784976675E-8;
8,80859505398315E-9;
5,5272542667677E-9;
3,76245111739876E-9;
2,75553073425553E-9;
5,13445165086826E-11;
-6,60986134839909E-9;
-1,69689608406042E-8;
-2,74810876184889E-8;
-3,30737313637538E-8;
-3,04121151776162E-8;
-2,0308022334313E-8;
-7,34359938365763E-9;
3,14703078891934E-9;
8,52092429929013E-9;
1,00707559544386E-8;
1,12085342107551E-8;
1,4214148156725E-8;
1,82902468280831E-8;
2,0555075974986E-8;
1,90228457503442E-8;
1,48189938061597E-8;
1,14603686588992E-8;
1,1580170446401E-8;
1,39120191539242E-8;
1,34102296869035E-8;
4,95693012313581E-9;
-1,20101552489674E-8;
-3,17723135703852E-8;
-4,52895207013823E-8;
-4,60060815636348E-8;
-3,42410615557102E-8;
-1,68128492715582E-8;
-2,17031714898787E-9;
5,25138208999308E-9;
7,17150631026988E-9;
8,73853510122618E-9;
1,34925048045514E-8;
2,03249297672838E-8;
2,49208753065147E-8;
2,41980122932492E-8;
1,96316149870662E-8;
1,62623643877037E-8;
1,79658467931327E-8;
2,30657707159202E-8;
2,44236628585999E-8;
1,46025699288505E-8;
-7,64744815984185E-9;
-3,48697384576562E-8;
-5,48354308204687E-8;
-5,83855559482712E-8;
-4,54141853546004E-8;
-2,45107441752371E-8;
-6,60935541478846E-9;
2,4153458156604E-9;
4,61696732960853E-9;
6,52216479190042E-9;
1,26706381956189E-8;
2,17136148565001E-8;
2,81986799272217E-8;
2,81695095936409E-8;
2,33729522196961E-8;
2,00486176951836E-8;
2,30577882821709E-8;
3,04104078336615E-8;
3,33156478659816E-8;
2,24970538126831E-8;
-3,85073090040531E-9;
-3,69261544266874E-8;
-6,20109307044554E-8;
-6,78946669895271E-8;
-5,41130836557536E-8;
-3,06129334086595E-8;
-1,02491531294042E-8;
-1,53853704448674E-11;
2,38700911705332E-9;
4,54558848292512E-9;
1,17754511518477E-8;
2,25415613990949E-8;
3,05196405038328E-8;
3,10777468405396E-8;
2,61618968737009E-8;
2,29291411338111E-8;
2,69950557269126E-8;
3,61339560195669E-8;
4,02999949981305E-8;
2,88115763337831E-8;
-5,81233278746759E-10;
-3,80835314740219E-8;
-6,70997968765513E-8;
-7,48629064178955E-8;
-6,0616202329201E-8;
-3,52911250748789E-8;
-1,31657334059329E-8;
-2,07175507847186E-9;
4,66039877595333E-10;
2,80574355464243E-9;
1,08336592942475E-8;
2,2889620909474E-8;
3,20055321953359E-8;
3,30516821048532E-8;
2,81138300658221E-8;
2,50086573381954E-8;
2,9906189421848E-8;
4,04163601633796E-8;
4,55853326222774E-8;
3,37088284136817E-8;
2,19577168588182E-9;
-3,84708430405612E-8;
-7,03673512619748E-8;
-7,96045483753924E-8;
-6,51846448407646E-8;
-3,87063011366785E-8;
-1,54323222439124E-8;
-3,78148621786075E-9;
-1,17099576386821E-9;
1,28587948387964E-9;
9,86909402872371E-9;
2,28316649393194E-8;
3,27727646541318E-8;
3,42171030280426E-8;
2,93349491230962E-8;
2,63879487080762E-8;
3,19160357191496E-8;
4,34270714358328E-8;
4,93712252360001E-8;
3,73506056184874E-8;
4,51942236238869E-9;
-3,82118244112411E-8;
-7,20646363722215E-8;
-8,24127696740371E-8;
-6,80686074137162E-8;
-4,10169651005016E-8;
-1,7122322978617E-8;
-5,17537368740177E-9;
-2,54286528902961E-9;
-2,49021109619154E-11;
8,89862624125748E-9;
2,24354520855367E-8;
3,29266086713756E-8;
3,46875159823974E-8;
2,99287743102769E-8;
2,71604781537025E-8;
3,31410654391547E-8;
4,53324972557466E-8;
5,18455001555064E-8;
3,98817834852027E-8;
6,42821176130642E-9;
-3,74141352067142E-8;
-7,24243790802919E-8;
-8,3562584134751E-8;
-6,94985950098004E-8;
-4,23662091492515E-8;
-1,8303010454684E-8;
-6,28417913165451E-9;
-3,67235359736006E-9;
-1,14035486859558E-9;
7,93942469901551E-9;
2,1762785738457E-8;
3,25655534886532E-8;
3,45708859949841E-8;
2,99875925670322E-8;
2,74131347767853E-8;
3,36928545767538E-8;
4,62817990789887E-8;
5,31844030286183E-8;
4,14501531656526E-8;
7,95893852372735E-9;
-3,61827322451393E-8;
-7,16607870218355E-8;
-8,33089019743353E-8;
-6,96916998546856E-8;
-4,28909167962727E-8;
-1,9038426021332E-8;
-7,13668220310446E-9;
-4,58195611617677E-9;
-2,07396902730846E-9;
7,00457300391562E-9;
2,08698749767318E-8;
3,1781728725129E-8;
3,39651718831711E-8;
2,95994436444132E-8;
2,72279830949813E-8;
3,36697055236478E-8;
4,64168556766911E-8;
5,3551644281179E-8;
4,21825425499409E-8;
9,14927927227241E-9;
-3,46056701350812E-8;
-6,99677826572877E-8;
-8,18821366098414E-8;
-6,88467158780449E-8;
-4,27175834470459E-8;
-1,93904993550164E-8;
-7,76070949328491E-9;
-5,29115498626307E-9;
-2,84193000859093E-9;
6,10449790507592E-9;
1,98054156254934E-8;
3,0653344668355E-8;
3,2959329132026E-8;
2,88414434132919E-8;
2,66782930252417E-8;
3,31677775422618E-8;
4,58659399534836E-8;
5,30983910713107E-8;
4,2205816270928E-8;
1,00356109400539E-8;
-3,27619899853912E-8;
-6,75231071798167E-8;
-7,94988871830016E-8;
-6,71435453611188E-8;
-4,19601569314637E-8;
-1,94148974079801E-8;
-8,18231313151061E-9;
-5,82205468827681E-9;
-3,45776016391428E-9;
5,25054792562121E-9;
1,861727983257E-8;
2,92551839277915E-8;
3,16324847548609E-8;
2,77860887470977E-8;
2,58311121256601E-8;
3,22704011566673E-8;
4,47495874293803E-8;
5,19637535652379E-8;
4,16338792471315E-8;
1,06531902528429E-8;
-3,07285233944537E-8;
-6,44861583251704E-8;
-7,63450397720557E-8;
-6,47461491138553E-8;
-4,07247550042753E-8;
-1,91643324213898E-8;
-8,42866008255295E-9;
-6,19386980932482E-9;
-3,93558353720021E-9;
4,44553326266031E-9;
1,73400741816357E-8;
2,76526442029432E-8;
3,00580502996824E-8;
2,64964009690212E-8;
2,47471294164443E-8;
3,10533133233309E-8;
4,31737180354556E-8;
5,02747464077383E-8;
4,05672276463958E-8;
1,10340182128609E-8;
-2,8564000044413E-8;
-6,09999669138791E-8;
-7,25932679051773E-8;
-6,18015629571515E-8;
-3,9106306005415E-8;
-1,86829967060718E-8;
-8,5215074670354E-9;
-6,42722534462022E-9;
-4,28978228813983E-9;
3,69739326893186E-9;
1,60103342816916E-8;
2,59022146802741E-8;
2,82989240807984E-8;
2,50301500403523E-8;
2,34802411078715E-8;
2,95879061317868E-8;
4,12363537526121E-8;
4,81418982348485E-8;
3,91013199650617E-8;
1,12091907896114E-8;
-2,63233549389383E-8;
-5,71865399487079E-8;
-6,8399229601569E-8;
-5,8444614113766E-8;
-3,7190025062423E-8;
-1,80182046759385E-8;
-8,48484375230507E-9;
-6,53740822328926E-9;
-4,53436031403437E-9;
3,00650735867596E-9;
1,46573639898073E-8;
2,40555098164551E-8;
2,64112622380203E-8;
2,34372022654477E-8;
2,20798436092133E-8;
2,79351098467472E-8;
3,90220297975539E-8;
4,56698202264908E-8;
3,73211478694642E-8;
1,12064754290456E-8;
0,00933340999128594;
0,0226296766670376;
0,0163726733842277;
0,00943304139059868;
0,0121693567344489;
0,0070261501240692;
0,00563480879112024;
0,00458270350990205;
0,000840495407827377;
0,0010323947482639;
-0,0011904261917779;
-0,00199193050383406;
-0,00280711249110292;
-0,00455365955868118;
-0,00488730441316591;
-0,00585587456047477;
-0,00594118066535081;
-0,00618244537587746;
-0,00699354136602486;
-0,00792069249213893;
-0,00934890978977546;
-0,0102429377182069;
-0,0105185585855391;
-0,010108574077114;
-0,00920769742333981;
-0,0084303130851505;
-0,00783044227053122;
-0,00745747795888296;
-0,00704805802476715;
-0,00641867526185328;
-0,005675441661959;
-0,00495846703618389;
-0,00445305897457791;
-0,00409074737080359;
-0,00366380683064402;
-0,00302654316246971;
-0,00222819848221096;
-0,00157278901996968;
-0,00136104334904112;
-0,00166523479408943;
-0,00222574500147994;
-0,0025871065896194;
-0,00240681671627847;
-0,001657231685682;
-0,000624764379212141;
0,000316654419208755;
0,000963655732188697;
0,00137586256325609;
0,00176512701084224;
0,00227846322892738;
0,00287372251230182;
0,00337822738531083;
0,00366496270784593;
0,00378444389932297;
0,00392476510080674;
0,00423347041855118;
0,00465413458797619;
0,00492916654284315;
0,00478542692009093;
0,00416206630996835;
0,00329837668376433;
0,00260116428293567;
0,00238399716899812;
0,00267129149945748;
0,00320914270617833;
0,00366538133837903;
0,0038587608443131;
0,00384593855926039;
0,00381730035647634;
0,00390618972043307;
0,00407639873924983;
0,00417463642684793;
0,00408916661777024;
0,00386595510173942;
0,00367396666788604;
0,00364553978365057;
0,00373091255444527;
0,00370129027617119;
0,00331397737407469;
0,00251556478227151;
0,00151954899869614;
0,000688052207964087;
0,000299876660277476;
0,000376457332633412;
0,000692009531067841;
0,000951419251734352;
0,000993748259886008;
0,000869177667224213;
0,000746300104604939;
0,000742936288189822;
0,00082654416792175;
0,000860929549521101;
0,000746791982819465;
0,000524391657779007;
0,000342656162489672;
0,000317937321599596;
0,000405578663996161;
0,00040289138873435;
9,51457118135413E-5;
-0,000565171528107149;
-0,0107236299120713;
-0,0246910364090106;
-0,0187063947121716;
-0,0116223944092146;
-0,013997261799897;
-0,00853593492834679;
-0,00701192783971592;
-0,00596902838025234;
-0,0022303442771005;
-0,00231727168297402;
8,97732720806821E-5;
0,00103464904154633;
0,001864757589452;
0,00353261588550667;
0,00382393948938503;
0,00488787991927019;
0,00516658612563216;
0,00552148419917281;
0,00617837646961923;
0,00664178150462078;
0,00746063715430002;
0,00787756713149668;
0,00802155048443141;
0,00784049877329131;
0,00735460377719769;
0,00695104499539098;
0,00655991180171764;
0,00626842655700939;
0,00594144657615522;
0,00548465794481471;
0,00497855685664443;
0,00445880790362944;
0,00403464973515129;
0,003667845375437;
0,00326336568990448;
0,00276324977750965;
0,00218229093502101;
0,00167057506026158;
0,00136624566114007;
0,00130576889212655;
0,0013714613833336;
0,00134801820852925;
0,00107695920783381;
0,000543556052911898;
-0,000116352941948034;
-0,000724593026156829;
-0,00118435266825237;
-0,00152245419905609;
-0,00184024909502543;
-0,00220794501730492;
-0,00260531303050437;
-0,0029492317570668;
-0,00317775738253491;
-0,00331522371433798;
-0,00345291227899498;
-0,00366307914810342;
-0,00391870330877878;
-0,00409375609326312;
-0,00405385449560982;
-0,00376837566453415;
-0,00335502875969438;
-0,00301540714398422;
-0,00290605586864301;
-0,00304043077450881;
-0,00329292590493813;
-0,00349793559732977;
-0,00356466639857548;
-0,00352165368690949;
-0,00346522013654284;
-0,00346340068549887;
-0,00349852571794573;
-0,00349314242901777;
-0,00339049068336212;
-0,00321418638583387;
-0,00305114788681989;
-0,00297000973459154;
-0,00294585102949348;
-0,00286090494143761;
-0,00258937802887076;
-0,00210308454359793;
-0,00151284300033961;
-0,00100789935545986;
-0,00073501998984915;
-0,00070659192727657;
-0,000804746485750631;
-0,000874210546708002;
-0,000829834661900281;
-0,000698126912898911;
-0,000568862428421259;
-0,000505247661819269;
-0,000490303978506548;
-0,000451217971660624;
-0,000334540494846029;
-0,000161831733701144;
-1,36367877153596E-5;
4,66643648603108E-5;
4,2955832432753E-5;
8,55866186466437E-5;
0,000292265835126617;
0,000689736850857767;
0,00117540755485303;
0,00157387290931411;
0,00174940907646844;
0,00169129936509612;
0,00150981377069295;
0,00134982535800997;
0,00129096862798022;
0,00130920579570877;
0,00132184743621443;
0,00127090282406087;
0,00117271731270105;
0,00109530948770072;
0,00108867829351086;
0,00113333559194032;
0,0011552302256244;
0,00109623922588125;
0,000978934735531804;
0,000905727079508506;
0,000985690397768969;
0,00124377885885829;
0,00158553864140554;
0,00184941871386636;
0,00191059754393501;
0,00175957984657008;
0,00149833094042019;
0,00126056188474423;
0,00111976784056779;
0,00105394255957518;
0,000987125225027493;
0,000866118310606978;
0,000706080803238926;
0,000569610911141229;
0,000502672472521489;
0,000487368367872929;
0,000455726653488579;
0,000354436714387075;
0,000204220787504713;
9,89465289962507E-5;
0,000138478094366687;
0,000345517111728164;
0,000633400284173805;
0,000854124738755202;
0,000893418795220946;
0,000742574586863524;
0,000494774677902955;
0,000272116469836364;
0,000141576365947039;
8,28664563266823E-5;
2,64695806708972E-5;
-7,63044319819395E-5;
-0,000211767699716034;
-0,0003230051501908;
-0,000368317119032575;
-0,000364214929033212;
-0,000372789053350236;
-0,00044272698436439;
-0,000555314407330143;
-0,000625332156804703;
-0,000562189166731052;
-0,000345498927791335;
-5,42382341854146E-5;
0,000176992244658134;
0,000244333853020638;
0,000139804887151909;
-5,21542575520659E-5;
-0,000220957648502846;
-0,000306061132193293;
-0,00032601441065344;
-0,000343919250093445;
-0,00040396384528793;
-0,000493855116973186;
-0,000562212494899147;
-0,000571452007361699;
-0,000536620650161955;
-0,000513916118339405;
-0,000547375205889063;
-0,000620151921754602;
-0,000655407336509156;
-0,000571522129016789;
-0,000350235313544344;
-6,28379752615287E-5;
0,000169342217256493;
0,000252770518170061;
0,000180294003737545;
2,79231422996414E-5;
-0,000104876782981582;
-0,000163702486105364;
-0,000165260166017648;
-0,000166250344519843;
-0,000206337850364682;
-0,000274460778948139;
-0,000324500587804849;
-0,000322748507887199;
-0,000282696694279867;
-0,000254689888284373;
-0,000278132067926708;
-0,000337885081658526;
-0,000365137674340381;
-0,000286863028745958;
-8,67477765206363E-5;
0,000171471789549802;
0,000379415255709344;
0,000453616134515246;
0,000387786211673079;
0,000249844753372228;
0,000128573243916173;
7,25097821075022E-5;
6,67911973038088E-5;
6,09478539124867E-5;
1,97213832737958E-5;
-4,69754170482011E-5;
-9,80577789962682E-5;
-0,000103513535725757;
-7,53075769621855E-5;
-5,8131906273029E-5;
-8,69228149750478E-5;
-0,000148175026838687;
-0,000180778855746774;
-0,000119944191909465;
4,87857374132437E-5;
0,000268925352404613;
0,000444498041691879;
0,000501664395133057;
0,000434938581931049;
0,000304470556032048;
0,000188800587510542;
0,000130840983131056;
0,000117470444962657;
0,000104146119295339;
5,97860549346783E-5;
-6,8264211215723E-6;
-5,94395094473967E-5;
-7,15950438405399E-5;
-5,38331460959699E-5;
-4,54963371832299E-5;
-7,73064759891507E-5;
-0,000137351978883847;
-0,000171884689179669;
-0,000123975883813749;
1,90390502843834E-5;
0,000207530868482974;
0,000357261529030085;
0,000403483268833922;
0,000341425461888728;
0,000223829953095865;
0,000119496176627671;
6,59766219728487E-5;
5,1769016458141E-5;
3,79071129015769E-5;
-2,77446465661966E-6;
-6,25932569127073E-5;
-0,000109894291668753;
-0,000121602328380225;
-0,000106936526845836;
-0,000100216102992866;
-0,0001282140633827;
-0,000180547372553914;
-0,000210427578212723;
-0,000168347579848235;
-4,33418464972335E-5;
0,000121402352799525;
0,000252675866256614;
0,000294261712508882;
0,00024204128559692;
0,000141778603069655;
5,31129929084826E-5;
8,55847954482931E-6;
-1,87277962510315E-6;
-1,19218628866108E-5;
-4,50887459286408E-5;
-9,47286990757628E-5;
-0,000133496193265232;
-0,000141483694519632;
-0,000126672363370426;
-0,000118680679010276;
-0,000140589057940252;
-0,000183443512901713;
-0,000206956114162578;
-0,000168544632988132;
-5,88195470749676E-5;
8,50541197475107E-5;
0,000200162836228919;
0,000238247781719899;
0,000195799845948282;
0,000112085116202757;
3,82189012411455E-5;
2,03489261398263E-6;
-5,03443727390416E-6;
-1,18600787218975E-5;
-3,85258398575234E-5;
-7,93436525730911E-5;
-0,000110962388050426;
-0,00011640517809109;
-0,000102492372633202;
-9,44702610927615E-5;
-0,000111985814543615;
-0,000147402251272376;
-0,000166447040647118;
-0,000132941362725524;
-3,89414185705699E-5;
0,00941740948282564;
0,0228121620080747;
0,0165882743695065;
0,00961344513655937;
0,012279525296747;
0,00707430585577064;
0,00565270167536352;
0,00459483407491748;
0,000846987044359989;
0,00101643824623209;
-0,00124082790525892;
-0,00206909324879532;
-0,00288906413886945;
-0,00462417448847807;
-0,00495138003645788;
-0,00593499801805368;
-0,00605040972118354;
-0,00630808379625124;
-0,00709158435968405;
-0,00794051081834935;
-0,00926632269706631;
-0,0100783984897674;
-0,0103266634451255;
-0,00994634252213335;
-0,00910437753960741;
-0,00837910397234135;
-0,00780496582930038;
-0,00743739509177167;
-0,00703328574958876;
-0,0064231758384809;
-0,00570916949444559;
-0,00501505780781346;
-0,00451432268969615;
-0,00414325799996601;
-0,00371168182222919;
-0,00308750478777575;
-0,00231464637767935;
-0,00167341397660076;
-0,00143959067184773;
-0,00168002998164633;
-0,00215688105298181;
-0,0024513354357204;
-0,00224888164802544;
-0,00152383124831476;
-0,000539836341158428;
0,000358661051413676;
0,000984276618498586;
0,00139169243587601;
0,00177624471647164;
0,00227352020039233;
0,00284464450648701;
0,00333020568474276;
0,00361277956212802;
0,00373900650045697;
0,00388276876884058;
0,00418061529395129;
0,00458043796753651;
0,00484378611788664;
0,0047176130897463;
0,00414539981466718;
0,00334890165503452;
0,00270547029614333;
0,00250623561839833;
0,00277407773993927;
0,00327332828403081;
0,00369538711116812;
0,00387175213157771;
0,00385512870997477;
0,00382275526348124;
0,00389890347248561;
0,00404997743400335;
0,00413320297758188;
0,00404442435947969;
0,00382653140709268;
0,0036372707564872;
0,00360032889149077;
0,00366935665755805;
0,00363059804322991;
0,00325709622490287;
0,00249879658155852;
0,00155545343347373;
0,000766191188871355;
0,000392347877173069;
0,000454196827582225;
0,000740139243615707;
0,000973334713661909;
0,00100269257696529;
0,000875326744786812;
0,000749692357635388;
0,00073664191060377;
0,000805653755704783;
0,000828597836277292;
0,000711961582656302;
0,000493642784207159;
0,000314019679643035;
0,000282879626475291;
0,000358173335277976;
0,000348600042325035;
5,12960823443985E-5;
-0,000578763320880632;
-0,0106975150526417;
-0,0246330254593446;
-0,0186373443430775;
-0,0115639905150664;
-0,0139605982537474;
-0,00851852843624424;
-0,00700401475580447;
-0,00596312721949633;
-0,00222644439390963;
-0,00232046816487225;
7,58821358883472E-5;
0,00101235985554984;
0,00184057075155993;
0,00351130102300051;
0,00380407509556108;
0,00486332332715437;
0,0051330906646073;
0,0054829707858068;
0,00614721811311201;
0,00663207760156425;
0,00747909427154861;
0,00791868625957108;
0,00807067529325197;
0,007882436099788;
0,00738159246815729;
0,00696477389763072;
0,00656709552452997;
0,00627418725151726;
0,00594577578144597;
0,00548407477529851;
0,00497061769918167;
0,00444506296357986;
0,0040194658167933;
0,00365441190153568;
0,00325074458566376;
0,00274739359836278;
0,00216042590328732;
0,00164528074666443;
0,00134557240931868;
0,00129882896592783;
0,0013825699538498;
0,00137369208447075;
0,00110794703326581;
0,00057032404866439;
-9,86579386026226E-5;
-0,00071496548161695;
-0,00117872197888997;
-0,00151774271273778;
-0,00183647700532594;
-0,00220718741310917;
-0,00260900725217343;
-0,00295647071387993;
-0,00318602000121383;
-0,00332268670349752;
-0,00346009288525944;
-0,00367220949677239;
-0,00393128098060874;
-0,0041083590111077;
-0,00406616602700249;
-0,00377359072205951;
-0,00335089838321213;
-0,00300367862050922;
-0,00289132276264365;
-0,00302735009181841;
-0,00328384355732017;
-0,00349242961764408;
-0,00356093611861573;
-0,00351837611566272;
-0,0034624241634587;
-0,00346195367004115;
-0,00349900075094131;
-0,00349518298985064;
-0,00339315696081539;
-0,00321682541667179;
-0,00305391767573661;
-0,00297359066173325;
-0,00295065049490852;
-0,00286649054897868;
-0,00259462262412915;
-0,0021068614573017;
-0,00151467006051856;
-0,00100804991764692;
-0,000734125035203115;
-0,000705159541166877;
-0,000802989079197587;
-0,000872199663171296;
-0,000827695378336518;
-0,000696024570568861;
-0,000566833484114976;
-0,000503136436568093;
-0,000487951989396477;
-0,000448734984886013;
-0,000332324742284454;
-0,000160220679330808;
-1,248675813865E-5;
4,79809740535079E-5;
4,49497582041032E-5;
8,78549185011256E-5;
0,000293247529745579;
0,000687459438108909;
0,00116886242827356;
0,00156401992732884;
0,0017389405809109;
0,00168318702405151;
0,00150563518504899;
0,00134909831205737;
0,00129195865087513;
0,00131050413398557;
0,00132341162119433;
0,00127374274472702;
0,00117760200621804;
0,00110174086198105;
0,00109514374478863;
0,00113867290245886;
0,00115983298298926;
0,00110182086730547;
0,000986767678310877;
0,000914715181198385;
0,000992043989061842;
0,00124295687791852;
0,00157529521766871;
0,00183172850436426;
0,00189089392803299;
0,0017437046526488;
0,00148933923631109;
0,00125763692990677;
0,00111985474054545;
0,0010546130130761;
0,000988332978332107;
0,000869574596283109;
0,000713055873043351;
0,000579290002458539;
0,000512632704441199;
0,00049577411153617;
0,000463175170163141;
0,00036352626331417;
0,000216844104855744;
0,000113443883726739;
0,000149248538679843;
0,000345932930259969;
0,000620209021164743;
0,000830118850330563;
0,000866246084896213;
0,000720395624450422;
0,0004818393140771;
0,000267342303734675;
0,000140849321381251;
8,29410656322108E-5;
2,72979441246134E-5;
-7,24476705092832E-5;
-0,000203209714435268;
-0,000310812707748857;
-0,000355639270488085;
-0,000353424207750249;
-0,000363126132073594;
-0,000430889838627122;
-0,000538917321461713;
-0,000606481844218159;
-0,000547922272148385;
-0,000344096242540438;
-6,97511282598065E-5;
0,000147997270215728;
0,000211246080903518;
0,000112608334161642;
-6,82691018243602E-5;
-0,000227277611203501;
-0,00030752570649449;
-0,000326505226735447;
-0,000343484271157878;
-0,000399888874451294;
-0,000484153415392842;
-0,000548145320724899;
-0,000556730211465559;
-0,000524031873169224;
-0,000502576387021633;
-0,000533440725392551;
-0,000600857991711497;
-0,00063320385055522;
-0,000554546473814069;
-0,000348034646059334;
-8,00772908835468E-5;
0,000136580131816973;
0,000215195171573833;
0,000149271625959631;
9,35821970926215E-6;
-0,000112421592741745;
-0,000165784747794469;
-0,000166237186241689;
-0,000166169037160429;
-0,000202154714386769;
-0,000263954132381353;
-0,00030907543116277;
-0,000306531949957112;
-0,000268783664788539;
-0,000242105022345549;
-0,000262633387931882;
-0,000316429963756939;
-0,000340427462559724;
-0,000267839607886257;
-8,38826059775257E-5;
0,000153064159012458;
0,000343997130823116;
0,000412845547712172;
0,000354022189701823;
0,000229505586334705;
0,000120118237047209;
6,99457082347418E-5;
6,54262313907012E-5;
6,073701221811E-5;
2,39403814173079E-5;
-3,59395154614038E-5;
-8,17091910812311E-5;
-8,62677764819358E-5;
-6,04721449382073E-5;
-4,46691678695755E-5;
-7,03185502817101E-5;
-0,00012519731765544;
-0,000154300051057051;
-9,9450963999122E-5;
5,21975027050685E-5;
0,0002498356397975;
0,00040739345179846;
0,000458826754446452;
0,000399379418937992;
0,000282946918166808;
0,000179709346329843;
0,000127912216538646;
0,000115800840349024;
0,000103693373203071;
6,39734829805225E-5;
4,49302427355953E-6;
-4,25527540896293E-5;
-5,37336660678526E-5;
-3,84347750590151E-5;
-3,14862798324688E-5;
-6,00075904743733E-5;
-0,000113419954505047;
-0,000144293034792898;
-0,000102530677093415;
2,2877758595259E-5;
0,000188162886883261;
0,000319293631263367;
0,000359540376683486;
0,000304877331312267;
0,000201620897904084;
0,000109995710136665;
6,27751598346288E-5;
4,98577937901601E-5;
3,72471000653276E-5;
1,31468690400409E-6;
-5,12105944450165E-5;
-9,28100544421226E-5;
-0,000103490693632673;
-9,12943301707911E-5;
-8,59532040686641E-5;
-0,000110584267076809;
-0,000156160005413127;
-0,000182297393813455;
-0,000146406714166287;
-3,91912321109054E-5;
0,000102090051738655;
0,000214538902258095;
0,000250028270130622;
0,000205187813491437;
0,000119307059447838;
4,33951557176065E-5;
5,16172119451914E-6;
-3,97243596905245E-6;
-1,27597557043556E-5;
-4,11544947943062E-5;
-8,34700434715126E-5;
-0,000116504125221538;
-0,000123432645050366;
-0,000111058161685383;
-0,000104416057930389;
-0,000122938378218075;
-0,000159025750061649;
-0,000178776559687613;
-0,000146497775210762;
-5,44581229247852E-5;
6,60763781586875E-5;
0,000162441137949853;
0,000194411407203996;
0,000159219798083961;
8,97115143209418E-5;
2,84504103201955E-5;
-1,48630404571935E-6;
-7,2718498730598E-6;
-1,28451071203715E-5;
-3,47879933709141E-5;
-6,83602787886519E-5;
-9,4300034960161E-5;
-9,86705704166855E-5;
-8,7129953006409E-5;
-8,04109387518785E-5;
-9,45710368225097E-5;
-0,00012330744338883;
-0,000138625763626095;
-0,000111113939874781;
-3,4454674097732E-5;
6,55631456878763E-5;
0,000145611450198808;
0,000172670591299678;
0,000144526158926787;
8,81616827557792E-5;
3,84632975091748E-5;
1,43036311341858E-5;
9,79681098539514E-6;
5,38609834544716E-6;
-1,24412946523532E-5;
-3,97998895993715E-5;
-6,09992370650805E-5;
-6,47161495446006E-5;
-5,55640387038857E-5;
-5,03694655179778E-5;
-6,21284229862203E-5;
-8,57105372497215E-5;
-9,84677725606067E-5;
-7,66685441654698E-5;
-1,52683954629097E-5;
6,490374071684E-5;
0,000128964387611929;
0,000150405475984108;
0,000127510101467731;
8,1966759226548E-5;
4,1731208802741E-5;
2,18839402150227E-5;
1,77019529830315E-5;
1,35797345402718E-5;
-1,23078371370307E-6;
-2,36159133231349E-5;
-4,11023508292468E-5;
-4,47194301292089E-5;
-3,81405452310652E-5;
-3,4680112836643E-5;
-4,4584335088532E-5;
-6,3779628362573E-5;
-7,44227151924567E-5;
-5,78829023811869E-5;
-1,02571443989429E-5;
5,20761426963398E-5;
0,000101805054860434;
0,000118254674357124;
0,000100148607660199;
6,44279853961089E-5;
3,28407647002265E-5;
1,70721680681315E-5;
1,34380312951848E-5;
9,86351816647502E-6;
-1,93185372151079E-6;
-1,95276443710768E-5;
-3,33264604827052E-5;
-3,64594153170378E-5;
-3,17626057128674E-5;
-2,9420175868341E-5;
-3,72301468781283E-5;
-5,20643305259465E-5;
-6,03619705857816E-5;
-4,80349176382198E-5;
-1,21955000083469E-5;
3,47373550329207E-5;
7,21832274659523E-5;
8,46486914230165E-5;
7,12446425452431E-5;
4,46928658648064E-5;
2,1229007369061E-5;
9,52515255798564E-6;
6,81800116574167E-6;
4,16136161049641E-6;
-4,54083155351396E-6;
-1,7484246052793E-5;
-2,76187648583885E-5;
-2,99356098741848E-5;
-2,6530227806183E-5;
-2,48198519037741E-5;
-3,04405223010397E-5;
-4,11007980477078E-5;
-4,70216828605576E-5;
-3,81229515304182E-5;
-1,24106325523772E-5;
2,11891074022705E-5;
4,802849021611E-5;
5,71770774230993E-5;
4,80848955395266E-5;
2,97593005468769E-5;
1,35872552533291E-5;
5,59272636411012E-6;
3,82269663577433E-6;
2,07933177413623E-6;
-3,81610891631789E-6;
-1,26004209073382E-5;
-1,945743010441E-5;
-2,10079572201038E-5;
-1,86971810032211E-5;
-1,75183807268498E-5;
-2,12152313664688E-5;
-2,82288324888785E-5;
-3,20870476102834E-5;
-2,62112227135591E-5;
-9,38556612641537E-6;
1,25160376128228E-5;
3,0024753188252E-5;
3,61902536206207E-5;
3,07573341967146E-5;
1,94960560228045E-5;
9,57090337495324E-6;
4,70198072591454E-6;
3,64259217893392E-6;
2,58547524810682E-6;
-9,81812254357181E-7;
-6,26635604198013E-6;
-1,03911684205831E-5;
-1,13900794837959E-5;
-1,01430483156083E-5;
-9,54155223597064E-6;
-1,16899738228377E-5;
-1,56641762240419E-5;
-1,78536697805215E-5;
-1,47071230489539E-5;
-5,67929274017932E-6;
5,99502890143941E-6;
1,53198572020273E-5;
1,87792977768396E-5;
1,63713302827939E-5;
1,10746886484545E-5;
6,41629682082049E-6;
4,13345932940152E-6;
3,58809581720135E-6;
3,02899268538482E-6;
1,3753350624315E-6;
-9,84589040642153E-7;
-2,83865096782243E-6;
-3,4324411168069E-6;
-3,16056460858947E-6;
-3,11324381982721E-6;
-3,99157801086721E-6;
-5,41561247128669E-6;
-6,2229082560491E-6;
-5,44918893481149E-6;
-3,12048919304985E-6;
-2,17060392167614E-7;
2,08178757237415E-6;
3,18777151424618E-6;
3,31324625617337E-6;
3,05897344497584E-6;
2,85618936837859E-6;
2,75644968722954E-6;
2,63931277595197E-6;
2,49949311597823E-6;
2,47034458484759E-6;
2,59604701169226E-6;
2,67729579614893E-6;
2,44245394416973E-6;
1,90812152377361E-6;
1,50745628912479E-6;
1,72458119028212E-6;
2,47877201090862E-6;
2,86586484973694E-6;
1,66885457501927E-6;
-1,61838813926653E-6;
-6,07622697705812E-6;
-9,67189552164588E-6;
-1,05327388964349E-5;
-8,26765220155471E-6;
-4,27347181478472E-6;
-7,16313863082703E-7;
1,04263754626828E-6;
1,31690960396879E-6;
1,56227881096473E-6;
2,92668302488584E-6;
5,1658609327997E-6;
6,90166321305864E-6;
7,00674183826221E-6;
5,84094402165274E-6;
5,10622993728165E-6;
6,27233251251688E-6;
8,87449711929146E-6;
1,02912427111672E-5;
7,49560396400238E-6;
-4,15261257633137E-7;
-1,09460822869688E-5;
-1,94044706746985E-5;
-2,18829638278356E-5;
-1,78440042008084E-5;
-1,03346086335802E-5;
-3,66339713669118E-6;
-3,55199084646764E-7;
2,61301169258684E-7;
8,43485881740832E-7;
3,37224880098992E-6;
7,36577959952158E-6;
1,04789665221253E-5;
1,08838481251621E-5;
9,22179392173106E-6;
8,2322299009567E-6;
1,01892578065901E-5;
1,43139155027244E-5;
1,65847544858575E-5;
1,25019895529234E-5;
8,41734624935429E-7;
-1,46191968865924E-5;
-2,70296262557072E-5;
-3,08333693440948E-5;
-2,53755287695124E-5;
-1,50385582792125E-5;
-5,86176738819846E-6;
-1,30819557524214E-6;
-4,17596636922532E-7;
4,34516001375908E-7;
3,89796228441043E-6;
9,29946408334687E-6;
1,35183454356239E-5;
1,41660632562318E-5;
1,21098196538256E-5;
1,0917878807699E-5;
1,35053832234631E-5;
1,88421703111687E-5;
2,17927461198323E-5;
1,66880906761409E-5;
2,05133542778496E-6;
-1,73238440268101E-5;
-3,28779513236109E-5;
-3,77531721752862E-5;
-3,12034084756522E-5;
-1,86638250917786E-5;
-7,5346832425023E-6;
-2,01493603653986E-6;
-9,17215873929048E-7;
1,3977461203358E-7;
4,32776415386952E-6;
1,0823320808812E-5;
1,59016253263678E-5;
1,6738862950079E-5;
1,43781847871086E-5;
1,30300397693688E-5;
1,6104557394748E-5;
2,237670124495E-5;
2,58523760684118E-5;
1,99643901998483E-5;
3,04356172598549E-6;
-1,93358228333734E-5;
-3,73077922715127E-5;
-4,30223847112404E-5;
-3,56656331206418E-5;
-2,1473623985434E-5;
-8,87842844166447E-6;
-2,6349355827337E-6;
-1,38367673168151E-6;
-1,73544940034679E-7;
4,55844118389053E-6;
1,18753988327894E-5;
1,76005706634589E-5;
1,85860692917203E-5;
1,60066786859741E-5;
1,45494692851589E-5;
1,79900935944516E-5;
2,49585607182463E-5;
2,88284170096356E-5;
2,23742354434757E-5;
3,78815792894636E-6;
-2,07839299776425E-5;
-4,05248926318929E-5;
-4,68661451348361E-5;
-3,8946494277915E-5;
-2,3580684503676E-5;
-9,94218600766986E-6;
-3,18310190971212E-6;
-1,82037446521057E-6;
-4,97861116678776E-7;
4,62361966455463E-6;
1,2526074216183E-5;
1,87147538930059E-5;
1,98154916500859E-5;
1,70957339455374E-5;
1,55736866072129E-5;
1,92768309380634E-5;
2,67340806433141E-5;
3,08851710601302E-5;
2,40568930881752E-5;
4,34972711815725E-6;
-2,17020110278496E-5;
-4,26412202644035E-5;
-4,94201360188601E-5;
-4,11484253659094E-5;
-2,50251587656042E-5;
-1,07113862233055E-5;
-3,6177713784645E-6;
-2,18001335509783E-6;
-7,80694834253498E-7;
4,59525386820623E-6;
1,28769669041906E-5;
1,93684400813486E-5;
2,05544028878431E-5;
1,776104664695E-5;
1,62111442027862E-5;
2,00851708238623E-5;
2,78491035316342E-5;
3,21813776972484E-5;
2,51437353904594E-5;
4,78579035132819E-6;
-2,21285685226576E-5;
-4,37720393896978E-5;
-5,08251451131286E-5;
-4,23841033420849E-5;
-2,58641623975068E-5;
-1,11944450803836E-5;
-3,92432749041725E-6;
-2,44482126458784E-6;
-1,0013268410719E-6;
4,51058359156757E-6;
1,29915648633552E-5;
1,96450050833948E-5;
2,08879066109693E-5;
1,8076000747381E-5;
1,65277328987984E-5;
2,04915979289404E-5;
2,8403460934384E-5;
3,28286660656393E-5;
2,57208012455815E-5;
5,11362355950484E-6;
-2,21356333446118E-5;
-4,40606522715486E-5;
-5,12479490282587E-5;
-4,27937587235346E-5;
-2,61857227189965E-5;
-1,14334420907587E-5;
-4,12262276030814E-6;
-2,6307858113592E-6;
-1,17199574958597E-6;
4,37380712033821E-6;
1,2899598271719E-5;
1,9593865858752E-5;
2,08683320175363E-5;
1,80834263356787E-5;
1,65607263741479E-5;
2,05445967208166E-5;
2,84686755843047E-5;
3,29109393089186E-5;
2,58498016796711E-5;
5,33281179108047E-6;
-2,18047524026561E-5;
-4,36531170811369E-5;
-5,08550190020739E-5;
-4,25181274561977E-5;
-2,60811844299941E-5;
-1,14760842503415E-5;
-4,23860121982623E-6;
-2,75903028626473E-6;
-1,30912668079613E-6;
4,18482946529228E-6;
1,26256404102267E-5;
1,92588626327217E-5;
2,05433128863159E-5;
1,7823293484692E-5;
1,6345999877684E-5;
2,02912952375765E-5;
2,81139361048363E-5;
3,25096050882924E-5;
2,55925904369687E-5;
5,44896960605746E-6;
-2,12040681033246E-5;
-4,26761860274148E-5;
-4,97913957390998E-5;
-4,16783457759351E-5;
-2,56261518073016E-5;
-1,13577441288359E-5;
-4,28743737548912E-6;
-2,84004215347606E-6;
-1,41868031241631E-6;
3,95281184196266E-6;
1,22015466288996E-5;
1,86895675450403E-5;
1,9965990908222E-5;
1,73418202608457E-5;
1,59260629992371E-5;
1,9784448750062E-5;
2,74120488475827E-5;
3,17085298377203E-5;
2,50151340453747E-5;
5,47673313112629E-6;
-2,03862514640259E-5;
-4,12361274493905E-5;
-4,81803518939416E-5;
-4,03763786850468E-5;
-2,48816503357971E-5;
-1,11033029233401E-5;
-4,27603062566502E-6;
-2,87680848620401E-6;
-1,49988005156095E-6;
3,69188302753161E-6;
1,16616612655727E-5;
1,79360483607192E-5;
1,91893468015298E-5;
1,66854087411505E-5;
1,53436459147481E-5;
1,9075716592441E-5;
2,64324742958691E-5;
3,05868651580268E-5;
2,41801220883454E-5;
5,43214524667102E-6;
-1,93963532473569E-5;
-3,94267499381506E-5;
-4,61314728004998E-5;
-3,87030554753732E-5;
-2,3902041822169E-5;
-1,07349327506167E-5;
-4,21067633838011E-6;
-2,87238281397002E-6;
-1,5526449348502E-6;
3,41390458986406E-6;
1,10358100996031E-5;
1,70420734606981E-5;
1,82596167886038E-5;
1,58942599531256E-5;
1,46355237931776E-5;
1,82097733117155E-5;
2,52357509533415E-5;
2,92137506109695E-5;
2,31418937740161E-5;
5,32771421926585E-6;
-1,82766458695316E-5;
-3,73340819659743E-5;
-4,37450683498185E-5;
-3,67420992343519E-5;
-2,27386058628874E-5;
-1,0275254458061E-5;
-4,0998646559176E-6;
-2,83236706998598E-6;
-1,57977106853237E-6;
3,12660328133155E-6;
1,03477731758195E-5;
1,6043919537885E-5;
1,7215368168707E-5;
1,50016685201143E-5;
1,38320527606063E-5;
1,72241028512204E-5;
2,38735791361636E-5;
2,76486687586574E-5;
2,1946917302219E-5;
5,17289303446483E-6;
-1,70661981643003E-5;
-3,50359805478415E-5;
-4,11116759448112E-5;
-3,45693728704627E-5;
-2,14384723330412E-5;
-9,74598965064448E-6;
-3,95273384579942E-6;
-2,76324383643252E-6;
-1,585155023616E-6;
2,83549661599507E-6;
9,61737372955167E-6;
1,49725755938466E-5;
1,60897541127868E-5;
1,40362859597172E-5;
1,29594346093099E-5;
1,61513250635206E-5;
2,23912359197203E-5;
2,59438872921763E-5;
2,06361554764736E-5;
4,97620189106995E-6;
-1,57990877693325E-5;
-3,26005971154875E-5;
-3,83106184663602E-5;
-3,22513653820893E-5;
-2,0042948352585E-5;
-9,16615494342554E-6;
-3,7772366472559E-6;
-2,67059391214533E-6;
-1,57205807477973E-6;
2,545619766005E-6;
8,86222201342905E-6;
1,38554919531852E-5;
1,4912206461151E-5;
1,30236933733532E-5;
1,20411791897303E-5;
1,50206141708336E-5;
2,08290068888259E-5;
2,4145860696204E-5;
1,92462741582157E-5;
4,7460957207097E-6;
-1,45039440474469E-5;
-3,00862708435045E-5;
-3,54100501254395E-5;
-2,98451909494388E-5;
-1,85873689321489E-5;
-8,55179404034862E-6;
-3,57984956877144E-6;
-2,55884709409236E-6;
-1,54290401084905E-6;
2,26172932058973E-6;
8,09796967745984E-6;
1,27168561683148E-5;
1,37086478811243E-5;
1,19865114203969E-5;
1,10981461860162E-5;
1,3857742448996E-5;
1,922226941761E-5;
2,22953142310224E-5;
1,78095948957158E-5;
4,49059645103061E-6;
-1,32047101269739E-5;
-2,75425936597896E-5;
-3,24681320480054E-5;
-2,73996576467422E-5;
-1,71019538714303E-5;
-7,91664616359561E-6;
-3,36614377604846E-6;
-2,43184999432422E-6;
-1,49984612771278E-6;
1,9878110711808E-6;
7,33792652283123E-6;
1,15772884119659E-5;
1,25012096100476E-5;
1,0944080369179E-5;
1,01481898022087E-5;
1,26847758833136E-5;
1,7601313087634E-5;
2,0427129767213E-5;
1,63538784431945E-5;
4,21680775592683E-6;
-1,19214935735716E-5;
-2,50115477344626E-5;
-2,95342367113254E-5;
-2,49563197412823E-5;
-1,56125806050321E-5;
-7,2726845391191E-6;
-3,14121298815822E-6;
-2,29324202210993E-6;
-1,44508816668219E-6;
1,72685165483573E-6;
6,59296791269601E-6;
1,04538666093532E-5;
1,13082825560355E-5;
9,91248133692955E-6;
9,20618855558314E-6;
1,15201753272775E-5;
1,599155283379E-5;
1,85706395286607E-5;
1,49025318613695E-5;
3,9308379674852E-6;
-1,06710010748673E-5;
-2,25282206128564E-5;
-2,6649727309098E-5;
-2,25501017674806E-5;
-1,41411645524405E-5;
-6,63026098063963E-6;
-2,90967710056095E-6;
-2,14643446258694E-6;
-1,38084173544795E-6;
1,48097991229667E-6;
5,87180905303939E-6;
9,36049797064748E-6;
1,01449213159826E-5;
8,90490909944434E-6;
8,28438595718849E-6;
1,0379198289212E-5;
1,44140534484277E-5;
1,67502026319198E-5;
1,34750810395765E-5;
3,63798417889749E-6;
-9,46673907167297E-6;
-2,01212990153221E-5;
-2,38485425316004E-5;
-2,02097554188898E-5;
-1,27058574370293E-5;
-5,99809065399025E-6;
-2,67557545858289E-6;
-1,99446867431302E-6;
-1,309149597837E-6;
1,2517064061853E-6;
5,18136162362258E-6;
8,30836834901493E-6;
9,02329227421062E-6;
7,93207106961075E-6;
7,39276190035762E-6;
9,27431587415982E-6;
1,28860414305031E-5;
1,49857682121624E-5;
1,20876272721441E-5;
3,34289243506684E-6;
-8,31923777430744E-6;
-1,78136084052211E-5;
-2,11578335808215E-5;
-1,79583642933493E-5;
-1,13213149035387E-5;
-5,38331264436096E-6;
-2,44232127100359E-6;
-1,83996423498599E-6;
-1,23183334289755E-6;
1,04005879131367E-6;
4,52697410423353E-6;
7,30626070023321E-6;
7,95300489100377E-6;
7,00246462357075E-6;
6,53928899235069E-6;
8,21551163408987E-6;
1,14213009471562E-5;
1,32933257325109E-5;
1,07531812002064E-5;
3,04959607145759E-6;
-7,23639251010627E-6;
-1,56227398895796E-5;
-1,85986742245437E-5;
-1,58139361910726E-5;
-9,99906575392131E-6;
-4,79166303701518E-6;
-2,21277860969046E-6;
-1,68517310914225E-6;
-1,15051971202567E-6;
8,46622178849172E-7;
3,91258768756908E-6;
6,36079759215899E-6;
6,94136353647137E-6;
6,12259287013569E-6;
5,73010820305329E-6;
7,21050534519996E-6;
1,00304990323355E-5;
1,16852731435587E-5;
9,48193589978456E-6;
2,7615224507284E-6;
-6,22380418635529E-6;
-1,35616792866938E-5;
-1,61867856289445E-5;
-1,37900091646945E-5;
-8,74788826589009E-6;
-4,22764682019195E-6;
-1,98933307138897E-6;
-1,5320287807162E-6;
-1,06667884185838E-6;
6,71573326151504E-7;
3,34087938626712E-6;
5,47666593341695E-6;
5,99360846584845E-6;
5,2971620995519E-6;
4,96971224092295E-6;
6,26498891936267E-6;
8,72151562142131E-6;
1,01708075659214E-5;
8,281563542968E-6;
2,48151882758812E-6;
-5,28510135011129E-6;
-1,16393966581974E-5;
-1,39331950830086E-5;
-1,18961917207524E-5;
-7,57414412920845E-6;
-3,69468657260544E-6;
-1,77395137128238E-6;
-1,38218822672916E-6;
-9,8163377323235E-7;
5,14739922668617E-7;
2,81342038788746E-6;
4,65686326586042E-6;
5,1131731257998E-6;
4,52930873537813E-6;
4,26115132693987E-6;
5,38286376296961E-6;
7,49977964823833E-6;
8,75630573289868E-6;
7,15750282668416E-6;
2,21190328075687E-6;
-4,42221026494673E-6;
-9,86136182697365E-6;
-1,18448338964231E-5;
-1,01386619901619E-5;
-6,4820642960804E-6;
-3,19523470142793E-6;
-1,56820345566865E-6;
-1,23702963884403E-6;
-8,96559923888576E-7;
3,75669577157383E-7;
2,33085633943305E-6;
3,90293954440103E-6;
4,30193856918234E-6;
3,82081531385998E-6;
3,60622735087507E-6;
4,56649761713763E-6;
6,36860087877192E-6;
7,44569955670443E-6;
6,11325724620304E-6;
1,95452290255858E-6;
-3,63558647891114E-6;
-8,2300295176626E-6;
-9,92510471932867E-6;
-8,52062480190007E-6;
-5,47403459161272E-6;
-2,7308909051172E-6;
-1,37330236209879E-6;
-1,09768081831896E-6;
-8,12466926133728E-7;
2,53695524626203E-7;
1,8930397847697E-6;
3,21522005836659E-6;
3,56046907245813E-6;
3,17231017198958E-6;
3,00567878281915E-6;
3,81693329905513E-6;
5,32946526562271E-6;
6,24081901270366E-6;
5,15065777962719E-6;
1,71080459799485E-6;
-2,92446418555161E-6;
-6,74529767693339E-6;
-8,17439453664149E-6;
-7,04274648747882E-6;
-4,55084866666888E-6;
-2,30251117253984E-6;
-1,19013140965819E-6;
-9,65026634022016E-7;
-7,30225076337393E-7;
1,47982722109123E-7;
1,49918193515019E-6;
2,59299825826584E-6;
2,88821569526139E-6;
2,58345183408797E-6;
2,45934171429852E-6;
3,1340915985849E-6;
4,38231100552047E-6;
5,14170150707722E-6;
4,27010426102714E-6;
1,48179721499496E-6;
-2,28706326690304E-6;
-5,40493051579223E-6;
-6,59057500872433E-6;
-5,70356508970763E-6;
-3,71196718336795E-6;
-1,91031734594008E-6;
-1,01928802312136E-6;
-8,39744862954245E-7;
-6,50566221724737E-7;
5,75641244089195E-8;
1,1479579796681E-6;
2,03471660726781E-6;
2,28370096828351E-6;
2,05308276909437E-6;
1,96629828089057E-6;
2,51694933033821E-6;
3,5257741129669E-6;
4,14688184877936E-6;
3,47078161025446E-6;
1,26820906760494E-6;
-1,72078464107981E-6;
-4,20493608857779E-6;
-5,16943137078369E-6;
-4,4998506243161E-6;
-2,95572764358441E-6;
-1,55399528541411E-6;
-8,6112968954738E-7;
-7,22325688334741E-7;
-5,7409430892463E-7;
-1,86180124970354E-8;
8,37614970673061E-7;
1,53812226815237E-6;
1,74470015961254E-6;
1,57938670492428E-6;
1,52500627008934E-6;
1,96370663632404E-6;
2,7574200718985E-6;
3,25365052268717E-6;
2,75087058648539E-6;
1,07044839229105E-6;
-1,22239128660434E-6;
-3,13992257479434E-6;
-3,90508065110841E-6;
-3,42694846589714E-6;
-2,27956707248217E-6;
-1,23278452054435E-6;
-7,15787904011283E-7;
-6,13092570473397E-7;
-5,01294637040011E-7;
-8,16797310747539E-8;
5,66073156816374E-7;
1,10042605018118E-6;
1,26838945986537E-6;
1,16001018838319E-6;
1,13342840052624E-6;
1,47194284171096E-6;
2,0739478644082E-6;
2,45829264434971E-6;
2,10773055634139E-6;
8,88665219869884E-7;
-7,88154269238422E-7;
-2,20339508091888E-6;
-2,79031750692191E-6;
-2,47907345044217E-6;
-1,6801878876123E-6;
-9,45558543119709E-7;
-5,83213164670087E-7;
-5,12217937545792E-7;
-4,3254712091087E-7;
-1,32772775707471E-7;
3,31010145311998E-7;
7,18423293928946E-7;
8,51490714848559E-7;
7,92200417490712E-7;
7,89138516205331E-7;
1,03874401445305E-6;
1,47138465775765E-6;
1,75630884875087E-6;
1,53807301856801E-6;
7,2278809662686E-7;
-4,14001539646104E-7;
-1,38804450501509E-6;
-1,81693467167678E-6;
-1,64957251478037E-6;
-1,1537345606181E-6;
-6,90902854695071E-7;
-4,63199623684992E-7;
-4,19748397875607E-7;
-3,68128176710452E-7;
-1,73047390626437E-7;
1,29936723523154E-7;
3,88609077821246E-7;
4,90386563009991E-7;
4,72896959244958E-7;
4,8942715914659E-7;
6,60836889743953E-7;
9,45244365637758E-7;
1,14259973046939E-6;
1,03810489071591E-6;
5,72552626113863E-7;
-9,56237479800487E-8;
-6,85978112186962E-7;
-9,76014453986279E-7;
-9,31169678657081E-7;
-6,95930349483299E-7;
-4,67169928725109E-7;
-3,55404040097949E-7;
-3,35615912830805E-7;
-3,08225938647459E-7;
-2,03643283622597E-7;
-3,97373700664968E-8;
1,07286439345399E-7;
1,8124035363202E-7;
1,98837237754722E-7;
2,3137502497387E-7;
3,3467680526489E-7;
4,90673514464354E-7;
6,11635716669145E-7;
6,03669404060645E-7;
4,37537965297634E-7;
1,71411828177768E-7;
-8,89321920656044E-8;
-2,58163819818143E-7;
-3,16169264303847E-7;
-3,02212173168971E-7;
-2,72548516216941E-7;
-2,59382558381338E-7;
-2,59660752237656E-7;
-2,52949298385033E-7;
-2,25672740511202E-7;
-1,80648040769319E-7;
-1,29351844557703E-7;
-7,99241243317615E-8;
-3,33715932769469E-8;
1,1939568767202E-8;
5,65580966890482E-8;
1,02590284649562E-7;
1,57608839567292E-7;
2,30352113138487E-7;
3,17193392952281E-7;
3,91585030205643E-7;
4,11542579006956E-7;
3,46265265168842E-7;
2,03369360665202E-7;
3,21585411066302E-8;
-1,05113696618251E-7;
-1,74600034939459E-7;
-1,91641656124263E-7;
-2,02334681999239E-7;
-2,4019867215598E-7;
-2,95429443643238E-7;
-3,25149703364328E-7;
-2,97132454710126E-7;
-2,27176438269517E-7;
-1,71985024380739E-7;
-1,77312060722766E-7;
-2,2422057979563E-7;
-2,25448494636777E-7;
-8,64016797571843E-8;
2,1086229285179E-7;
5,6933010738731E-7;
8,23926251842308E-7;
8,46993981653172E-7;
6,35470571438449E-7;
3,12003967555854E-7;
3,71333505675606E-8;
-1,00461174550792E-7;
-1,31256371284037E-7;
-1,56355035020651E-7;
-2,48233198623866E-7;
-3,86678176219396E-7;
-4,83923032606965E-7;
-4,74394333819191E-7;
-3,8602092154804E-7;
-3,23514842003523E-7;
-3,70751667653908E-7;
-4,95000588787879E-7;
-5,43542501754584E-7;
-3,51217609956683E-7;
1,17809020655017E-7;
7,08996671796522E-7;
1,15660347626739E-6;
1,25366404391479E-6;
9,88113144208119E-7;
5,42142288304413E-7;
1,56222819357419E-7;
-3,63177286914422E-8;
-7,8145951003165E-8;
-1,14934309753871E-7;
-2,50728233575651E-7;
-4,56910045612554E-7;
-6,09407903666714E-7;
-6,15654249152669E-7;
-5,13297258579657E-7;
-4,45725220962089E-7;
-5,27535713566393E-7;
-7,14944633718495E-7;
-8,02635876704146E-7;
-5,68701149976375E-7;
3,72406604810045E-8;
8,14784065964697E-7;
1,41775573051481E-6;
1,5757153111788E-6;
1,26912990003351E-6;
7,27324593150357E-7;
2,54183411874197E-7;
1,85073774231051E-8;
-3,19159339704327E-8;
-7,79471162854793E-8;
-2,48566146770118E-7;
-5,08548138581702E-7;
-7,05220764885481E-7;
-7,24733228525087E-7;
-6,1230303211649E-7;
-5,41615969830764E-7;
-6,51352453370477E-7;
-8,89134629689421E-7;
-1,00856625097837E-6;
-7,43385048863796E-7;
-3,16824755357434E-8;
8,90704917262918E-7;
1,61527133629943E-6;
1,82227445048085E-6;
1,48611275550357E-6;
8,72174757861107E-7;
3,33013910170869E-7;
6,47131208895791E-8;
7,85872801810677E-9;
-4,52332065402103E-8;
-2,42560139621477E-7;
-5,43892837968522E-7;
-7,74820969988188E-7;
-8,05302273738609E-7;
-6,86209901019581E-7;
-6,1407926787759E-7;
-7,45768098556839E-7;
-1,02247972121276E-6;
-1,1669839184907E-6;
-8,79677456259693E-7;
-8,98166764507993E-8;
9,4056351649778E-7;
1,75668085356906E-6;
2,00207537815776E-6;
1,64634072321641E-6;
9,81143490862124E-7;
3,94660829586363E-7;
1,03003081111066E-7;
4,16231542887464E-8;
-1,65977744959452E-8;
-2,33449216179991E-7;
-5,65108174488486E-7;
-8,21486776760208E-7;
-8,60847035386249E-7;
-7,38037517833538E-7;
-6,65877764700737E-7;
-8,14192375845255E-7;
-1,11967983140629E-6;
-1,28329788614796E-6;
-9,81815663977555E-7;
-1,38033962543912E-7;
9,67924898924115E-7;
1,84910466614299E-6;
2,12340164747647E-6;
1,75673280362599E-6;
1,05847464849403E-6;
4,40999483253294E-7;
1,3407936083926E-7;
6,98332153111504E-8;
8,17205996065432E-9;
-2,21905428075474E-7;
-5,74216951573009E-7;
-8,48299121659543E-7;
-8,94650508561993E-7;
-7,70635016253973E-7;
-6,99621302514855E-7;
-8,59851219823261E-7;
-1,18519263788085E-6;
-1,36265180527354E-6;
-1,05383676095911E-6;
-1,77198312810042E-7;
9,76101593175482E-7;
1,89921567610984E-6;
2,19403152474127E-6;
1,82379802833905E-6;
1,10818342547595E-6;
4,73824599973411E-7;
1,58631048819487E-7;
9,29491296740021E-8;
2,93134197259807E-8;
-2,08524101040337E-7;
-5,73088111658288E-7;
-8,58125594191329E-7;
-9,09777471369679E-7;
-7,86666226587578E-7;
-7,17757248711759E-7;
-8,8577858234653E-7;
-1,22320190573326E-6;
-1,40987372702671E-6;
-1,09955680718688E-6;
-2,08165823273838E-7;
9,68149269668146E-7;
1,91321158758235E-6;
2,22121182729118E-6;
1,85361443197983E-6;
1,1340195103126E-6;
4,94823897879878E-7;
1,77327103848349E-7;
1,11426577447469E-7;
4,70732026402908E-8;
-1,93835443496247E-7;
-5,63436806748659E-7;
-8,53612219514795E-7;
-9,09065929187164E-7;
-7,88601768821154E-7;
-7,22559256113051E-7;
-8,94800829606501E-7;
-1,23761471995234E-6;
-1,42947404934225E-6;
-1,12254218730884E-6;
-2,31765084712319E-7;
9,46860254239888E-7;
1,89680765200869E-6;
2,21163829523292E-6;
1,85180939446314E-6;
1,1394766186979E-6;
5,05589067269734E-7;
1,9081597714198E-7;
1,25715903166103E-7;
6,17038251625981E-8;
-1,78302530511245E-7;
-5,46821878524315E-7;
-8,37184656517036E-7;
-8,95118555093725E-7;
-7,78712863347051E-7;
-7,16127034251873E-7;
-8,89524807701665E-7;
-1,23203739075024E-6;
-1,42563082546478E-6;
-1,12611538694173E-6;
-2,4880026886737E-7;
9,14765852394176E-7;
1,85522830444887E-6;
2,17145072103859E-6;
1,82355227008474E-6;
1,12777040273226E-6;
5,07599628104402E-7;
1,99713243011119E-7;
1,3625217557865E-7;
7,34661746725133E-8;
-1,62323782619555E-7;
-5,24651094812242E-7;
-8,11043984076506E-7;
-8,70307682625983E-7;
-7,59077104696018E-7;
-7,00379851346657E-7;
-8,72340570604553E-7;
-1,20978050004052E-6;
-1,40217620169282E-6;
-1,11333092196183E-6;
-2,60034280425996E-7;
8,74141140484212E-7;
1,79320859409358E-6;
2,10622795540801E-6;
1,77355106351481E-6;
1,10184272742041E-6;
5,02217969900907E-7;
2,04599630466592E-7;
1,43456976726053E-7;
8,26182031190083E-8;
-1,46239037599692E-7;
-4,98181026733281E-7;
-7,77177422664639E-7;
-8,36777916406018E-7;
-7,31569261973093E-7;
-6,7705989429861E-7;
-8,45426617611226E-7;
-1,17385775632033E-6;
-1,36260449122445E-6;
-1,08698948526386E-6;
-2,6619531632912E-7;
8,27013863189682E-7;
1,71501200217656E-6;
2,02100771513838E-6;
1,70606521041381E-6;
1,06436329619203E-6;
4,90695745503392E-7;
2,06022806555068E-7;
1,4773091352423E-7;
8,94136451585053E-8;
-1,30336871436145E-7;
-4,68526314671691E-7;
-7,37353932218632E-7;
-7,96448399134588E-7;
-6,97875819568401E-7;
-6,47734201199119E-7;
-8,10743266642197E-7;
-1,12698955867884E-6;
-1,3100755466374E-6;
-1,04963080416093E-6;
-2,67966030756895E-7;
7,75173941095698E-7;
1,62443718658768E-6;
1,92029221843303E-6;
1,62491370548296E-6;
1,01773443836184E-6;
4,74169414279612E-7;
2,04492982635068E-7;
1,49453481009439E-7;
9,41037674379607E-8;
-1,14849706693706E-7;
-4,36666837330924E-7;
-6,93144785190483E-7;
-7,51023921917325E-7;
-6,59499949831457E-7;
-6,13804705462615E-7;
-7,70045616635968E-7;
-1,0716154556555E-6;
-1,24742282174837E-6;
-1,00353886645766E-6;
-2,65982931795463E-7;
7,20186749669458E-7;
1,52484433603291E-6;
1,80807432532934E-6;
1,53348916385746E-6;
9,64101720481577E-7;
4,53666328746252E-7;
2,0048258841209E-7;
1,48982945138158E-7;
9,69286185198863E-8;
-9,99668224881877E-8;
-4,0344898271011E-7;
-6,45927285839064E-7;
-7,02007682436748E-7;
-6,17763413733976E-7;
-5,76509732675085E-7;
-7,2489180923437E-7;
-1,00989882889423E-6;
-1,17716911432757E-6;
-9,5076135766206E-7;
-2,60838335056227E-7;
6,63402661037853E-7;
1,41917292387476E-6;
1,6878653988536E-6;
1,43478304638163E-6;
9,05363466317339E-7;
4,30104816994261E-7;
1,94420223985799E-7;
1,46648407155404E-7;
9,81176234096361E-8;
-8,58408792883185E-8;
-3,696047026711E-7;
-5,96894273938684E-7;
-6,50707971254052E-7;
-5,73824534471323E-7;
-5,36936218086603E-7;
-6,76653032681945E-7;
-9,43746124709052E-7;
-1,10153472974196E-6;
-8,93105691260941E-7;
-2,53072569863013E-7;
6,05980317904875E-7;
1,30997274334783E-6;
1,56271771768465E-6;
1,33140483033287E-6;
8,43184939981842E-7;
4,04297730255808E-7;
1,86701569023836E-7;
1,42760323494232E-7;
9,78889191309547E-8;
-7,25785184157353E-8;
-3,35749634277721E-7;
-5,47071943750773E-7;
-5,98251209991173E-7;
-5,28685452016374E-7;
-4,9602626885655E-7;
-6,26518190731776E-7;
-8,74816902455562E-7;
-1,02246106146021E-6;
-8,32164453228677E-7;
-2,4318238094514E-7;
5,48894257439826E-7;
1,19942471984028E-6;
1,43525842396399E-6;
1,22560827737502E-6;
7,79009367015175E-7;
3,76963570896343E-7;
1,77682446999976E-7;
1,37597206725161E-7;
9,64491750429603E-8;
-6,02600707155476E-8;
-3,02402444416792E-7;
-4,97327641747189E-7;
-5,45594895594699E-7;
-4,83197899148349E-7;
-4,54589860114484E-7;
-5,75515022098835E-7;
-8,04544607334751E-7;
-9,41624727405612E-7;
-7,69314498530097E-7;
-2,31616475692586E-7;
4,92951141398813E-7;
1,08937538981447E-6;
1,3077195177097E-6;
1,11931342298323E-6;
7,14076641248988E-7;
3,48724699865884E-7;
1,67679748772893E-7;
1,31417492317172E-7;
9,39893554258089E-8;
-4,89359210894317E-8;
-2,69983011571664E-7;
-4,48385763337422E-7;
-4,93547378884485E-7;
-4,38084922671935E-7;
-4,1331101660876E-7;
-5,24515080555476E-7;
-7,34149514301489E-7;
-8,60457040663643E-7;
-7,05743088219912E-7;
-2,18776751151644E-7;
4,38807168481284E-7;
9,81357502723593E-7;
1,18197063733317E-6;
1,01413663647034E-6;
6,49436104154193E-7;
3,20120647986277E-7;
1,56978915402539E-7;
1,24452491827574E-7;
9,06874537954399E-8;
-3,86316220942064E-8;
-2,38830978010001E-7;
-4,00840934143199E-7;
-4,42773255635071E-7;
-3,93940306578631E-7;
-3,72761868659103E-7;
-4,74251540296246E-7;
-6,64654176095268E-7;
-7,80162087185067E-7;
-6,42457574775122E-7;
-2,05024145852841E-7;
3,86987012196666E-7;
8,76627713189142E-7;
1,05954430266354E-6;
9,11415172294729E-7;
5,85966657700417E-7;
2,91604188755279E-7;
1,45826168453964E-7;
1,16909646313373E-7;
8,67065493703583E-8;
-2,93496610183642E-8;
-2,09208936035264E-7;
-3,55168367084566E-7;
-3,93809829506195E-7;
-3,51253469523883E-7;
-3,33410019920281E-7;
-4,25323445547271E-7;
-5,9690637763153E-7;
-7,01739127127197E-7;
-5,80298683018752E-7;
-1,9067476542779E-7;
3,37887098169616E-7;
7,76182201311335E-7;
9,41685139294169E-7;
8,1223565866765E-7;
5,24383293422416E-7;
2,63562359158715E-7;
1,34441382454527E-7;
1,08972170736717E-7;
8,2195268570793E-8;
-2,10780207518204E-8;
-1,81314042584859E-7;
-3,11736003059838E-7;
-3,47079122694197E-7;
-3,10407620211267E-7;
-2,95629315563968E-7;
-3,78217024536615E-7;
-5,31588941901891E-7;
-6,26000194937603E-7;
-5,19957167451853E-7;
-1,76004025266835E-7;
2,91800140838065E-7;
6,80795704383461E-7;
8,29358833527597E-7;
7,17450248027182E-7;
4,6526199402152E-7;
2,36308444491639E-7;
1,23010320199114E-7;
1,0080526728529E-7;
7,72867290370943E-8;
-1,37902097491651E-8;
-1,55283224069824E-7;
-2,70821730813766E-7;
-3,02901907257262E-7;
-2,71698218713321E-7;
-2,59713031630697E-7;
-3,33314467008605E-7;
-4,69243386039038E-7;
-5,53585860228686E-7;
-4,61987252263516E-7;
-1,61254761534765E-7;
2,48925955804971E-7;
5,91041802547205E-7;
7,23298628655419E-7;
6,27717328666737E-7;
4,09050145087687E-7;
2,1009759642457E-7;
1,11691655110075E-7;
9,25462529741844E-8;
7,21032356725497E-8;
-7,44518296560895E-9;
-1,31204700273133E-7;
-2,32615914155538E-7;
-2,61509045395283E-7;
-2,35342451801389E-7;
-2,25876331451484E-7;
-2,90901352647613E-7;
-4,10276258048837E-7;
-4,84989096986155E-7;
-4,06823722903747E-7;
-1,46628989116885E-7;
2,09381375847958E-7;
5,07313380358465E-7;
6,24023296656399E-7;
5,43509561809821E-7;
3,5608010185644E-7;
1,85129421168831E-7;
1,00620372106977E-7;
8,43181563053491E-8;
6,67479024160874E-8;
-1,99500105418524E-9;
-1,09118556966788E-7;
-1,97242803099212E-7;
-2,23053458856058E-7;
-2,0148508312185E-7;
-1,94271515981404E-7;
-2,51184128378292E-7;
-3,54985942732942E-7;
-4,20568726828599E-7;
-3,54787804275892E-7;
-1,32299873967943E-7;
1,7321199274872E-7;
4,29854123643129E-7;
5,31870434689098E-7;
4,65144812598281E-7;
3,06584155239088E-7;
1,61552939803272E-7;
8,99053191004815E-8;
7,62237358860776E-8;
6,13172948718533E-8;
2,61539425808477E-9;
-8,9032895530975E-8;
-1,64757390502699E-7;
-1,87615737014354E-7;
-1,70213829688458E-7;
-1,64993231005649E-7;
-2,14294749892727E-7;
-3,0356486788921E-7;
-3,60563864089357E-7;
-3,06110248825228E-7;
-1,18411367727098E-7;
1,40407461170569E-7;
3,58775540641744E-7;
4,47020411719743E-7;
3,92805413662434E-7;
2,60708688453016E-7;
1,39477265763519E-7;
7,96354369224342E-8;
6,83492071361131E-8;
5,58900938016268E-8;
6,445280320126E-9;
-7,09194179644565E-8;
-1,35169573677327E-7;
-1,55226242678243E-7;
-1,415620185026E-7;
-1,38086109539951E-7;
-1,80306506808423E-7;
-2,56122385509511E-7;
-3,05114949466293E-7;
-2,60937702561972E-7;
-1,05078137639301E-7;
1,10908283954553E-7;
2,94074623877703E-7;
3,6951337264231E-7;
3,26556294188567E-7;
2,18524376497237E-7;
1,18970375459152E-7;
6,98794057078094E-8;
6,07630483327101E-8;
5,05360542207331E-8;
9,5588582029685E-9;
-5,47288957007196E-8;
-1,08440785192541E-7;
-1,25860275853658E-7;
-1,15522524304856E-7;
-1,13556000298149E-7;
-1,49236744633303E-7;
-2,12693283605311E-7;
-2,54274992597607E-7;
-2,19337964010915E-7;
-9,23891423883242E-8;
8,46126080702686E-8;
2,35658358772337E-7;
2,99279963203634E-7;
2,66363140607435E-7;
1,80037191749392E-7;
1,00069589925391E-7;
6,06879179417127E-8;
5,35221368040888E-8;
4,53147943555399E-8;
1,20201071019619E-8;
-4,03874301956086E-8;
-8,44975874187942E-8;
-9,94541255440283E-8;
-9,20451222368454E-8;
-9,13674811725411E-8;
-1,21056864805772E-7;
-1,73247141353432E-7;
-2,0802158293243E-7;
-1,81324919341645E-7;
-8,04143856200272E-8;
6,1388429481075E-8;
1,8335339292708E-7;
2,36154211499831E-7;
2,12110530661772E-7;
1,45198654378286E-7;
8,2781288897041E-8;
5,20985171111173E-8;
4,66705168877413E-8;
4,02721074755525E-8;
1,38942527494928E-8;
-2,78063630119485E-8;
-6,32377014835111E-8;
-7,59097154029266E-8;
-7,10565973962339E-8;
-7,14658936989267E-8;
-9,57053531475014E-8;
-1,3770567025648E-7;
-1,66273751690288E-7;
-1,46856184128004E-7;
-6,92020481707074E-8;
4,10790300722469E-8;
1,36926556825297E-7;
1,79896127140804E-7;
1,63618670578818E-7;
1,13917780343362E-7;
6,70913722309429E-8;
4,41321933840902E-8;
4,02380516113058E-8;
3,54505519443964E-8;
1,52450306226777E-8;
-1,68868569238639E-8;
-4,45336173511586E-8;
-5,51065800817225E-8;
-5,24590465089983E-8;
-5,37644270805454E-8;
-7,3085764596313E-8;
-1,05943188174911E-7;
-1,28895671688481E-7;
-1,15849100502501E-7;
-5,87862340242439E-8;
2,35107338089222E-8;
9,60991189312427E-8;
1,30201680799445E-7;
1,20648605180551E-7;
8,60662818842936E-8;
5,29642609657846E-8;
3,68023213475005E-8;
3,42478509288485E-8;
3,08765897111737E-8;
1,61328577783823E-8;
-7,51857666432082E-9;
-2,82448575480071E-8;
-3,69008745255768E-8;
-3,61301579813483E-8;
-3,81631699761825E-8;
-5,30818237711269E-8;
-7,78022964695312E-8;
-9,57147180051595E-8;
-8,81825753067798E-8;
-4,91805075832182E-8;
8,49337309118548E-9;
6,05500360854177E-8;
8,67239994709712E-8;
8,29253454709714E-8;
6,14890598886074E-8;
4,03480372383055E-8;
3,01060669047071E-8;
2,87095876019772E-8;
2,65750909567486E-8;
1,66191823925897E-8;
4,12067775795963E-10;
-1,42142039019974E-8;
-2,11341363845606E-8;
-2,1939245844445E-8;
-2,45444758605573E-8;
-3,55566654292387E-8;
-5,3100159057785E-8;
-6,65250109795656E-8;
-6,37096953219139E-8;
-4,03877466934687E-8;
-4,16694210616572E-9;
2,99385930933085E-8;
4,90816953903465E-8;
5,01379850622086E-8;
4,00048327707113E-8;
2,91766680920228E-8;
2,40377782806669E-8;
2,36315713483831E-8;
2,25622441914602E-8;
1,67601464672583E-8;
7,02314527683349E-9;
-2,28037713095845E-9;
-7,63854403761052E-9;
-9,74559472148106E-9;
-1,27864272888061E-8;
-2,03597046095239E-8;
-3,16325387277308E-8;
-4,10974685498203E-8;
-4,22648436616002E-8;
-3,24019366888595E-8;
-1,46658781872535E-8;
3,90518614577595E-9;
1,68683574616836E-8;
2,19596567223077E-8;
2,14245997473367E-8;
1,93790965746581E-8;
1,85821775552747E-8;
1,90086378949179E-8;
1,88468085248657E-8;
1,66069989892309E-8;
1,24319385461112E-8;
7,72600439256852E-9;
3,75914620106049E-9;
6,01400106075248E-10;
-2,75368532405503E-9;
-7,33284270437875E-9;
-1,31838348870073E-8;
-1,91867160055667E-8;
-2,36613969412937E-8;
-2,5205760750079E-8;
-2,3207014537462E-8;
-1,79192387692455E-8;
-1,0332020876613E-8;
-1,95369668271057E-9;
5,54120389775059E-9;
1,08715404832456E-8;
1,37191849610776E-8;
1,48347179176136E-8;
1,54348055718148E-8;
1,62125731319743E-8;
1,67561181334181E-8;
1,5971420852064E-8;
1,32340130386933E-8;
9,24908248861573E-9;
5,6871039439662E-9;
3,68796189647319E-9;
2,4690045569544E-9;
-5,36666520251878E-10;
-7,70639616385378E-9;
-1,87733100528526E-8;
-2,9979343290738E-8;
-3,59024181335903E-8;
-3,29427379089046E-8;
-2,19485535406549E-8;
-7,85226564066228E-9;
3,56826882058266E-9;
9,41942035438429E-9;
1,10952868532308E-8;
1,23259978938004E-8;
1,56163602347529E-8;
2,01072117701282E-8;
2,26254611344637E-8;
2,09635778858393E-8;
1,63494998342091E-8;
1,2672104025054E-8;
1,2871837535947E-8;
1,55578704812555E-8;
1,51134227399551E-8;
5,80107401362199E-9;
-1,30751794096606E-8;
-3,5178616103577E-8;
-5,04094544644434E-8;
-5,1382735139607E-8;
-3,83737547041902E-8;
-1,89667856685897E-8;
-2,62233168814055E-9;
5,65853482746224E-9;
7,77767611828359E-9;
9,51544738259326E-9;
1,48661835913011E-8;
2,2598662182111E-8;
2,78485335920704E-8;
2,71185691655436E-8;
2,20522524954078E-8;
1,83386010794988E-8;
2,03816288701802E-8;
2,63084393260046E-8;
2,80263117648448E-8;
1,70631489322843E-8;
-8,07067560586421E-9;
-3,89822082789229E-8;
-6,17984071901781E-8;
-6,60639649225189E-8;
-5,15734702521935E-8;
-2,80131538028157E-8;
-7,78838632001481E-9;
2,40046437795299E-9;
4,85747272942853E-9;
6,99540969306621E-9;
1,39937929220775E-8;
2,43321436294283E-8;
3,17988538532898E-8;
3,18662633900887E-8;
2,65022157414622E-8;
2,28177958404183E-8;
2,63816212923474E-8;
3,49442459059165E-8;
3,84582421662275E-8;
2,62812741447057E-8;
-3,72505402322523E-9;
-4,1564230563398E-8;
-7,0410305102622E-8;
-7,73879084763554E-8;
-6,18808890255215E-8;
-3,51949084871188E-8;
-1,20213138602159E-8;
-3,85428623535817E-10;
2,31708707114492E-9;
4,75798357379748E-9;
1,30351696628731E-8;
2,54079638376599E-8;
3,46278529752832E-8;
3,53680246482493E-8;
2,98375180742667E-8;
2,62381360228001E-8;
3,10315712301761E-8;
4,16847332895412E-8;
4,66607033054089E-8;
3,36532754438874E-8;
6,48652355196096E-12;
-4,30901139085836E-8;
-7,65768139821463E-8;
-8,57361551984562E-8;
-6,96167708023915E-8;
-4,07114415068179E-8;
-1,54119744146014E-8;
-2,73700773707742E-9;
1,3140342352089E-10;
2,79040840959032E-9;
1,20187737114551E-8;
2,59189526646772E-8;
3,64775250575369E-8;
3,7775683261171E-8;
3,21919649589723E-8;
2,87214481309802E-8;
3,448280073895E-8;
4,67409310114108E-8;
5,28786443774191E-8;
3,93725662123453E-8;
3,16781567158934E-9;
-4,37082172478468E-8;
-8,06062537283482E-8;
-9,14745241560125E-8;
-7,50882643447566E-8;
-4,4755463178364E-8;
-1,80472185972816E-8;
-4,68662107829516E-9;
-1,72426458171383E-9;
1,07790038981147E-9;
1,09698578966977E-8;
2,59499122169948E-8;
3,74813504042758E-8;
3,92333851058841E-8;
3,36923975389418E-8;
3,03854804231748E-8;
3,68785098667251E-8;
5,03122177967875E-8;
5,73437426271141E-8;
4,36217803859698E-8;
5,80393714533737E-9;
-4,35602668912295E-8;
-8,27894696804016E-8;
-9,49433867651781E-8;
-7,85842335718766E-8;
-4,75031946517799E-8;
-2,00090008578287E-8;
-6,27294140645084E-9;
-3,27463635131522E-9;
-3,951949280098E-10;
9,90963364702715E-9;
2,55810431391794E-8;
3,77632505824558E-8;
3,98753684113097E-8;
3,44554833259004E-8;
3,13379462271539E-8;
3,83559418544656E-8;
5,25854684545679E-8;
6,02721728418369E-8;
4,65783702373294E-8;
7,95995451916836E-9;
-4,27761837030608E-8;
-8,33972033684964E-8;
-9,64650760278499E-8;
-8,0375829128309E-8;
-4,91265953084156E-8;
-2,13781438272027E-8;
-7,52872188335812E-9;
-4,546890423273E-9;
-1,64420676265703E-9;
8,8584083820408E-9;
2,48827348880423E-8;
3,74382651475621E-8;
3,98258458933319E-8;
3,45896854270283E-8;
3,16811003462491E-8;
3,90433819192832E-8;
5,37409394876841E-8;
6,18725084240314E-8;
4,84069721897563E-8;
9,68082935910011E-9;
-4,14730782961825E-8;
-8,26795210005173E-8;
-9,63326513394468E-8;
-8,07139874031032E-8;
-4,9785360350364E-8;
-2,22291598409732E-8;
-8,48750769263408E-9;
-5,56473944391492E-9;
-2,68587625921395E-9;
7,8292398853489E-9;
2,39191909908552E-8;
3,66111366882692E-8;
3,91981891823124E-8;
3,41964266103811E-8;
3,15108325784284E-8;
3,90578823137545E-8;
5,39422157451976E-8;
6,23367260212252E-8;
4,92610957510732E-8;
1,10097237822782E-8;
-3,97558792154284E-8;
-8,08642883821235E-8;
-9,48181768928108E-8;
-7,98308323181457E-8;
-4,96254671788317E-8;
-2,26333621128798E-8;
-9,18549431406379E-9;
-6,3531566380685E-9;
-3,53499817627622E-9;
6,83814268234881E-9;
2,27515221348143E-8;
3,53752738519232E-8;
3,80977184065466E-8;
3,3368079181062E-8;
3,09101678181019E-8;
3,85097246223237E-8;
5,33397046827229E-8;
6,1839662602035E-8;
4,92881113843982E-8;
1,19889731821318E-8;
-3,77184294995411E-8;
-7,81566290253139E-8;
-9,21720832911465E-8;
-7,79369859990691E-8;
-4,87803990161042E-8;
-2,26558954832308E-8;
-9,64970193429695E-9;
-6,93769321957992E-9;
-4,21280401098873E-9;
5,89274793447545E-9;
2,14305740851207E-8;
3,38176987212845E-8;
3,66159674302248E-8;
3,21873802719598E-8;
2,99598273434057E-8;
3,74964222905288E-8;
5,20728193358523E-8;
6,0543971106484E-8;
4,86179760834131E-8;
1,26581270207362E-8;
-3,54467066512959E-8;
-7,47435597297337E-8;
-8,86156686277259E-8;
-7,52243057335228E-8;
-4,73736453252235E-8;
-2,2358378900904E-8;
-9,91175201144106E-9;
-7,34070345154108E-9;
-4,73454118945229E-9;
5,0015633290712E-9;
2,00005705358893E-8;
3,20126206544866E-8;
3,48385155210935E-8;
3,07287191587017E-8;
2,87295385012236E-8;
3,61092929754622E-8;
5,02668047632982E-8;
5,85965841671523E-8;
4,73717701204851E-8;
1,30557821445241E-8;
-3,3012750646098E-8;
-7,07910135548924E-8;
-8,43491018481621E-8;
-7,18658461198149E-8;
-4,55169958557937E-8;
-2,1794282016144E-8;
-9,99861841833866E-9;
-7,58334627960175E-9;
-5,11573916241084E-9;
4,16924000166109E-9;
1,85025910195164E-8;
3,00292954600699E-8;
3,28399848888824E-8;
2,90577689432384E-8;
2,7280637287809E-8;
3,4426527745206E-8;
4,80340389644577E-8;
5,61311357864909E-8;
4,56607385756507E-8;
1,32201974877355E-8;
-3,04788642172353E-8;
-6,64440096924963E-8;
-7,95500040392405E-8;
-6,80143605807356E-8;
-4,33087827017052E-8;
-2,10148489518152E-8;
-9,93626791680338E-9;
-7,68826888924406E-9;
-5,37246985842229E-9;
3,40098113755997E-9;
1,69700400240679E-8;
2,79257820680254E-8;
3,06854800532251E-8;
2,7236058421953E-8;
2,56733934303459E-8;
3,2522693901681E-8;
4,54762689396421E-8;
5,3265252001225E-8;
4,35817947369024E-8;
1,31825576525355E-8;
-2,7901300066198E-8;
-6,18333737308437E-8;
-7,43768700830816E-8;
-6,38061790323621E-8;
-4,08382342931896E-8;
-2,00656751470952E-8;
-9,74985360085392E-9;
-7,67437791507956E-9;
-5,51931755915978E-9;
2,69814222987731E-9;
1,54323361983078E-8;
2,57532131203891E-8;
2,84308331122009E-8;
2,53127558339791E-8;
2,39567333754574E-8;
3,04599862859776E-8;
4,26821211029666E-8;
5,01055577893014E-8;
4,12228619890016E-8;
1,29735855222856E-8;
-2,53274316693567E-8;
-5,70701581101865E-8;
-6,89648443177648E-8;
-5,93581876846099E-8;
-3,81813547234217E-8;
-1,89858622324153E-8;
-9,45813287671745E-9;
-7,55965791326098E-9;
-5,5723312802993E-9;
2,06251966894939E-9;
1,39139132977604E-8;
2,35550985840037E-8;
2,61281888415336E-8;
2,33332869654297E-8;
2,21705997825421E-8;
2,82928293596604E-8;
3,97287738152265E-8;
4,67427704917252E-8;
3,86634960592948E-8;
1,26236015897143E-8;
-2,27938154024978E-8;
-5,22456623533726E-8;
-6,3432165977162E-8;
-5,47770841209365E-8;
-3,54080021081671E-8;
-1,78131896875192E-8;
-9,08415296854352E-9;
-7,36131311727396E-9;
-5,54362588559414E-9;
1,4925978811167E-9;
1,24339977168982E-8;
2,13680625412376E-8;
2,38188225292494E-8;
2,13367960109888E-8;
2,03534015978342E-8;
2,607063286758E-8;
3,66863935386755E-8;
4,32582771314247E-8;
3,59706099835674E-8;
1,21600025172175E-8;
-2,03325091334497E-8;
-4,7445167644173E-8;
-5,78785055223938E-8;
-5,0149563456967E-8;
-3,25777973609137E-8;
-1,6576593046045E-8;
-8,6453906848453E-9;
-7,09584961729269E-9;
-5,44454398080169E-9;
9,86976847682904E-10;
1,10080885452543E-8;
1,92229435357905E-8;
2,15360075640988E-8;
1,93529848497518E-8;
1,85362493090243E-8;
2,38333463239087E-8;
3,36102748926923E-8;
3,97205091990704E-8;
3,32051565270722E-8;
1,16042449976293E-8;
-1,79702377157327E-8;
-4,27323630188437E-8;
-5,23886781379324E-8;
-4,55484914695764E-8;
-2,97369587119284E-8;
-1,53049693121306E-8;
-8,15650087435413E-9;
-6,77456702506873E-9;
-5,28842154199564E-9;
5,43808872710575E-10;
9,65112350836086E-9;
1,71450469201707E-8;
1,93098319877794E-8;
1,74108621169994E-8;
1,67461491455562E-8;
2,1616007502016E-8;
3,05520211309107E-8;
3,61882333303861E-8;
3,04135771415094E-8;
1,09780004379171E-8;
-1,57259535645242E-8;
-3,81654289911442E-8;
-4,7031683534554E-8;
-4,10378190385161E-8;
-2,69314280585025E-8;
-1,40212186454231E-8;
-7,63295763455997E-9;
-6,41253711890529E-9;
-5,08623072142453E-9;
1,61649975632161E-10;
8,37183950969794E-9;
1,5152393860831E-8;
1,71642914532638E-8;
1,55314328030973E-8;
1,50039997444253E-8;
1,94472426646942E-8;
2,75512422334637E-8;
3,2712905001407E-8;
2,76445056839984E-8;
1,03017559615221E-8;
-1,36127883583654E-8;
-3,37834882641417E-8;
-4,18635512190907E-8;
-3,66667396254511E-8;
-2,4193971439881E-8;
-1,27464588604524E-8;
-7,08616412049627E-9;
-6,01895897881915E-9;
-4,84606469405447E-9;
-1,65845045833211E-10;
7,17477613474141E-9;
1,32647077612841E-8;
1,51180698924795E-8;
1,37307573069287E-8;
1,3328173302823E-8;
1,73510936389913E-8;
2,46429822104527E-8;
2,93319953102112E-8;
2,49293473638723E-8;
9,59193062663185E-9;
-1,16436855426334E-8;
-2,96246404403426E-8;
-3,69304971822919E-8;
-3,2477361925067E-8;
-2,15513376131438E-8;
-1,14955289681729E-8;
-6,52832194454993E-9;
-5,60402342893063E-9;
-4,57831261848279E-9;
-4,40285471433385E-10;
6,06685094738721E-9;
1,14882323196051E-8;
1,31842026005222E-8;
1,20235187041443E-8;
1,17305858434016E-8;
1,53445762237148E-8;
2,18516126858066E-8;
2,60789341723409E-8;
2,22979492613278E-8;
8,8620849408459E-9;
-9,82206531592237E-9;
-2,57111792897025E-8;
-3,22639583962344E-8;
-2,84987278332055E-8;
-1,90277269103324E-8;
-1,02827572353735E-8;
-5,96847783370093E-9;
-5,17917827245342E-9;
-4,29046289419096E-9;
-6,64795988744342E-10;
5,04989507596487E-9;
9,83364236176547E-9;
1,13732711587418E-8;
1,04190411192663E-8;
1,02225894192137E-8;
1,34423279549527E-8;
1,91989798698316E-8;
2,29801068056871E-8;
1,97761232780482E-8;
8,12530285182765E-9;
-8,15271425248629E-9;
-2,20594187741432E-8;
-2,78894103666206E-8;
-2,47565466818496E-8;
-1,66405843903076E-8;
-9,11959348942278E-9;
-5,41422419615919E-9;
-4,74786563340267E-9;
-3,98749678467224E-9;
-8,46391857672917E-10;
4,12256446148586E-9;
8,30394091525347E-9;
9,69000425164448E-9;
8,92414670506768E-9;
8,81160417209049E-9;
1,16542490353558E-8;
1,67015686221172E-8;
2,00545738824037E-8;
1,73793069891794E-8;
7,39368563644227E-9;
-6,63492031891082E-9;
-1,86835680791086E-8;
-2,38229364221927E-8;
-2,12627997995769E-8;
-1,44009551147777E-8;
-8,01460319921418E-9;
-4,87137101849811E-9;
-4,31998785661022E-9;
-3,67882751093625E-9;
-9,85701191893407E-10;
3,28702774326322E-9;
6,90326719299132E-9;
8,14184496516214E-9;
7,54315884440055E-9;
7,50223999379939E-9;
9,98922553781385E-9;
1,43688591884028E-8;
1,73160146819977E-8;
1,51231003785599E-8;
6,67487484518799E-9;
-5,26713583104626E-9;
-1,55850472407582E-8;
-2,00734776755029E-8;
-1,80309373938534E-8;
-1,23172805204688E-8;
-6,97296924068221E-9;
-4,3459944389871E-9;
-3,89808244841215E-9;
-3,36531087819637E-9;
-1,0882017185134E-9;
2,53792363207884E-9;
5,62892254602712E-9;
6,72571061325254E-9;
6,27679870528368E-9;
6,29753199543164E-9;
8,45036001817009E-9;
1,22074623555467E-8;
1,47723930509622E-8;
1,30155184327749E-8;
5,9765705237401E-9;
-4,04556898294441E-9;
-1,27649829255531E-8;
-1,66433241239142E-8;
-1,50650069523617E-8;
-1,0395062107727E-8;
-5,9991277987452E-9;
-3,84469281661083E-9;
-3,48995574687891E-9;
-3,0552136674786E-9;
-1,15915956138896E-9;
1,87545714067789E-9;
4,48137591840415E-9;
5,44188179218628E-9;
5,12460799079578E-9;
5,1980302002653E-9;
7,03997766875887E-9;
1,02211793355042E-8;
1,24297416354029E-8;
1,1062938628732E-8;
5,3062866973013E-9;
-2,9639897565896E-9;
-1,02190489000716E-8;
-1,35299081409738E-8;
-1,23629819440577E-8;
-8,6340635796244E-9;
-5,09696993692734E-9;
-3,36808101951036E-9;
-3,0962061025307E-9;
-2,75203323691342E-9;
-1,20263115214468E-9;
1,29250165794981E-9;
3,45543413184243E-9;
4,29036245803668E-9;
4,08739505040508E-9;
4,19962894940604E-9;
5,75455896073323E-9;
8,41047715056653E-9;
1,02880433930106E-8;
9,26749074518653E-9;
4,6674495217189E-9;
-2,01699727569747E-9;
-7,9412217172581E-9;
-1,07282250671008E-8;
-9,92016573187468E-9;
-7,03384735741388E-9;
-4,26718615675823E-9;
-2,91917628359625E-9;
-2,72167025991924E-9;
-2,45694000350606E-9;
-1,21911165467652E-9;
7,87072183785171E-10;
2,54592753329304E-9;
3,26237490711891E-9;
3,15798379560385E-9;
3,30342320717316E-9;
4,59732229600936E-9;
6,77263760074711E-9;
8,34440925628482E-9;
7,62876746410392E-9;
4,06349356453829E-9;
-1,19594169346901E-9;
-5,91920009982955E-9;
-8,22753244953259E-9;
-7,73301038633514E-9;
-5,59268990358038E-9;
-3,50910061573586E-9;
-2,50011475551049E-9;
-2,36804772171922E-9;
-2,17347332343983E-9;
-1,215471392764E-9;
3,52956645944737E-10;
1,74914916143175E-9;
2,35504964111444E-9;
2,33483823234231E-9;
2,5053985772786E-9;
3,55994162654502E-9;
5,30165018515661E-9;
6,59628480479601E-9;
6,1463564061266E-9;
3,49921283890689E-9;
-4,90528225592518E-10;
-4,14149780240491E-9;
-6,01534577170039E-9;
-5,78827452882836E-9;
-4,30375933395764E-9;
-2,82333984174733E-9;
-2,11213718821906E-9;
-2,03631134679717E-9;
-1,90429650547395E-9;
-1,1945591954409E-9;
-1,59539448989651E-11;
1,05691459309229E-9;
1,56242803377379E-9;
1,6115160498424E-9;
1,80143695427601E-9;
2,64054737753487E-9;
3,99265350016431E-9;
5,03591519637893E-9;
4,81450807374228E-9;
2,97420979981498E-9;
1,0487831232598E-10;
-2,59355617829091E-9;
-4,07615016373083E-9;
-4,07740351803626E-9;
-3,16153832670482E-9;
-2,20674052568666E-9;
-1,75597401965481E-9;
-1,72793092449166E-9;
-1,64960734668451E-9;
-1,1580438071729E-9;
-3,22732782620462E-10;
4,62714610541701E-10;
8,76183697438248E-10;
9,83164844319029E-10;
1,18480177674472E-9;
1,83113498249923E-9;
2,83887115187466E-9;
3,65607837083631E-9;
3,6289002056706E-9;
2,49037698525393E-9;
5,99457511106378E-10;
-1,2626515264205E-9;
-2,39491838471029E-9;
-2,58567648185953E-9;
-2,15821310935169E-9;
-1,65721516788119E-9;
-1,43129545223684E-9;
-1,4442178322332E-9;
-1,41194612377046E-9;
-1,10978971760058E-9;
-5,74696912131857E-10;
-4,10142488666043E-11;
2,89215123997318E-10;
4,42290537983091E-10;
6,52192939567812E-10;
1,12718280821762E-9;
1,83065066609999E-9;
2,44741425039034E-9;
2,581553770951E-9;
2,04674131172383E-9;
1,00492415139267E-9;
-1,29532516090751E-10;
-9,52347532737102E-10;
-1,2998998571718E-9;
-1,28809429291906E-9;
-1,17317070588169E-9;
-1,1374810065774E-9;
-1,18266877522884E-9;
-1,19051666316843E-9;
-1,05277944361502E-9;
-7,74899873182336E-10;
-4,61277561271502E-10;
-2,06403964922642E-10;
-1,54377068039024E-11;
1,95580497557121E-10;
5,20647742516663E-10;
9,60075532398665E-10;
1,39703756353304E-9;
1,6658642731925E-9;
1,64501927468698E-9;
1,32700854718908E-9;
8,18261853632075E-10;
2,68672565106025E-10;
-2,02055263954181E-10;
-5,39081790626342E-10;
-7,50020663317527E-10;
-8,74018442549318E-10;
-9,47524912932068E-10;
-9,86899777153408E-10;
-9,87202047066626E-10;
-9,30831514168318E-10;
-8,04427657726173E-10;
-6,17040599392587E-10;
-3,99110228520156E-10;
-1,88137288617524E-10;
4,74735202948121E-12;
2,1549308554988E-10;
4,97564158897953E-10;
8,73565655475297E-10;
1,28207415884649E-9;
1,57572284336988E-9;
1,59915690979296E-9;
1,28580692507074E-9;
7,1875647767421E-10;
9,62771861942236E-11;
-3,8444626555439E-10;
-6,39227809053761E-10;
-7,33719694481273E-10;
-8,0136827196728E-10;
-9,1833415273207E-10;
-1,04722305194161E-9;
-1,08042826849877E-9;
-9,52419745222933E-10;
-7,15608024728843E-10;
-5,08492318332744E-10;
-4,2741809785142E-10;
-4,11236148581684E-10;
-2,64029745766887E-10;
1,96198364132847E-10;
9,58137260759827E-10;
1,75958696732091E-9;
2,22815948969387E-9;
2,11781643090685E-9;
1,47901484467185E-9;
6,27738525842998E-10;
-6,95737718358472E-11;
-4,31459611468351E-10;
-5,44462193388186E-10;
-6,32888071182023E-10;
-8,44608080527019E-10;
-1,12893966934793E-9;
-1,29617357446386E-9;
-1,21743145878938E-9;
-9,67919664743114E-10;
-7,68398701159815E-10;
-7,82703497071472E-10;
-9,30995559197247E-10;
-8,99048463741384E-10;
-3,75571143449267E-10;
6,71026093406008E-10;
1,88755629553796E-9;
2,72227680340657E-9;
2,7842669395223E-9;
2,09499987293639E-9;
1,06388820223335E-9;
1,94313207218768E-10;
-2,51823695015399E-10;
-3,75826368316113E-10;
-4,81236882384511E-10;
-7,71102930384518E-10;
-1,17815435986895E-9;
-1,45430035455957E-9;
-1,42170802029114E-9;
-1,16496621591491E-9;
-9,74173614287997E-10;
-1,07023786067606E-9;
-1,35405473377994E-9;
-1,41966013476846E-9;
-8,50080013442356E-10;
4,19667775210764E-10;
1,96425786040667E-9;
3,09526409974206E-9;
3,30109874009827E-9;
2,57924023998832E-9;
1,41388609920697E-9;
4,14259047818714E-10;
-9,55972217006246E-11;
-2,29014824710851E-10;
-3,46299701562188E-10;
-6,96087772564435E-10;
-1,20268535404906E-9;
-1,56716787706683E-9;
-1,57156121741547E-9;
-1,31385094298484E-9;
-1,13486786810702E-9;
-1,29542298456583E-9;
-1,68773580380909E-9;
-1,83465777182568E-9;
-1,23622371024175E-9;
2,00848351446504E-10;
1,99824699485636E-9;
3,36051568494696E-9;
3,68548174433163E-9;
2,94855821730762E-9;
1,68777352944952E-9;
5,93438129605954E-10;
3,72261888169366E-11;
-1,01390117159398E-10;
-2,26738226524291E-10;
-6,21823096537443E-10;
-1,20438882875015E-9;
-1,63743275656943E-9;
-1,674455845697E-9;
-1,41960201225549E-9;
-1,25030344225886E-9;
-1,46472546291001E-9;
-1,9451071612597E-9;
-2,15805719975952E-9;
-1,54381943471673E-9;
1,28237241955821E-11;
1,99654361640177E-9;
3,53355668354087E-9;
3,95321612391132E-9;
3,21594080772304E-9;
1,89374511601349E-9;
7,34092564296151E-10;
1,48383769764968E-10;
8,32903979584684E-12;
-1,23011463313926E-10;
-5,50863829047032E-10;
-1,18804239072883E-9;
-1,67215533741537E-9;
-1,73463960139126E-9;
-1,48534078317141E-9;
-1,33081504515741E-9;
-1,58732296916588E-9;
-2,13097203694619E-9;
-2,3973965926627E-9;
-1,78078305915595E-9;
-1,45719897447319E-10;
1,96570282515969E-9;
3,62645814187729E-9;
4,1197051333084E-9;
3,39150527647972E-9;
2,03746114993402E-9;
8,43624960650415E-10;
2,41199515697916E-10;
1,01016356389545E-10;
-3,18329252444484E-11;
-4,81590824618627E-10;
-1,15544016536902E-9;
-1,67522430905398E-9;
-1,76034855278916E-9;
-1,51997385639946E-9;
-1,37734581948108E-9;
-1,66502062826972E-9;
-2,25680374007308E-9;
-2,56506778338985E-9;
-1,95465816094291E-9;
-2,77419711410245E-10;
1,90981416313232E-9;
3,65067678350151E-9;
4,19981993510248E-9;
3,49097375924165E-9;
2,13039683117199E-9;
9,23485602303832E-10;
3,16320642183832E-10;
1,77663140892977E-10;
4,38378162906028E-11;
-4,15107259386234E-10;
-1,11045711989891E-9;
-1,6535030482219E-9;
-1,75492386210531E-9;
-1,5264583975863E-9;
-1,39660689192798E-9;
-1,70739659809203E-9;
-2,33147369923965E-9;
-2,66862530324195E-9;
-2,07160894056284E-9;
-3,85145741428623E-10;
1,83302812365505E-9;
3,61630992915634E-9;
4,20440032480983E-9;
3,52333746972977E-9;
2,17763865091861E-9;
9,76901877026099E-10;
3,7457728958414E-10;
2,40589803805127E-10;
1,08835548827178E-10;
-3,53400558461941E-10;
-1,05657336317927E-9;
-1,61038957705079E-9;
-1,72431097584816E-9;
-1,50956747284937E-9;
-1,39363087526392E-9;
-1,71755909989857E-9;
-2,35921851559077E-9;
-2,71752801423385E-9;
-2,14179012137318E-9;
-4,72381702338667E-10;
1,74192344329346E-9;
3,53570972323339E-9;
4,14769589520728E-9;
3,49810457309312E-9;
2,18388885817096E-9;
1,00828708457323E-9;
4,18562794605183E-10;
2,90269901341242E-10;
1,61946204597348E-10;
-2,96146020544279E-10;
-9,94572016951421E-10;
-1,55088792723592E-9;
-1,67459197155666E-9;
-1,47263658860776E-9;
-1,36928121479191E-9;
-1,70207259062827E-9;
-2,35018175912802E-9;
-2,72048936689182E-9;
-2,17026594861116E-9;
-5,38760380591686E-10;
1,63945336265021E-9;
3,41562675995477E-9;
4,03843258407847E-9;
3,42732917951262E-9;
2,16041600879272E-9;
1,02120418637393E-9;
4,50385762205581E-10;
3,2785060487107E-10;
2,05505965133094E-10;
-2,42085080809283E-10;
-9,28781414869153E-10;
-1,47781893243449E-9;
-1,60871471001717E-9;
-1,4217149542567E-9;
-1,32931124100661E-9;
-1,66529558364003E-9;
-2,30846516401158E-9;
-2,68356542088114E-9;
-2,16419340834667E-9;
-5,86496161657508E-10;
1,52969499099262E-9;
3,26497309563967E-9;
3,88981602027417E-9;
3,31926033352887E-9;
2,10894454225714E-9;
1,01635030394836E-9;
4,70600666326152E-10;
3,55938800189029E-10;
2,38687425044751E-10;
-1,93740878656536E-10;
-8,5997600863816E-10;
-1,39598545578869E-9;
-1,52831750586325E-9;
-1,35728409368808E-9;
-1,27816881123571E-9;
-1,60949625133935E-9;
-2,2404342361339E-9;
-2,61493779626688E-9;
-2,12786760319539E-9;
-6,20658143859367E-10;
1,41331048838412E-9;
3,09100431287716E-9;
3,70852939403515E-9;
3,17997312761214E-9;
2,03484418785055E-9;
9,99077914155011E-10;
4,83158578793429E-10;
3,75351610274174E-10;
2,63610161490238E-10;
-1,48806873845322E-10;
-7,87256973757378E-10;
-1,30496024028435E-9;
-1,43915848749641E-9;
-1,2828723138136E-9;
-1,21414004399123E-9;
-1,53974250113767E-9;
-2,15146152842419E-9;
-2,5196553360433E-9;
-2,06696116334086E-9;
-6,39083621221401E-10;
1,29517957744277E-9;
2,90006322118942E-9;
3,50309091864929E-9;
3,01663422338029E-9;
1,94447849630789E-9;
9,70802755440575E-10;
4,8398881351732E-10;
3,85154424084787E-10;
2,82174337067178E-10;
-1,09306709583283E-10;
-7,15519525973037E-10;
-1,20954494544032E-9;
-1,3439418152384E-9;
-1,20309528244023E-9;
-1,1448795888199E-9;
-1,45879504651473E-9;
-2,04400090426624E-9;
-2,4041106205299E-9;
-1,98843208233731E-9;
-6,47965722035909E-10;
1,17574741371413E-9;
2,69726990326268E-9;
3,27952551214621E-9;
2,83701866025433E-9;
1,84033098241701E-9;
9,32631888394553E-10;
4,81234405253426E-10;
3,89777324060655E-10;
2,93184882079312E-10;
-7,33925902945315E-11;
-6,45415701964394E-10;
-1,11338412263555E-9;
-1,24417723614444E-9;
-1,11800088628538E-9;
-1,06889875930393E-9;
-1,37060590051332E-9;
-1,9273284266311E-9;
-2,27300921322514E-9;
-1,89377344530224E-9;
-6,46235307423369E-10;
1,05938534804487E-9;
2,48848850541166E-9;
3,04521752222951E-9;
2,64562121132197E-9;
1,72643971481681E-9;
8,8734038150579E-10;
4,70111043924365E-10;
3,8738789058644E-10;
2,98748776743428E-10;
-4,33105011592847E-11;
-5,76582795173881E-10;
-1,01526265216793E-9;
-1,14209888823745E-9;
-1,03053568861276E-9;
-9,9134261526302E-10;
-1,27624493779255E-9;
-1,80039453347936E-9;
-2,13051225034149E-9;
-1,78595155226567E-9;
-6,35431073588654E-10;
9,45816394830999E-10;
2,27750851769622E-9;
2,80359217803616E-9;
2,44671188630512E-9;
1,60731161379698E-9;
8,37103768438621E-10;
4,54396294833032E-10;
3,79896108399857E-10;
2,99350903572764E-10;
-1,59958117547055E-11;
-5,09453213750689E-10;
-9,17598481694133E-10;
-1,04012092536469E-9;
-9,42420211038467E-10;
-9,10747860605162E-10;
-1,17985501607464E-9;
-1,66936317037304E-9;
-1,98130950483027E-9;
-1,6730179803592E-9;
-6,17754226559963E-10;
8,36765648777709E-10;
2,06593987612595E-9;
2,5608000005351E-9;
2,24463796472561E-9;
1,48366046627368E-9;
7,82686991882436E-10;
4,34797402961545E-10;
3,69182166779029E-10;
2,95961264331096E-10;
7,4587295916566E-12;
-4,45847974457626E-10;
-8,23664504802217E-10;
-9,39883370460614E-10;
-8,54990123805962E-10;
-8,30177334662977E-10;
-1,080716973134E-9;
-1,53507004885645E-9;
-1,82814926120465E-9;
-1,55388811353287E-9;
-5,95268342901405E-10;
7,33203328179931E-10;
1,86120740323763E-9;
2,3214279690886E-9;
2,0435489214071E-9;
1,35882222741071E-9;
7,26206859768604E-10;
4,12913393256223E-10;
3,54116558661905E-10;
2,88529780883773E-10;
2,65119638003012E-11;
-3,86669212627205E-10;
-7,3236092854142E-10;
-8,41775372527909E-10;
-7,68607767505679E-10;
-7,50814542335873E-10;
-9,83294132891136E-10;
-1,4000764251877E-9;
-1,6720595372795E-9;
-1,43100146928528E-9;
-5,67577014029883E-10;
6,35223787581114E-10;
1,66101701770806E-9;
2,08648534907553E-9;
1,84542315183188E-9;
1,23475192361219E-9;
6,694149592342E-10;
3,89658273293801E-10;
3,37555327182111E-10;
2,80056979400646E-10;
4,36121414425387E-11;
-3,31189635310319E-10;
-6,44238069098128E-10;
-7,46722702049995E-10;
-6,86479185995195E-10;
-6,73981188584208E-10;
-8,87059054940638E-10;
-1,26743226351879E-9;
-1,51834852509087E-9;
-1,30798429707884E-9;
-5,36188138239589E-10;
5,44021782463544E-10;
1,46990886388667E-9;
1,8602342505227E-9;
1,65255674958105E-9;
1,11249061936819E-9;
6,10978609858826E-10;
3,63058015411044E-10;
3,19020285405011E-10;
2,68046762029678E-10;
5,5735788599325E-11;
-2,7945575805221E-10;
-5,62577029807742E-10;
-6,57465904233755E-10;
-6,055590715628E-10;
-5,98643981280342E-10;
-7,93627100508934E-10;
-1,13883196523265E-9;
-1,3685757964694E-9;
-1,18662523164655E-9;
-5,0357293437266E-10;
4,59203684930746E-10;
1,28797207042644E-9;
1,64251616217166E-9;
1,4675401327153E-9;
9,94617153111727E-10;
5,53502213163483E-10;
3,36904790648174E-10;
2,98556607497519E-10;
2,53917627956047E-10;
6,64418992024842E-11;
-2,32329598274292E-10;
-4,84954709595344E-10;
-5,71937103597358E-10;
-5,30544536973679E-10;
-5,28374092430413E-10;
-7,04479609217072E-10;
-1,01365667528002E-9;
-1,22224380081083E-9;
-1,06732074470828E-9;
-4,683900326829E-10;
3,81021153487508E-10;
1,11729349391008E-9;
1,43736876280604E-9;
1,29135653253452E-9;
8,82532740236184E-10;
4,97922353027145E-10;
3,08716958298518E-10;
2,77376148096574E-10;
2,38925908215411E-10;
7,3911284763927E-11;
-1,88977480863233E-10;
-4,13206032832171E-10;
-4,9204149123728E-10;
-4,59084110986003E-10;
-4,61183537689176E-10;
-6,18889650011527E-10;
-8,93513774765877E-10;
-1,08147498539858E-9;
-9,52305037702257E-10;
-4,31931503068178E-10;
3,10526671606359E-10;
9,57202605933976E-10;
1,24417710708915E-9;
1,1243651273932E-9;
7,73705614885386E-10;
4,43449951238682E-10;
2,81604046407073E-10;
2,55050504826193E-10;
2,22318233616256E-10;
7,96824812632226E-11;
-1,49271061339506E-10;
-3,47393656781408E-10;
-4,19691717998866E-10;
-3,92810986243254E-10;
-3,97658823950934E-10;
-5,38403184538372E-10;
-7,81490596208916E-10;
-9,50605986134144E-10;
-8,42894543591088E-10;
-3,95479968388429E-10;
2,46538884877261E-10;
8,09725598116611E-10;
1,06473565591457E-9;
9,70068132636582E-10;
6,73186245617906E-10;
3,9139317415935E-10;
2,55257684433307E-10;
2,33468192144519E-10;
2,05872390405309E-10;
8,32499597820036E-11;
-1,15019419948266E-10;
-2,85184519575206E-10;
-3,50502385032183E-10;
-3,32851067086269E-10;
-3,38929020384486E-10;
-4,62461448394109E-10;
-6,75559119272024E-10;
-8,25384282656798E-10;
-7,39015654911445E-10;
-3,59844089912424E-10;
1,89390075180093E-10;
6,74429035733278E-10;
8,9936931450302E-10;
8,25372754139691E-10;
5,7875263560713E-10;
3,43972025474022E-10;
2,28917636313012E-10;
2,11515000891533E-10;
1,88970506390932E-10;
8,45444128761877E-11;
-8,42073622230378E-11;
-2,32001036960823E-10;
-2,89761442084676E-10;
-2,75880720983714E-10;
-2,84889512497737E-10;
-3,9354012307773E-10;
-5,77327115298772E-10;
-7,09026571562609E-10;
-6,41154751566509E-10;
-3,24320875730046E-10;
1,39429334510055E-10;
5,52338891545962E-10;
7,47041984598341E-10;
6,92156306387953E-10;
4,91075462958126E-10;
2,97077461539233E-10;
2,03273738203426E-10;
1,89563695496144E-10;
1,72144667218838E-10;
8,57476002548663E-11;
-5,74892580458537E-11;
-1,82176758604527E-10;
-2,32580752459552E-10;
-2,25075370266719E-10;
-2,35114291396348E-10;
-3,2894888708446E-10;
-4,86818810810066E-10;
-6,00987611659208E-10;
-5,4922725080269E-10;
-2,89146035868537E-10;
9,51762120378007E-11;
4,41352881856916E-10;
6,10115151855693E-10;
5,70648309621053E-10;
4,10125823270308E-10;
2,54238738379617E-10;
1,78879001291402E-10;
1,69779611363815E-10;
1,5483975684674E-10;
8,37647375125907E-11;
-3,34155527766887E-11;
-1,38367302039601E-10;
-1,82522168480066E-10;
-1,80087516647838E-10;
-1,91139434062344E-10;
-2,69880734638517E-10;
-4,03472889315283E-10;
-5,02708777207834E-10;
-4,65900668828425E-10;
-2,56647757298155E-10;
5,67572385912633E-11;
3,42035547704465E-10;
4,85292969582537E-10;
4,605604746926E-10;
3,37100169122756E-10;
2,15318555869699E-10;
1,56383806764165E-10;
1,50296105923796E-10;
1,39941410608846E-10;
8,16131501268645E-11;
-1,36808263352861E-11;
-9,91706369426438E-11;
-1,3820336348326E-10;
-1,37832346855243E-10;
-1,49888424629311E-10;
-2,18153602236572E-10;
-3,28262443468763E-10;
-4,11845665101021E-10;
-3,88323637664126E-10;
-2,25402444245673E-10;
2,38747558088025E-11;
2,54515274440594E-10;
3,74907901919996E-10;
3,62314310045324E-10;
2,71407434660129E-10;
1,79265946743401E-10;
1,34446856794079E-10;
1,31255796752944E-10;
1,24274307076992E-10;
7,96018074736864E-11;
3,81844625694074E-12;
-6,59758636985444E-11;
-9,89383243342679E-11;
-1,01587528874341E-10;
-1,1416012502834E-10;
-1,70845072743813E-10;
-2,61270888689516E-10;
-3,31322159405523E-10;
-3,1780884050364E-10;
-1,95369747953687E-10;
-4,20010580133163E-12;
1,7570430429909E-10;
2,76474593793153E-10;
2,75699820430106E-10;
2,11215293599813E-10;
1,46114955748295E-10;
1,15182526453147E-10;
1,13469568670626E-10;
1,0901241838064E-10;
7,57714479491079E-11;
1,77172606616837E-11;
-3,71318431203407E-11;
-6,40321060970467E-11;
-6,98479081610475E-11;
-8,32407868498319E-11;
-1,28080662117372E-10;
-1,99782803461497E-10;
-2,57849779995567E-10;
-2,54117160343082E-10;
-1,68640841382318E-10;
-2,75962881089158E-11;
1,10004270529182E-10;
1,90471381901709E-10;
1,97737164909684E-10;
1,58432310361272E-10;
1,16117775871554E-10;
9,71376074841638E-11;
9,75569022138111E-11;
9,49854283863105E-11;
7,14922568595891E-11;
2,96444091728095E-11;
-1,15643704627936E-11;
-3,47265179635334E-11;
-4,22523742761333E-11;
-5,51173232878474E-11;
-9,12551061289536E-11;
-1,46955064559506E-10;
-1,93387495140057E-10;
-1,96787599837536E-10;
-1,42674224969253E-10;
-4,64021751117952E-11;
5,17957019580286E-11;
1,14390620173157E-10;
1,29299166973936E-10;
1,11953201689756E-10;
9,0143839682779E-11;
8,04710646688039E-11;
8,178970487975E-11;
8,18378903320837E-11;
6,75157076527452E-11;
3,92146796459174E-11;
9,79258737714494E-12;
-9,49279309730347E-12;
-1,85086182035538E-11;
-3,06360794767111E-11;
-5,85296548088798E-11;
-9,90965545364593E-11;
-1,3567080396562E-10;
-1,45864799435197E-10;
-1,18142213829752E-10;
-6,18235564432192E-11;
2,26222446795416E-12;
5,00507757786219E-11;
7,07566645792536E-11;
7,21035236244617E-11;
6,57829750766924E-11;
6,42239001453308E-11;
6,89488328492426E-11;
6,98343962218501E-11;
6,18251692614846E-11;
4,58324091837394E-11;
2,71177589345996E-11;
1,17948026597235E-11;
1,3731073700611E-12;
-1,02049392485951E-11;
-3,06935447035022E-11;
-5,83385011224837E-11;
-8,56132639733345E-11;
-1,01728176857269E-10;
-9,71099283026033E-11;
-7,33792073626404E-11;
-3,87236153797443E-11;
-4,3979636297757E-12;
2,07354019673005E-11;
3,63500077498846E-11;
4,49196726142299E-11;
5,07499604472937E-11;
5,5723396384537E-11;
5,76495211609808E-11;
5,68161707596725E-11;
5,14647666984605E-11;
4,10336214193263E-11;
2,99282857504896E-11;
1,88259854370571E-11;
6,99843810506638E-12;
-6,68722791180025E-12;
-2,36956504765922E-11;
-4,22722225850351E-11;
-6,22513574652963E-11;
-7,86894487934527E-11;
-8,23571617010755E-11;
-7,27333463201156E-11;
-5,08705300747784E-11;
-2,05214398830295E-11;
7,02300678714247E-12;
2,71865824908948E-11;
3,95617229014495E-11;
4,43947575337645E-11;
4,81358908641437E-11;
5,25739630106312E-11;
5,48592528994286E-11;
5,28790399385602E-11;
4,39840549630056E-11;
3,2280134090689E-11;
2,18678518050741E-11;
1,33592932904743E-11;
6,62326257284869E-12;
-6,16116166035798E-12;
-2,97183482939583E-11;
-5,97863133392497E-11;
-8,74846369731445E-11;
-9,9995380454996E-11;
-8,80086827334874E-11;
-5,53769097875844E-11;
-1,87863336923476E-11;
1,03468161794063E-11;
2,75760213132484E-11;
3,30915722103448E-11;
3,73523749425513E-11;
4,63972059915434E-11;
5,65227745143758E-11;
6,1340542199104E-11;
5,60445942069224E-11;
4,37548016427129E-11;
3,34181915235195E-11;
2,98387892571319E-11;
3,08800462090934E-11;
2,47303706322832E-11;
-7,85939468070431E-13;
-4,34806499777037E-11;
-9,15938316652009E-11;
-1,21146851204259E-10;
-1,16584196207534E-10;
-8,55410052746224E-11;
-3,98078939078772E-11;
-8,19445306199638E-13;
1,75853233904242E-11;
2,49295848109033E-11;
3,06870717416564E-11;
4,16433900566853E-11;
5,80806404470893E-11;
6,77233940484033E-11;
6,44529369276867E-11;
5,30233944296912E-11;
4,2893627465947E-11;
4,43193789312539E-11;
5,20158136137611E-11;
4,99141171716828E-11;
2,42233127899904E-11;
-3,02048491324555E-11;
-9,33869016143908E-11;
-1,36664385514223E-10;
-1,41702108795501E-10;
-1,06875952642535E-10;
-5,61781624466868E-11;
-1,36463305843408E-11;
1,01976046152225E-11;
1,70186288582266E-11;
2,26229127791117E-11;
3,72728274024822E-11;
5,78305099030759E-11;
7,20963586122109E-11;
7,04015911556819E-11;
5,89003639224308E-11;
5,0300317244974E-11;
5,45267509785346E-11;
6,8512049384837E-11;
7,16564708646003E-11;
4,34575614466634E-11;
-1,83787789070644E-11;
-9,30102780445714E-11;
-1,48194405379571E-10;
-1,58403091150324E-10;
-1,23826953201216E-10;
-6,95158791429755E-11;
-2,2190700777074E-11;
3,07711268548937E-12;
1,01482829351073E-11;
1,57941375176413E-11;
3,21388716766122E-11;
5,66781206108197E-11;
7,45600125806205E-11;
7,57724948591256E-11;
6,41294496525359E-11;
5,4863224533339E-11;
6,2653466583113E-11;
8,0732753955599E-11;
8,63919270802901E-11;
5,92723733911863E-11;
-7,74682132624817E-12;
-9,27738643144803E-11;
-1,55726412059859E-10;
-1,70607804241767E-10;
-1,37381357393004E-10;
-7,96880043172504E-11;
-2,900832705434E-11;
-2,86387507615438E-12;
3,3614351702254E-12;
9,76569516505405E-12;
2,90119628079605E-11;
5,54469939133607E-11;
7,51629069271329E-11;
7,77644913872344E-11;
6,6735534310939E-11;
5,91777682253533E-11;
6,8926017606968E-11;
9,05296469319585E-11;
1,0056129991309E-10;
7,17477251420339E-11;
6,20633539421089E-13;
-8,84510359110494E-11;
-1,59447838155669E-10;
-1,79064154385658E-10;
-1,46258538342723E-10;
-8,70282568610801E-11;
-3,41108163892085E-11;
-8,81530162118188E-12;
-1,71145141667257E-12;
4,75549676349047E-12;
2,35637585111281E-11;
5,35306783479781E-11;
7,51037664753778E-11;
7,84917536893049E-11;
6,83787008858524E-11;
6,15263650601078E-11;
7,37605744556121E-11;
9,77940577571681E-11;
1,09042556815046E-10;
8,08368819567877E-11;
7,78615998956668E-12;
-8,55062403596842E-11;
-1,59710304623232E-10;
-1,822985324217E-10;
-1,51056476326336E-10;
-9,17392196403243E-11;
-3,9085104574805E-11;
-1,29710060526837E-11;
-6,17355839797413E-12;
3,12516189414397E-13;
2,06383137549099E-11;
5,06159160960208E-11;
7,36383489622303E-11;
7,82846895500906E-11;
6,76352288398087E-11;
6,19809412385253E-11;
7,56061998260653E-11;
1,0090017446214E-10;
1,14995244919721E-10;
8,85753419311746E-11;
1,44364702651538E-11;
-8,07798943866105E-11;
-1,58337737483895E-10;
-1,84276072077181E-10;
-1,53602529607618E-10;
-9,51906622070544E-11;
-4,23667685881342E-11;
-1,62043711095149E-11;
-1,0890267740645E-11;
-3,35416612383764E-12;
1,68376587742266E-11;
4,7264402514974E-11;
7,1998590169744E-11;
7,62346552400363E-11;
6,76276844906639E-11;
6,30387812178357E-11;
7,60588830911077E-11;
1,03729646777109E-10;
1,18590657867187E-10;
9,24908378426911E-11;
1,96138607140215E-11;
-7,65780866792603E-11;
-1,5414642323125E-10;
-1,80852405675596E-10;
-1,52540940835243E-10;
-9,58251288498279E-11;
-4,5356179444467E-11;
-1,88151335100546E-11;
-1,28958543044612E-11;
-6,56947357319192E-12;
1,34704122023594E-11;
4,29036755416329E-11;
6,87548059780734E-11;
7,49494788831717E-11;
6,55179042970447E-11;
6,12358511201534E-11;
7,55297840603051E-11;
1,03446035249169E-10;
1,19768986264073E-10;
9,63368189720364E-11;
2,39860790057903E-11;
-7,23913051858202E-11;
-1,4948780644079E-10;
-1,7685827810022E-10;
-1,50181536022984E-10;
-9,52336986423166E-11;
-4,57414760717857E-11;
-2,02301384136255E-11;
-1,54385107933223E-11;
-9,58113948592282E-12;
1,10815884252253E-11;
4,04892986349076E-11;
6,511679200742E-11;
7,19300338913729E-11;
6,27310419873418E-11;
5,91643736665544E-11;
7,48261502115379E-11;
1,02809411399318E-10;
1,197521421706E-10;
9,65398666437447E-11;
2,77530763618228E-11;
-6,53107470695197E-11;
-1,43292671335168E-10;
-1,70382791537874E-10;
-1,4577583943271E-10;
-9,42373899549425E-11;
-4,60077585382356E-11;
-2,15138652787347E-11;
-1,71650189805906E-11;
-1,17108542586416E-11;
8,65339009612127E-12;
3,76673991228962E-11;
6,09511923451335E-11;
6,78686105982925E-11;
6,09895167809396E-11;
5,70576341275713E-11;
7,19816274844874E-11;
1,00593681758782E-10;
1,16093016422906E-10;
9,45940687588317E-11;
2,92533305532545E-11;
-6,0655344807081E-11;
-1,34243406199801E-10;
-1,62010508427327E-10;
-1,40129678117329E-10;
-8,9580625478226E-11;
-4,52581873764968E-11;
-2,36658182584421E-11;
-1,77271143370368E-11;
-1,3060440567024E-11;
5,08073785823512E-12;
3,4553054818935E-11;
5,70169887689086E-11;
6,3939811407832E-11;
5,858756195218E-11;
5,44451547630301E-11;
6,89160365206485E-11;
9,65574500750331E-11;
1,12733248426757E-10;
9,39404301079076E-11;
3,10447292766211E-11;
-5,50359892721723E-11;
-1,26004183946896E-10;
-1,54376493013642E-10;
-1,34559603779887E-10;
-8,6860469834064E-11;
-4,40310216757874E-11;
-2,30373434733235E-11;
-1,86693524239832E-11;
-1,45646154989166E-11;
3,19168179233127E-12;
3,14350879830987E-11;
5,35011506864715E-11;
5,90315607838426E-11;
5,36551005141124E-11;
5,19601879889124E-11;
6,59283431386532E-11;
9,17593944428116E-11;
1,08094110497297E-10;
9,04661018691969E-11;
3,12484452585539E-11;
-4,91186669319923E-11;
-1,17341443869297E-10;
-1,44691337231115E-10;
-1,25986213675925E-10;
-8,29776335886233E-11;
-4,22263869153825E-11;
-2,26623267894296E-11;
-1,94196300455917E-11;
-1,4294116038871E-11;
1,47585775147265E-12;
2,69955057932234E-11;
4,8848327000895E-11;
5,54501251938235E-11;
4,99674206694416E-11;
4,71360300008671E-11;
6,16246677515901E-11;
8,73692897113703E-11;
1,03196235396524E-10;
8,80400676220676E-11;
3,2387320412111E-11;
-4,44198621175068E-11;
-1,08388788343882E-10;
-1,35218466108622E-10;
-1,18420675738876E-10;
-7,70485709406629E-11;
-4,04514544134195E-11;
-2,28207332657866E-11;
-1,8766015005899E-11;
-1,46094408838741E-11;
-7,23115705568626E-15;
2,48674349302733E-11;
4,50985019377428E-11;
4,97065587822189E-11;
4,56692455215896E-11;
4,50112805774748E-11;
5,78781132904074E-11;
8,22139344787541E-11;
9,79559006792426E-11;
8,34085519858067E-11;
3,19614247197121E-11;
-3,93453429705844E-11;
-9,92263064486165E-11;
-1,23598932967851E-10;
-1,08939052679201E-10;
-7,24175066975233E-11;
-3,87356079616236E-11;
-2,17245208396431E-11;
-1,81738736293867E-11;
-1,56260240671939E-11;
-1,49327858386338E-12;
2,17297559772083E-11;
3,97972161958051E-11;
4,60747505611368E-11;
4,19907054494172E-11;
4,073829275014E-11;
5,46434539581856E-11;
7,65775592580161E-11;
9,07784692846979E-11;
7,83676495345797E-11;
3,13287095577571E-11;
-3,41406730884617E-11;
-8,95415250722595E-11;
-1,12584909685073E-10;
-1,01063336050084E-10;
-6,79002544925377E-11;
-3,58404318091115E-11;
-2,14732098195566E-11;
-1,80966480061507E-11;
-1,46969668293888E-11;
-2,76934435902524E-12;
1,91457357379602E-11;
3,59078680614586E-11;
4,0314335171474E-11;
3,84785761596927E-11;
3,82073089264007E-11;
4,95299620215681E-11;
7,02538318821528E-11;
8,38694470648447E-11;
7,33095403290488E-11;
3,02829025090874E-11;
-3,0397921419081E-11;
-8,05614752312217E-11;
-1,02055804440955E-10;
-9,12099969554244E-11;
-6,17442365582243E-11;
-3,46445437949016E-11;
-2,04463049558844E-11;
-1,76498339615362E-11;
-1,47598942354217E-11;
-2,39983529325244E-12;
1,62306857223843E-11;
3,19404273237889E-11;
3,6997975690588E-11;
3,44290279330094E-11;
3,48725360651485E-11;
4,51543508946218E-11;
6,44827708874614E-11;
7,80319234707599E-11;
6,72781026432245E-11;
2,88588150843813E-11;
-2,50239507899508E-11;
-7,22391866110689E-11;
-9,26020883572124E-11;
-8,26794591373834E-11;
-5,63298020981368E-11;
-3,15647020881344E-11;
-1,87477950131476E-11;
-1,70727848847149E-11;
-1,48515970700125E-11;
-3,4345352432597E-12;
1,33968061473898E-11;
2,80083521085755E-11;
3,33944802527267E-11;
3,04547428963685E-11;
2,99890993457776E-11;
4,03175668614376E-11;
5,83454827222507E-11;
7,0308499937495E-11;
6,16614236985753E-11;
2,75895627060721E-11;
-2,0518804344127E-11;
-6,30759387897315E-11;
-8,2808099973817E-11;
-7,40369317324666E-11;
-5,10282666371317E-11;
-2,94907835820501E-11;
-1,78255792700206E-11;
-1,6681737741748E-11;
-1,45703686012428E-11;
-4,08656747296208E-12;
1,14931449245295E-11;
2,43096650299989E-11;
2,88731154912494E-11;
2,71746726697521E-11;
2,69658065607785E-11;
3,6566550546461E-11;
5,36585737086213E-11;
6,43239008334753E-11;
5,65186427914475E-11;
2,63334519630596E-11;
-1,76534004902507E-11;
-5,55747617174374E-11;
-7,24551975393418E-11;
-6,6073639081434E-11;
-4,57680249473324E-11;
-2,57191524142186E-11;
-1,59966668899994E-11;
-1,5837084264631E-11;
-1,35729070831614E-11;
-3,98704497142496E-12;
8,50937302097764E-12;
2,02009718883491E-11;
2,55275144894375E-11;
2,36385536253521E-11;
2,359627919567E-11;
3,20614853446073E-11;
4,71516937746293E-11;
5,74643293223255E-11;
5,05808794020722E-11;
2,44358841052556E-11;
-1,43599478088604E-11;
-4,8465899043772E-11;
-6,2846414294341E-11;
-5,77852269287033E-11;
-4,01434253311465E-11;
-2,34932332135962E-11;
-1,59652929754894E-11;
-1,3877504723797E-11;
-1,22772373062634E-11;
-4,99810446346722E-12;
7,0215037858213E-12;
1,7780580158094E-11;
2,24222239765308E-11;
2,05619596031397E-11;
2,12198822201338E-11;
2,89143403242106E-11;
4,14273831205195E-11;
5,17081062612852E-11;
4,61298334939232E-11;
2,19740720750624E-11;
-1,13189788794236E-11;
-4,1233372993981E-11;
-5,47783239746827E-11;
-5,02043738455144E-11;
-3,57516651152825E-11;
-2,07153223965037E-11;
-1,28626942057056E-11;
-1,22684103338606E-11;
-1,08906903208806E-11;
-3,96098375794272E-12;
5,92076342384002E-12;
1,45429406102659E-11;
1,82546970849772E-11;
1,76958402895764E-11;
1,80359573538729E-11;
2,53518122167313E-11;
3,75753200982571E-11;
4,46687614582367E-11;
4,08487067101293E-11;
2,16417987599601E-11;
-8,57502145581114E-12;
-3,43952476044692E-11;
-4,67901832686464E-11;
-4,4036074511227E-11;
-3,08515097917864E-11;
-1,78569307959537E-11;
-1,25792636844693E-11;
-1,2226800318552E-11;
-1,06596558318099E-11;
-5,65430376618765E-12;
3,97407824537283E-12;
1,22070730779316E-11;
1,49318029392942E-11;
1,55394741769085E-11;
1,59418949503379E-11;
2,13887394639134E-11;
3,21771138769663E-11;
3,94801524923462E-11;
3,57632855685513E-11;
1,89469984660889E-11;
-6,21337831607852E-12;
-2,91135404551077E-11;
-4,00477250827734E-11;
-3,70729741500746E-11;
-2,63154421757826E-11;
-1,66310058813728E-11;
-1,1434588873467E-11;
-1,05088963910731E-11;
-9,59699986996872E-12;
-4,49932028220539E-12;
2,65404015274674E-12;
9,74642894471669E-12;
1,31412973677927E-11;
1,28160185946687E-11;
1,35159024652429E-11;
1,83663887812329E-11;
2,78589714636544E-11;
3,41886799607534E-11;
3,08034756369808E-11;
1,73382942329532E-11;
