6,61349468086927E-5;
0,000146830104486805;
0,00017411837134695;
0,000145755969526802;
8,89369855306267E-5;
3,88307910316685E-5;
1,44687938981359E-5;
9,92074464753654E-6;
5,46822621665189E-6;
-1,2516868957914E-5;
-4,01184890003604E-5;
-6,15123042867505E-5;
-6,52749702744981E-5;
-5,6056620543882E-5;
-5,08300349086891E-5;
-6,27081591526323E-5;
-8,6518379584478E-5;
-9,94099636573139E-5;
-7,74314506638722E-5;
-1,54826256051048E-5;
6,54253048753462E-5;
0,000130088452675327;
0,000151745250394828;
0,000128650948921703;
8,2688793138173E-5;
4,20768867574837E-5;
2,20429350950723E-5;
1,78230618276771E-5;
1,36622143542443E-5;
-1,29440258023323E-6;
-2,39048903703627E-5;
-4,15721548979571E-5;
-4,52328406687437E-5;
-3,85941337114839E-5;
-3,51054518395731E-5;
-4,51210500122168E-5;
-6,45284666405782E-5;
-7,52973876995934E-5;
-5,85940719035347E-5;
-1,04636385128646E-5;
5,2547892001088E-5;
0,000102833520664038;
0,00011948457797697;
0,000101198482456573;
6,50950458160794E-5;
3,3163278846993E-5;
1,72238199840761E-5;
1,35551590185974E-5;
9,94524384273649E-6;
-1,98440347796417E-6;
-1,97875161031106E-5;
-3,37531452662956E-5;
-3,69273086093256E-5;
-3,21769446859787E-5;
-2,98098548954435E-5;
-3,7723106496804E-5;
-5,27530139249443E-5;
-6,11675951259038E-5;
-4,86926621833772E-5;
-1,23927268232626E-5;
3,51603963043042E-5;
7,31166517828196E-5;
8,57687582868509E-5;
7,2203172202594E-5;
4,53043058586483E-5;
2,15275455447108E-5;
9,66856553817836E-6;
6,93021539164247E-6;
4,24139271448992E-6;
-4,5832332492173E-6;
-1,77158821168057E-5;
-2,80030905400385E-5;
-3,03585645449863E-5;
-2,69056767395896E-5;
-2,51740297654236E-5;
-3,08897401631943E-5;
-4,17292191253737E-5;
-4,77579555441949E-5;
-3,87266042002891E-5;
-1,25974148551887E-5;
2,15650990359361E-5;
4,88687365381477E-5;
5,81889380635462E-5;
4,89530883501887E-5;
3,03153737680176E-5;
1,38614723746171E-5;
5,72724945628079E-6;
3,92926588684545E-6;
2,1568872439636E-6;
-3,84930229914936E-6;
-1,28049783667658E-5;
-1,98006604661382E-5;
-2,13871203765911E-5;
-1,90346088446507E-5;
-1,78377033777007E-5;
-2,16213493108682E-5;
-2,87977643043478E-5;
-3,2754698473409E-5;
-2,67609813518652E-5;
-9,56103978058571E-6;
1,28470781190523E-5;
3,07747481572404E-5;
3,70968437218172E-5;
3,15373407268295E-5;
1,99977662114762E-5;
9,82084458085511E-6;
4,82718105979961E-6;
3,74296887341937E-6;
2,65991754289265E-6;
-1,00673334131318E-6;
-6,44521034873016E-6;
-1,06949691041269E-5;
-1,17270507327095E-5;
-1,04437358400144E-5;
-9,82706177320207E-6;
-1,20541412507493E-5;
-1,61751135192461E-5;
-1,84542876241751E-5;
-1,52039091008017E-5;
-5,84286852398325E-6;
6,28354587159822E-6;
1,5983370276118E-5;
1,95846068372826E-5;
1,70662233590254E-5;
1,15236534709052E-5;
6,64234046938719E-6;
4,24909590318137E-6;
3,68189602636588E-6;
3,0998141045114E-6;
1,35776273461572E-6;
-1,1392777002874E-6;
-3,10499770985286E-6;
-3,72917815403585E-6;
-3,42611921122737E-6;
-3,36630749512006E-6;
-4,3153665611306E-6;
-5,87063655819966E-6;
-6,75877237313622E-6;
-5,8945177892188E-6;
-3,2718282569058E-6;
3,16040047904651E-8;
2,66324695497289E-6;
3,89661323184081E-6;
3,92683045271087E-6;
3,45730275704212E-6;
3,0589848585736E-6;
2,86244316260611E-6;
2,72629440285552E-6;
2,56630929830016E-6;
2,45922932574029E-6;
2,46387378611927E-6;
2,4461973544143E-6;
2,1837215929283E-6;
1,67584126696798E-6;
1,28522911744213E-6;
1,43928028056369E-6;
2,07712055189487E-6;
2,39192199291471E-6;
1,27298894120769E-6;
-1,75735814771193E-6;
-5,86458550061892E-6;
-9,16758784059227E-6;
-9,91493688028621E-6;
-7,73101937476622E-6;
-3,9232856397596E-6;
-5,35894456612734E-7;
1,13905216352657E-6;
1,39695575814111E-6;
1,62481102884906E-6;
2,92117292283361E-6;
5,05448397171174E-6;
6,70344485281258E-6;
6,78359195622506E-6;
5,63989793948486E-6;
4,91304303169228E-6;
6,02338023280913E-6;
8,5233245097595E-6;
9,87596565850976E-6;
7,14683233389899E-6;
-5,41913606530184E-7;
-1,07685399798983E-5;
-1,89720791698151E-5;
-2,13503324930925E-5;
-1,7379561016937E-5;
-1,00297881678933E-5;
-3,50430986926489E-6;
-2,68183317728637E-7;
3,34403276504612E-7;
9,01550906344086E-7;
3,37153644928241E-6;
7,27344987389725E-6;
1,03111661237762E-5;
1,06937347666556E-5;
9,04981908123524E-6;
8,06615790154731E-6;
9,9743380966593E-6;
1,40100749347981E-5;
1,6224579440484E-5;
1,21976613200863E-5;
7,27196164595521E-7;
-1,44727968421127E-5;
-2,66637165348967E-5;
-3,03797598599873E-5;
-2,49782450680977E-5;
-1,47761264825555E-5;
-5,72283800986374E-6;
-1,23029892805184E-6;
-3,51353908530476E-7;
4,88015737769492E-7;
3,90129282654436E-6;
9,22442935950068E-6;
1,33784502703716E-5;
1,40063686514749E-5;
1,19646809055001E-5;
1,07769195828809E-5;
1,33220697414237E-5;
1,85823490637731E-5;
2,14839041292799E-5;
1,64253587772717E-5;
1,94857791893512E-6;
-1,72056513770983E-5;
-3,25730067846176E-5;
-3,73722875636897E-5;
-3,08681011525511E-5;
-1,84406790994704E-5;
-7,4146392325878E-6;
-1,94580171845471E-6;
-8,57670317954269E-7;
1,88684258593145E-7;
4,33443764849282E-6;
1,07638599885153E-5;
1,57871238786645E-5;
1,66069548393464E-5;
1,42576226452189E-5;
1,29121502390341E-5;
1,59503593947802E-5;
2,2157490854134E-5;
2,55909739841649E-5;
1,97402772287825E-5;
2,95214814421862E-6;
-1,92429585098234E-5;
-3,70583007141522E-5;
-4,27078975593497E-5;
-3,53870672431922E-5;
-2,12866033476649E-5;
-8,77593986204997E-6;
-2,57414243345757E-6;
-1,33060343867909E-6;
-1,29187337716376E-7;
4,56781649997452E-6;
1,18298381328386E-5;
1,75089890931843E-5;
1,84793347999745E-5;
1,59084407314688E-5;
1,44526062375402E-5;
1,78625091807863E-5;
2,47765292145266E-5;
2,86105186944859E-5;
2,21856998616948E-5;
3,70757013668463E-6;
-2,07136075952374E-5;
-4,03254328214534E-5;
-4,66117963623461E-5;
-3,87194670382792E-5;
-2,34266225521638E-5;
-9,85588946298928E-6;
-3,13018314875618E-6;
-1,77349748868504E-6;
-4,57963931968597E-7;
4,63511553932598E-6;
1,2492804135182E-5;
1,86436826587774E-5;
1,97313775363168E-5;
1,7017609944769E-5;
1,54958349267672E-5;
1,91733829382851E-5;
2,65858163720284E-5;
3,07068560650424E-5;
2,39008860237036E-5;
4,27938175044402E-6;
-2,1651567856677E-5;
-4,24865223556095E-5;
-4,92198117319558E-5;
-4,09678376534336E-5;
-2,49009289059598E-5;
-1,06399063430451E-5;
-3,57222638017443E-6;
-2,1390167321789E-6;
-7,45121751638096E-7;
4,60834734435597E-6;
1,28544583822101E-5;
1,93155618476832E-5;
2,04904414569422E-5;
1,77008933933758E-5;
1,61503394234905E-5;
2,00034339141074E-5;
2,7731266573645E-5;
3,20387956955489E-5;
2,50172306957264E-5;
4,72505611128956E-6;
-2,20954767888162E-5;
-4,36570401108011E-5;
-5,06729423267253E-5;
-4,22450094810697E-5;
-2,5766717439299E-5;
-1,11364216906325E-5;
-3,88562995667701E-6;
-2,40935683868867E-6;
-9,69906736283663E-7;
4,52481016613514E-6;
1,29783797509702E-5;
1,96081132862965E-5;
2,08417372104507E-5;
1,80317653476739E-5;
1,6482085454985E-5;
2,04292272995004E-5;
2,83128134520553E-5;
3,27180803119836E-5;
2,56208515767252E-5;
5,06184014712894E-6;
-2,21175244729831E-5;
-4,39805357601121E-5;
-5,11382293220108E-5;
-4,26914206858122E-5;
-2,61121264656085E-5;
-1,13875430995127E-5;
-4,09024018135345E-6;
-2,60048816670035E-6;
-1,14452491842895E-6;
4,38875881986617E-6;
1,28943932191173E-5;
1,95708804401739E-5;
2,08377204766129E-5;
1,80531568523316E-5;
1,65284333829904E-5;
2,04993520809213E-5;
2,84021177408471E-5;
3,28287615912724E-5;
2,57735567733289E-5;
5,28930091783107E-6;
-2,17994218457962E-5;
-4,36033442457219E-5;
-5,07824456716511E-5;
-4,24480460087918E-5;
-2,60286323005667E-5;
-1,14410204804826E-5;
-4,21199786602363E-6;
-2,73351992377209E-6;
-1,28538306379549E-6;
4,20015064961476E-6;
1,26271746096441E-5;
1,92478398572095E-5;
2,0526161220091E-5;
1,78051502334225E-5;
1,63253566530583E-5;
2,02610524584721E-5;
2,80685257581031E-5;
3,24524233313376E-5;
2,55373229685652E-5;
5,41304625927161E-6;
-2,12094802494584E-5;
-4,26525141103686E-5;
-4,97509630140398E-5;
-4,16362873480575E-5;
-2,55919915236309E-5;
-1,1332278078605E-5;
-4,26607910060081E-6;
-2,81893186369335E-6;
-1,39842359579923E-6;
3,96819811712772E-6;
1,22086796911293E-5;
1,86887041513421E-5;
1,99603479036365E-5;
1,73340900289917E-5;
1,59154757725639E-5;
1,9767209839918E-5;
2,73850127566349E-5;
3,16731244718224E-5;
2,4978260204222E-5;
5,44771836192828E-6;
-2,04005473964019E-5;
-4,12346270345328E-5;
-4,81674013297533E-5;
-4,03583948463977E-5;
-2,48633990855316E-5;
-1,1086262379706E-5;
-4,25939601318544E-6;
-2,85971196730223E-6;
-1,48286116252357E-6;
3,70707781075687E-6;
1,1673359516224E-5;
1,79436865364236E-5;
1,9193409920015E-5;
1,66865050636235E-5;
1,53416321820509E-5;
1,90696241617222E-5;
2,6421231312615E-5;
3,05702270267412E-5;
2,41592125515856E-5;
5,40936992054848E-6;
-1,94178484949671E-5;
-3,94438103063165E-5;
-4,614170732651E-5;
-3,87054899050116E-5;
-2,38973864792098E-5;
-1,07252127271084E-5;
-4,19826236866667E-6;
-2,85892030003817E-6;
-1,53860774380474E-6;
3,42869399658155E-6;
1,10511385113426E-5;
1,70567036669101E-5;
1,82717375722763E-5;
1,59027247913665E-5;
1,46407185797166E-5;
1,82131085842742E-5;
2,52379079248137E-5;
2,92130916567446E-5;
2,31346851151021E-5;
5,31052801209666E-6;
-1,83038210968637E-5;
-3,73664082718279E-5;
-4,3774556177548E-5;
-3,676159734758E-5;
-2,27454147969762E-5;
-1,02718261120295E-5;
-4,09118749053618E-6;
-2,82216534208826E-6;
-1,56845829207453E-6;
3,14081715444644E-6;
1,03658995014936E-5;
1,60641749985273E-5;
1,72340486387773E-5;
1,50161761897523E-5;
1,38432101147272E-5;
1,72352910359486E-5;
2,38869379490843E-5;
2,76614209158049E-5;
2,19513166754823E-5;
5,16067096122759E-6;
-1,70977023532736E-5;
-3,50805961737199E-5;
-4,11568453142047E-5;
-3,4602876850849E-5;
-2,14547951110521E-5;
-9,74789772091776E-6;
-3,94733341652625E-6;
-2,75594564989172E-6;
-1,57631240530046E-6;
2,84899754955365E-6;
9,63755617633893E-6;
1,49972291906844E-5;
1,61136466080627E-5;
1,40556387055789E-5;
1,29754227077258E-5;
1,61689335808744E-5;
2,24137956283378E-5;
2,59677079074152E-5;
2,06502417537925E-5;
4,96834903830626E-6;
-1,58337265563233E-5;
-3,26548321357602E-5;
-3,83682512266719E-5;
-3,22961121274073E-5;
-2,0067012071612E-5;
-9,17252142175456E-6;
-3,77468051059677E-6;
-2,6658556819123E-6;
-1,56543526568356E-6;
2,55830473710131E-6;
8,88381468611732E-6;
1,3883456515418E-5;
1,49401050838385E-5;
1,30468164879349E-5;
1,20609822165871E-5;
1,50433512594966E-5;
2,08589572577718E-5;
2,41786249755908E-5;
1,92682984365368E-5;
4,74205069038341E-6;
-1,45406748666478E-5;
-3,01477509177038E-5;
-3,5477271690282E-5;
-2,98987051356508E-5;
-1,86175781596758E-5;
-8,56182139653767E-6;
-3,57973298783189E-6;
-2,55634259151041E-6;
-1,53825950242075E-6;
2,27352453787353E-6;
8,12040967139073E-6;
1,2747171525268E-5;
1,37394861017899E-5;
1,20124522122557E-5;
1,1120855191391E-5;
1,38844472649433E-5;
1,92579884286626E-5;
2,23351149238555E-5;
1,78379743131353E-5;
4,48983119476636E-6;
-1,32426299671676E-5;
-2,76092287729962E-5;
-3,25424002333794E-5;
-2,74597413802363E-5;
-1,71368819521447E-5;
-7,9296082509903E-6;
-3,36809140873736E-6;
-2,43127391433263E-6;
-1,49694628800074E-6;
1,99867091983027E-6;
7,36073295919076E-6;
1,16091182207451E-5;
1,25340527417479E-5;
1,09719985529742E-5;
1,01730052305649E-5;
1,27144255106671E-5;
1,76413576729843E-5;
2,04722691039709E-5;
1,63871984528549E-5;
4,21883033290292E-6;
-1,19598290792605E-5;
-2,5081512662313E-5;
-2,96133199412359E-5;
-2,50210330119232E-5;
-1,56509652394656E-5;
-7,28793470496747E-6;
-3,14487904091928E-6;
-2,29430989968539E-6;
-1,44371527838457E-6;
1,73674940532487E-6;
6,6157330126584E-6;
1,04864882069282E-5;
1,13423197044863E-5;
9,9416484462143E-6;
9,23240677202615E-6;
1,15518643059427E-5;
1,60346533973577E-5;
1,86196148127856E-5;
1,49395314294298E-5;
3,93519607098664E-6;
-1,07091035668983E-5;
-2,25999397208194E-5;
-2,67316874700899E-5;
-2,2617760763619E-5;
-1,41818991808982E-5;
-6,64722013911304E-6;
-2,91474786479132E-6;
-2,14888201165907E-6;
-1,38078395700009E-6;
1,48990890145691E-6;
5,89419156525512E-6;
9,39329834167177E-6;
1,01794571340031E-5;
8,93469503164683E-6;
8,31139904452797E-6;
1,04121416940366E-5;
1,4459098665557E-5;
1,68016981779702E-5;
1,35146520015663E-5;
3,64426297253153E-6;
-9,50406781753346E-6;
-2,01934321626606E-5;
-2,39317187902101E-5;
-2,02789000858025E-5;
-1,27479772627349E-5;
-6,01624758283514E-6;
-2,68176386894242E-6;
-1,99805392137904E-6;
-1,3102122913912E-6;
1,25967762107676E-6;
5,2030833601695E-6;
8,34083015334248E-6;
9,0577355050214E-6;
7,96193733908994E-6;
7,42005024155683E-6;
9,30783772416778E-6;
1,29320732664355E-5;
1,50386472671298E-5;
1,2128803054015E-5;
3,3507153566234E-6;
-8,35535594688099E-6;
-1,78850263460213E-5;
-2,12408148245498E-5;
-1,80277535743637E-5;
-1,13639924061475E-5;
-5,40222339591791E-6;
-2,44937190720205E-6;
-1,84446583290245E-6;
-1,2338351626436E-6;
1,0470968532112E-6;
4,54781459187723E-6;
7,33795927122327E-6;
7,98686524234592E-6;
7,03196197305348E-6;
6,56641120044362E-6;
8,2490363933859E-6;
1,14675031489496E-5;
1,33466128170378E-5;
1,07951251902776E-5;
3,05862210377782E-6;
-7,27095087128298E-6;
-1,56925084978587E-5;
-1,8680286025344E-5;
-1,58825283022078E-5;
-1,0041601099527E-5;
-4,81094258147738E-6;
-2,22046069123068E-6;
-1,69039143036487E-6;
-1,15329550648861E-6;
8,5276133803945E-7;
3,93237479588026E-6;
6,3913854502912E-6;
6,97423735170977E-6;
6,15135140437669E-6;
5,75669859833208E-6;
7,24355059624426E-6;
1,0076184274027E-5;
1,17381467589311E-5;
9,52393569376151E-6;
2,77144826098308E-6;
-6,25653595791511E-6;
-1,36290451783338E-5;
-1,62660617680663E-5;
-1,3856941978017E-5;
-8,78969734108782E-6;
-4,24696665315149E-6;
-1,9974463368073E-6;
-1,53778568253372E-6;
-1,0700767801436E-6;
6,76857043858794E-7;
3,35948577744108E-6;
5,5058714950792E-6;
6,02517406386464E-6;
5,32488263097646E-6;
4,99547301949464E-6;
6,29715590795698E-6;
8,76611217344206E-6;
1,02225828855764E-5;
8,32302095470098E-6;
2,49207271303963E-6;
-5,31581356273377E-6;
-1,17037608617307E-5;
-1,40093620993039E-5;
-1,19607676905756E-5;
-7,61474373820559E-6;
-3,71376886338271E-6;
-1,78231794528787E-6;
-1,38832245559402E-6;
-9,85516367275809E-7;
5,19217829662447E-7;
2,8307592937852E-6;
4,6844806903397E-6;
5,1431807393661E-6;
4,55575470600801E-6;
4,28584214644098E-6;
5,41383486292439E-6;
7,542828505127E-6;
8,80642345680267E-6;
7,19792162585314E-6;
2,22284871931882E-6;
-4,45076878650948E-6;
-9,92227077304687E-6;
-1,19172911306963E-5;
-1,02003294423507E-5;
-6,52106930561967E-6;
-3,21384928664868E-6;
-1,5766723033047E-6;
-1,24340479152252E-6;
-9,00800042207729E-7;
3,793982630555E-7;
2,34686969854263E-6;
3,92881999776033E-6;
4,33020175574498E-6;
3,84580639694516E-6;
3,62966490038011E-6;
4,59602100070503E-6;
6,40973720601503E-6;
7,49371565842235E-6;
6,1522350108795E-6;
1,96565245949345E-6;
-3,66191605782749E-6;
-8,28715332606177E-6;
-9,99340184625039E-6;
-8,57896602058421E-6;
-5,5111443069635E-6;
-2,74885307211159E-6;
-1,38174211954279E-6;
-1,10417313659682E-6;
-8,16958249868067E-7;
2,56732313550766E-7;
1,90770553435511E-6;
3,23926333871092E-6;
3,58685721992871E-6;
3,1957215862386E-6;
3,02772682961008E-6;
3,84481892310608E-6;
5,36841047449029E-6;
6,28638875347749E-6;
5,1878803360211E-6;
1,72194360814882E-6;
-2,94853456448483E-6;
-6,79841825205831E-6;
-8,23821777565715E-6;
-7,09746036513168E-6;
-4,5858405052137E-6;
-2,31967221661871E-6;
-1,1984302050935E-6;
-9,7153177302268E-7;
-7,3486951378768E-7;
1,5038769590881E-7;
1,51249814152403E-6;
2,61514984143015E-6;
2,91264652413558E-6;
2,60519644912816E-6;
2,47990766962272E-6;
3,16020411627818E-6;
4,41886249905045E-6;
5,18457425925508E-6;
4,30532842046863E-6;
1,49279433880278E-6;
-2,30888056812575E-6;
-5,45392025911575E-6;
-6,64972270165462E-6;
-5,7544489505585E-6;
-3,74467970240506E-6;
-1,92656515504615E-6;
-1,02735858400681E-6;
-8,46173991307937E-7;
-6,55279658931146E-7;
5,9398630713157E-8;
1,15994573783448E-6;
2,05495613391095E-6;
2,30613667095421E-6;
2,07311704614221E-6;
1,98532270945106E-6;
2,54120055681847E-6;
3,5597964534045E-6;
4,18688027893433E-6;
3,50383258489164E-6;
1,27893886652674E-6;
-1,74039095830679E-6;
-4,2497528071773E-6;
-5,22380743882465E-6;
-4,54679198764476E-6;
-2,98606368337868E-6;
-1,5692478097021E-6;
-8,68894040253599E-7;
-7,28603905354085E-7;
-5,78803392487645E-7;
-1,72943798349863E-8;
8,48309353128774E-7;
1,55646578223337E-6;
1,76513866134849E-6;
1,59769510694736E-6;
1,54246574221268E-6;
1,98604978371127E-6;
2,78883503002127E-6;
3,29067111312791E-6;
2,78163114846392E-6;
1,08080935985258E-6;
-1,23985202948846E-6;
-3,180590022933E-6;
-3,95467101877818E-6;
-3,46991097645514E-6;
-2,30747521982829E-6;
-1,24698457662461E-6;
-7,23189132785552E-7;
-6,19158088029765E-7;
-5,05938353419276E-7;
-8,08109067612409E-8;
5,75525309153793E-7;
1,11691216634859E-6;
1,2868564155415E-6;
1,17660789944112E-6;
1,14932302685008E-6;
1,49236602494121E-6;
2,10273010232604E-6;
2,49228950306445E-6;
2,13613752116548E-6;
8,98575640796449E-7;
-8,03562705828184E-7;
-2,23999767844445E-6;
-2,83518062862642E-6;
-2,51808071396617E-6;
-1,70566271209093E-6;
-9,58678220678573E-7;
-5,90207950020796E-7;
-5,18022382588276E-7;
-4,37071961291341E-7;
-1,32298763059224E-7;
3,39281901852782E-7;
7,33110876353591E-7;
8,68036057220368E-7;
8,07123363874262E-7;
8,03493154643621E-7;
1,05726433043912E-6;
1,49754617111486E-6;
1,78728582897265E-6;
1,56410226631501E-6;
7,32182757544852E-7;
-4,27460837109541E-7;
-1,42070808683638E-6;
-1,85718982219574E-6;
-1,68470554175485E-6;
-1,17680248577507E-6;
-7,02926849278634E-7;
-4,69753921683249E-7;
-4,25252663545087E-7;
-3,7249325251212E-7;
-1,72916693968593E-7;
1,37096920299547E-7;
4,01576288863509E-7;
5,05082314913478E-7;
4,86200281501128E-7;
5,0228290843373E-7;
6,7749592276275E-7;
9,68834326946087E-7;
1,17060324109322E-6;
1,06177291728653E-6;
5,81385015491222E-7;
-1,07251842950222E-7;
-7,14866498872659E-7;
-1,01182651444855E-6;
-9,62551090527839E-7;
-7,16651453471188E-7;
-4,78105762267952E-7;
-3,61499473425747E-7;
-3,40793023769828E-7;
-3,12396217343354E-7;
-2,03804725275466E-7;
-3,36140546396127E-8;
1,18623440966022E-7;
1,94171852678108E-7;
2,10590305201404E-7;
2,42789530809622E-7;
3,49536883947891E-7;
5,11773065052014E-7;
6,36748565704814E-7;
6,25019659321198E-7;
4,45776060494162E-7;
1,6149005782117E-7;
-1,14241038996699E-7;
-2,89736450394944E-7;
-3,43952783114909E-7;
-3,20670798194883E-7;
-2,82416963995586E-7;
-2,6500357530114E-7;
-2,64490889135806E-7;
-2,56899313694518E-7;
-2,26078511984868E-7;
-1,7548449695256E-7;
-1,19545758824803E-7;
-6,86575247436428E-8;
-2,30865576511973E-8;
2,19813787171641E-8;
6,96969525393764E-8;
1,21298807813056E-7;
1,7993835469098E-7;
2,4945950815698E-7;
3,24817962274899E-7;
3,83235074729616E-7;
3,89599235603189E-7;
3,18697028441244E-7;
1,78998340139918E-7;
1,58642201119036E-8;
-1,13946036899289E-7;
-1,79746583558387E-7;
-1,96113315170873E-7;
-2,06043236510658E-7;
-2,40803742943446E-7;
-2,91146299934215E-7;
-3,16769286744976E-7;
-2,87424333130271E-7;
-2,1827122847956E-7;
-1,6323769636242E-7;
-1,65804444390641E-7;
-2,07782641647417E-7;
-2,05769796655027E-7;
-6,9450618888027E-8;
2,17866071857471E-7;
5,62422081480321E-7;
8,0511950427237E-7;
8,23180959455082E-7;
6,14309247604242E-7;
2,97755299726443E-7;
2,92966790414684E-8;
-1,05135964138276E-7;
-1,35362147883257E-7;
-1,59810152631859E-7;
-2,49000703098411E-7;
-3,83193103698685E-7;
-4,76857359960457E-7;
-4,6613365063075E-7;
-3,78399936531799E-7;
-3,15977529744225E-7;
-3,6077594501199E-7;
-4,80702790207614E-7;
-5,26366454484927E-7;
-3,36311881519226E-7;
1,24192853258278E-7;
7,03395943870817E-7;
1,14069637226393E-6;
1,23333997563221E-6;
9,69945804038168E-7;
5,29811906838188E-7;
1,49332951708329E-7;
-4,05305210723535E-8;
-8,18889812431363E-8;
-1,18126833084705E-7;
-2,51618841542235E-7;
-4,54147083918357E-7;
-6,03547066429052E-7;
-6,08723058853447E-7;
-5,06862502180677E-7;
-4,39311203891773E-7;
-5,18987471655124E-7;
-7,02646070908098E-7;
-7,87804482635578E-7;
-5,55725456851704E-7;
4,30127082018554E-8;
8,10358905172306E-7;
1,40450584094603E-6;
1,55860640817067E-6;
1,25373303893908E-6;
7,1677876527408E-7;
2,48184530122307E-7;
1,47430039478136E-8;
-3,53004520502552E-8;
-8,08746993398812E-8;
-2,49547373926081E-7;
-5,06429322059229E-7;
-7,00453669303324E-7;
-7,19017178486502E-7;
-6,06956307308156E-7;
-5,36237537878395E-7;
-6,44123700552578E-7;
-8,78685041286264E-7;
-9,95910924543376E-7;
-7,32212604377971E-7;
-2,65035584415054E-8;
8,87331625329409E-7;
1,60443959548759E-6;
1,8081046334102E-6;
1,47325764985115E-6;
8,6327651808499E-7;
3,27849098002342E-7;
6,13786421403421E-8;
4,82463311712288E-9;
-4,78950799730882E-8;
-2,43602839590628E-7;
-5,42343584761279E-7;
-7,71038783626221E-7;
-8,00686192499545E-7;
-6,81850787107132E-7;
-6,09644585895475E-7;
-7,39748390875828E-7;
-1,0137308363751E-6;
-1,1563325525694E-6;
-8,70174376105529E-7;
-8,5210915101985E-8;
9,38116958637042E-7;
1,74802975165418E-6;
1,99057226142835E-6;
1,63580093849825E-6;
9,73753911402642E-7;
3,90269285697354E-7;
1,00078341536771E-7;
3,89261285137002E-8;
-1,90025458623941E-8;
-2,34530659829708E-7;
-5,64057890852828E-7;
-8,18583712396749E-7;
-8,5721888745122E-7;
-7,34569341913257E-7;
-6,62298545534015E-7;
-8,09271998757016E-7;
-1,11248281779377E-6;
-1,27448209960146E-6;
-9,73848608508454E-7;
-1,33973153854427E-7;
9,66289436668698E-7;
1,84240403501455E-6;
2,11429714209384E-6;
1,74828282716157E-6;
1,05245661129479E-6;
4,37320984404028E-7;
1,31538739017483E-7;
6,74579169660097E-8;
6,02210869709114E-9;
-2,23001365573883E-7;
-5,73600681485563E-7;
-8,46174787497862E-7;
-8,9190303061723E-7;
-7,67961949305769E-7;
-6,96808739501326E-7;
-8,55924748038654E-7;
-1,17939841976594E-6;
-1,35549697133296E-6;
-1,0472725930672E-6;
-1,73655914052808E-7;
9,7516808640579E-7;
1,89424382825722E-6;
2,18706682389361E-6;
1,81722090657079E-6;
1,10339831403114E-6;
4,70794725309778E-7;
1,56449922463368E-7;
9,0877168789145E-8;
2,74057096033801E-8;
-2,09617887101071E-7;
-5,72842924074346E-7;
-8,56682448905528E-7;
-9,07806131835657E-7;
-7,84697019990408E-7;
-7,15628283542671E-7;
-8,82741228765048E-7;
-1,21866781371985E-6;
-1,40421675666309E-6;
-1,0942612712887E-6;
-2,05107090591436E-7;
9,67816268838338E-7;
1,90975995676418E-6;
2,21613845171972E-6;
1,84870051123765E-6;
1,13034014786867E-6;
4,92383242798209E-7;
1,75481287433285E-7;
1,09641953549412E-7;
4,53974762283622E-8;
-1,94908019425168E-7;
-5,63503274371638E-7;
-8,52760105648676E-7;
-9,07772381186319E-7;
-7,87250941633516E-7;
-7,21034605098286E-7;
-8,92551444041429E-7;
-1,23420012941779E-6;
-1,42515454692331E-6;
-1,11839024160778E-6;
-2,29158166930187E-7;
9,47034901949345E-7;
1,89467808544098E-6;
2,20822366970437E-6;
1,84836081572919E-6;
1,13677487855119E-6;
5,03677756962273E-7;
1,89276877240552E-7;
1,24195468483623E-7;
6,02484162787241E-8;
-1,79342332516218E-7;
-5,4715153054481E-7;
-8,36839221825766E-7;
-8,94410937357028E-7;
-7,77901787755582E-7;
-7,1513073668189E-7;
-8,87967060960916E-7;
-1,22961083522875E-6;
-1,42249209863944E-6;
-1,12297750858864E-6;
-2,46609780528399E-7;
9,15360331218667E-7;
1,8542343604102E-6;
2,16947104668265E-6;
1,82137765150019E-6;
1,12592683267678E-6;
5,06159211759362E-7;
1,98454032355343E-7;
1,3497805686232E-7;
7,2217072604557E-8;
-1,63319116256655E-7;
-5,25192709427576E-7;
-8,11128022815509E-7;
-8,70101351378959E-7;
-7,58726459506321E-7;
-6,99838890417598E-7;
-8,71386790806025E-7;
-1,20821701591139E-6;
-1,40007284499896E-6;
-1,11109210713846E-6;
-2,58227311437074E-7;
8,75077629852335E-7;
1,79317974352149E-6;
2,10548018261971E-6;
1,7724775337431E-6;
1,10074585450534E-6;
5,01194275493825E-7;
2,03594534551951E-7;
1,42407341584286E-7;
8,1559225863998E-8;
-1,47184250284642E-7;
-4,98892002113458E-7;
-7,77617254524615E-7;
-8,36992638538734E-7;
-7,31610094883524E-7;
-6,76909746961963E-7;
-8,4499125851055E-7;
-1,17304005414134E-6;
-1,36140070378452E-6;
-1,08553535608551E-6;
-2,64735573893927E-7;
8,28221800635583E-7;
1,71578913664668E-6;
2,02129943846134E-6;
1,70592769665347E-6;
1,06390708080758E-6;
4,90036749030848E-7;
2,0524658754884E-7;
1,46886713712123E-7;
8,85335849625505E-8;
-1,31223077782309E-7;
-4,69369639032937E-7;
-7,38085877449042E-7;
-7,97012419338366E-7;
-6,98244710506256E-7;
-6,47912437968599E-7;
-8,1074831209896E-7;
-1,12680909159976E-6;
-1,30964226348398E-6;
-1,04885620574497E-6;
-2,66820559609736E-7;
7,76590505919761E-7;
1,62587813302981E-6;
1,92144978201319E-6;
1,62556207440242E-6;
1,01782259297143E-6;
4,73825993708087E-7;
2,03920518958375E-7;
1,48794209697226E-7;
9,33851824647325E-8;
-1,15672392054613E-7;
-4,37604649323377E-7;
-6,94111402514672E-7;
-7,51873420664913E-7;
-6,60134999249195E-7;
-6,1425484692402E-7;
-7,70420404594414E-7;
-1,07197105336497E-6;
-1,24764301499317E-6;
-1,00334702605735E-6;
-2,65118281850825E-7;
7,21754311263316E-7;
1,52681749136916E-6;
1,80994074920805E-6;
1,53478561304101E-6;
9,64644809090636E-7;
4,5359360198188E-7;
2,00089079571794E-7;
1,48489279221254E-7;
9,63562852068656E-8;
-1,0072603721516E-7;
-4,04453058220267E-7;
-6,47073027816159E-7;
-7,03082498557364E-7;
-6,18615077635157E-7;
-5,77182216867855E-7;
-7,25572139092096E-7;
-1,01069958785416E-6;
-1,17793363063656E-6;
-9,51061884362763E-7;
-2,60222247181725E-7;
6,65074731331281E-7;
1,42156344914867E-6;
1,6902973167362E-6;
1,43660393291734E-6;
9,06280317617526E-7;
4,30258433482891E-7;
1,94183356634978E-7;
1,46301810859061E-7;
9,76766060663132E-8;
-8,65317825206184E-8;
-3,7064736744901E-7;
-5,98173535691381E-7;
-6,51953708016045E-7;
-5,74843987665337E-7;
-5,37784612224727E-7;
-6,77577607153321E-7;
-9,44907378266133E-7;
-1,10274361997862E-6;
-8,93815118152257E-7;
-2,52676599705228E-7;
6,07712889687844E-7;
1,3126757310813E-6;
1,56558861987862E-6;
1,33363945727465E-6;
8,4440046926833E-7;
4,04642160405081E-7;
1,86601004461117E-7;
1,4254151439555E-7;
9,75677657799583E-8;
-7,3203413345137E-8;
-3,36811486085964E-7;
-5,48443432073575E-7;
-5,99622235342033E-7;
-5,29829452832262E-7;
-4,97010175406036E-7;
-6,27636090732892E-7;
-8,76265780240326E-7;
-1,02402793884898E-6;
-8,33206013804237E-7;
-2,4297652599535E-7;
5,50651052134503E-7;
1,20235131771229E-6;
1,43845452095462E-6;
1,22815606050231E-6;
7,80459023454982E-7;
3,77460813726997E-7;
1,77697590938816E-7;
1,37491838392645E-7;
9,62328408716598E-8;
-6,08183087283811E-8;
-3,03461960150663E-7;
-4,98756696619746E-7;
-5,47052166126874E-7;
-4,84431031652637E-7;
-4,55671719232025E-7;
-5,76777722532505E-7;
-8,06213439405657E-7;
-9,43467785956152E-7;
-7,70620891478492E-7;
-2,31575205006291E-7;
4,9470071773686E-7;
1,09244292748913E-6;
1,31114047219631E-6;
1,12208751501979E-6;
7,15701723027702E-7;
3,49345652418229E-7;
1,67793036070097E-7;
1,31406847860483E-7;
9,38634297415739E-8;
-4,94299607522538E-8;
-2,71024311355758E-7;
-4,49841744737887E-7;
-4,95054252744884E-7;
-4,39372392804347E-7;
-4,14459710495693E-7;
-5,25880251850872E-7;
-7,35976696276676E-7;
-8,625052769416E-7;
-7,07253720510726E-7;
-2,18874965433338E-7;
4,40527410216204E-7;
9,84500509093234E-7;
1,18552792309295E-6;
1,01705926144248E-6;
6,51185229774806E-7;
3,20834703708564E-7;
1,57172340837647E-7;
1,24523641377744E-7;
9,06425261420894E-8;
-3,90631470295996E-8;
-2,39841937633146E-7;
-4,02297138849772E-7;
-4,44300520299128E-7;
-3,95256787658164E-7;
-3,73949630360596E-7;
-4,75683980808126E-7;
-6,66590763261839E-7;
-7,82354863805556E-7;
-6,44118178510254E-7;
-2,05237581274494E-7;
3,88652804955062E-7;
8,79784462264899E-7;
1,06316780432353E-6;
9,14420544820166E-7;
5,87794660654785E-7;
2,92389408572227E-7;
1,46084941924136E-7;
1,17049226017789E-7;
8,67303585526895E-8;
-2,97234412589256E-8;
-2,10179367506692E-7;
-3,56602718374403E-7;
-3,95329636646038E-7;
-3,52572911329575E-7;
-3,34614368348951E-7;
-4,26791689629244E-7;
-5,98904547813354E-7;
-7,04021466963011E-7;
-5,82062197319528E-7;
-1,90983441239016E-7;
3,39484601988065E-7;
7,79307381965296E-7;
9,45307958122498E-7;
8,15265004710001E-7;
5,26250667774278E-7;
2,64393987632026E-7;
1,34753775804183E-7;
1,09167955207574E-7;
8,22743583645307E-8;
-2,13968614392211E-8;
-1,82235703863401E-7;
-3,13131952832803E-7;
-3,48570714917637E-7;
-3,11711602550194E-7;
-2,96830550686148E-7;
-3,79693951348458E-7;
-5,33611757390309E-7;
-6,28324311220364E-7;
-5,21781576432827E-7;
-1,76390838525624E-7;
2,93315161586521E-7;
6,83846920919397E-7;
8,32929010249262E-7;
7,20458186195702E-7;
4,67136808943106E-7;
2,37168187477011E-7;
1,23361891101043E-7;
1,01044837507661E-7;
7,74142907072999E-8;
-1,4056969917974E-8;
-1,5614985309392E-7;
-2,72164001972859E-7;
-3,04349527228857E-7;
-2,72969385953424E-7;
-2,60892090273258E-7;
-3,34777426830066E-7;
-4,71257577091055E-7;
-5,55912753909826E-7;
-4,63837354573462E-7;
-1,61700540792381E-7;
2,5034883323273E-7;
5,93985638288506E-7;
7,26773047267791E-7;
6,30662557543833E-7;
4,10903035337868E-7;
2,1096829603972E-7;
1,12071981958403E-7;
9,28203589089489E-8;
7,2268760835284E-8;
-7,6640742130873E-9;
-1,32012302028559E-7;
-2,33893907810445E-7;
-2,62896694704171E-7;
-2,36567882799273E-7;
-2,27021047830549E-7;
-2,92331210146511E-7;
-4,12254752541999E-7;
-4,87285633204413E-7;
-4,08669333756236E-7;
-1,47119340771379E-7;
2,10705409542463E-7;
5,10125805441512E-7;
6,27367445617109E-7;
5,46358641102414E-7;
3,57888324773718E-7;
1,85997637261635E-7;
1,01018823571227E-7;
8,46173161513122E-8;
6,69444701391041E-8;
-2,17071277393227E-9;
-1,09864879853374E-7;
-1,98446293823683E-7;
-2,2436995376173E-7;
-2,02654350271858E-7;
-1,95370264347567E-7;
-2,52565340122632E-7;
-3,56904972074875E-7;
-4,22805878296076E-7;
-3,5660562763535E-7;
-1,32822103808891E-7;
1,74434383694577E-7;
4,32514723263818E-7;
5,35057961578606E-7;
4,67872959712445E-7;
3,08329029577089E-7;
1,62408153821421E-7;
9,03142326774916E-8;
7,65398994067635E-8;
6,15365272884689E-8;
2,47932413699163E-9;
-8,97152571536709E-8;
-1,65882776808068E-7;
-1,88856746235171E-7;
-1,71319869843217E-7;
-1,66037813851425E-7;
-2,15616656436247E-7;
-3,05408101268453E-7;
-3,62719956573317E-7;
-3,07877106899712E-7;
-1,18951911818459E-7;
1,41526773653056E-7;
3,61269625033825E-7;
4,50027918150788E-7;
3,95394037457242E-7;
2,62376119736705E-7;
1,40306780430089E-7;
8,00475001483008E-8;
6,86747363516563E-8;
5,6125851078918E-8;
6,34576014381044E-9;
-7,15392873282861E-8;
-1,36212270753017E-7;
-1,56383687520429E-7;
-1,42597941928275E-7;
-1,39070947861772E-7;
-1,81559174866337E-7;
-2,57873919769695E-7;
-3,0717200201954E-7;
-2,62636527130238E-7;
-1,05627260374237E-7;
1,11923800301394E-7;
2,96393197974286E-7;
3,72327433113697E-7;
3,28989591453014E-7;
2,20101702833653E-7;
1,19767737804334E-7;
7,02885701028164E-8;
6,10931042255421E-8;
5,07831851614356E-8;
9,49110068849221E-9;
-5,52862020764749E-8;
-1,09398527287271E-7;
-1,26929932935973E-7;
-1,16483136353316E-7;
-1,14473987992063E-7;
-1,50412446554727E-7;
-2,14344844309705E-7;
-2,56220811261723E-7;
-2,20956799234368E-7;
-9,29381067695468E-8;
8,55251906458804E-8;
2,37795146045986E-7;
3,01892073571353E-7;
2,68631567030211E-7;
1,81517316320814E-7;
1,00828487348252E-7;
6,10890890013057E-8;
5,38522660727957E-8;
4,55676189299989E-8;
1,19801056804249E-8;
-4,08844366991629E-8;
-8,53698037586213E-8;
-1,00435135384827E-7;
-9,29314990965295E-8;
-9,22187524641669E-8;
-1,22151941930554E-7;
-1,74790812536674E-7;
-2,09845650577647E-7;
-1,82853376310183E-7;
-8,09562478606285E-8;
6,22025578494635E-8;
1,85307479605958E-7;
2,38558634769231E-7;
2,14208133439303E-7;
1,4657592636228E-7;
8,34990343030097E-8;
5,24871416182052E-8;
4,69941811406634E-8;
4,05263826982963E-8;
1,38778949615104E-8;
-2,82450602816737E-8;
-6,40261772060182E-8;
-7,68036559529546E-8;
-7,18669044593805E-8;
-7,22481018530816E-8;
-9,67165874329326E-8;
-1,39135924467808E-7;
-1,67969759473378E-7;
-1,48287309986155E-7;
-6,97305057331046E-8;
4,17981505404515E-8;
1,38699128028318E-7;
1,82091653257349E-7;
1,65543395655263E-7;
1,151884716192E-7;
6,77616258268484E-8;
4,4505552262691E-8;
4,05541696907699E-8;
3,57027849508745E-8;
1,52489489342063E-8;
-1,72705087292078E-8;
-4,52403665877961E-8;
-5,5913142429353E-8;
-5,31925216531391E-8;
-5,4477561184633E-8;
-7,4013162715036E-8;
-1,0725806853752E-7;
-1,30460458312059E-7;
-1,17177721214419E-7;
-5,9294228865643E-8;
2,41387197545149E-8;
9,76924133379158E-8;
1,32189901164874E-7;
1,22400122986855E-7;
8,72313996417159E-8;
5,35863902078834E-8;
3,71558356055076E-8;
3,45511993688565E-8;
3,11236979562439E-8;
1,61554715652442E-8;
-7,8505257697394E-9;
-2,88721296006465E-8;
-3,76220823813981E-8;
-3,67903712300632E-8;
-3,88077050119756E-8;
-5,39248099831765E-8;
-7,90015702921915E-8;
-9,71465524182796E-8;
-8,94075297291377E-8;
-4,96656477157926E-8;
9,03653600827389E-9;
6,19704440088123E-8;
8,85100589059698E-8;
8,45058864341146E-8;
6,25452299878889E-8;
4,09197236378648E-8;
3,04405441069037E-8;
2,90002900364927E-8;
2,68144218144416E-8;
1,66555278003293E-8;
1,27932741237848E-10;
-1,47674317368569E-8;
-2,17734974206743E-8;
-2,25263958807423E-8;
-2,51227539014659E-8;
-3,63164029838875E-8;
-5,41854809918306E-8;
-6,78263709173761E-8;
-6,48308730628891E-8;
-4,08478452680915E-8;
-3,70210775506818E-9;
3,11954371802329E-8;
5,0672636255716E-8;
5,15520556518762E-8;
4,09577530190195E-8;
2,97017856893101E-8;
2,43501748714178E-8;
2,39047892298805E-8;
2,2792018614414E-8;
1,68076433647165E-8;
6,78397930082745E-9;
-2,76071547825159E-9;
-8,20094502916636E-9;
-1,02637807203859E-8;
-1,3299559405885E-8;
-2,10401501756642E-8;
-3,26069425180821E-8;
-4,22689037553309E-8;
-4,32815835133746E-8;
-3,28350810377674E-8;
-1,42761281588825E-8;
5,00452478699107E-9;
1,82728588220157E-8;
2,32157043960316E-8;
2,22768577022448E-8;
1,98546584026216E-8;
1,88715582314375E-8;
1,92647453931709E-8;
1,90654874310963E-8;
1,66655657872909E-8;
1,22336172725253E-8;
7,31112464483298E-9;
3,26952176862148E-9;
1,45794166366748E-10;
-3,2064031985852E-9;
-7,93622227297256E-9;
-1,40527418838937E-8;
-2,02333877277604E-8;
-2,45768815110115E-8;
-2,56088937040389E-8;
-2,2882225704713E-8;
-1,69659847149095E-8;
-9,10412343802749E-9;
-8,49032284656268E-10;
6,29659688208903E-9;
1,12990150809369E-8;
1,39846536103827E-8;
1,50734121260834E-8;
1,56407421190834E-8;
1,62764167136854E-8;
1,65950362492511E-8;
1,56190893692019E-8;
1,28139334924419E-8;
8,85563434860946E-9;
5,29172214555911E-9;
3,15952047070929E-9;
1,70451810549292E-9;
-1,46411382069425E-9;
-8,52282104992882E-9;
-1,91453390844693E-8;
-2,97171698574954E-8;
-3,50854580747721E-8;
-3,18795590691155E-8;
-2,09869965915263E-8;
-7,18922264681239E-9;
3,9489958899653E-9;
9,66257168388054E-9;
1,13155707461678E-8;
1,25179550294955E-8;
1,5687389025284E-8;
1,99807807129613E-8;
2,23284559589366E-8;
2,06057121909537E-8;
1,60132155491424E-8;
1,2330916527523E-8;
1,24108686418336E-8;
1,48891811286601E-8;
1,43003571851599E-8;
5,07881923952795E-9;
-1,34152198701036E-8;
-3,49706617829254E-8;
-4,97211217222549E-8;
-5,04738539440337E-8;
-3,75453204280141E-8;
-1,83908542648841E-8;
-2,2846791805053E-9;
5,87778678100372E-9;
7,97799483609079E-9;
9,69326718454853E-9;
1,49392572726396E-8;
2,25022770124145E-8;
2,7604631408434E-8;
2,68191351368763E-8;
2,17688551612074E-8;
1,80484309821913E-8;
1,99849076434663E-8;
2,57287004212456E-8;
2,73183976630958E-8;
1,6429175198534E-8;
-8,38116023041824E-9;
-3,88232433133151E-8;
-6,12248458233262E-8;
-6,52977433606829E-8;
-5,08688144638096E-8;
-2,75174988491925E-8;
-7,49322367823994E-9;
2,59725570375511E-9;
5,04108779843242E-9;
7,16065887444942E-9;
1,40686489649894E-8;
2,42624218422082E-8;
3,16028376645591E-8;
3,16196357476383E-8;
2,62660053042316E-8;
2,25740586044813E-8;
2,60456057128932E-8;
3,44493659632806E-8;
3,78503909367732E-8;
2,57316904076923E-8;
-4,00585492842608E-9;
-4,14494321579185E-8;
-6,99423870654534E-8;
-7,67517076143829E-8;
-6,12898170706121E-8;
-3,47753515600588E-8;
-1,17659878985533E-8;
-2,09619986715504E-10;
2,48208776030012E-9;
4,90768971605856E-9;
1,31099728784556E-8;
2,53617886736657E-8;
3,44737925341E-8;
3,51696618011052E-8;
2,96455296905068E-8;
2,6036516013135E-8;
3,07499558649869E-8;
4,12676279215014E-8;
4,61461234801633E-8;
3,31816606641675E-8;
-2,44469121796303E-10;
-4,30113448698432E-8;
-7,62040076377468E-8;
-8,52187598070417E-8;
-6,91295908683674E-8;
-4,03615621121565E-8;
-1,51935288543225E-8;
-2,58117128802864E-9;
2,78481542819366E-10;
2,92572637228429E-9;
1,20931921136563E-8;
2,58924210425482E-8;
3,63613606533522E-8;
3,76210068815211E-8;
3,20400409892371E-8;
2,8558974902289E-8;
3,42500377202809E-8;
4,63943902158099E-8;
5,24478845483539E-8;
3,89709500435295E-8;
2,94427546328534E-9;
-4,3663364588935E-8;
-8,0317786441922E-8;
-9,10625262061413E-8;
-7,46956168224387E-8;
-4,4466318102985E-8;
-1,78620442167761E-8;
-4,55204155117207E-9;
-1,59356383851657E-9;
1,19943364788904E-9;
1,10414425754652E-8;
2,59393999599295E-8;
3,73981276137313E-8;
3,91174780610157E-8;
3,35740891278352E-8;
3,0256797612336E-8;
3,66913729637911E-8;
5,00289664712368E-8;
5,69894722256463E-8;
4,32873731856515E-8;
5,60733023397987E-9;
-4,35443294093507E-8;
-8,25766699128482E-8;
-9,46270773032767E-8;
-7,82755401873036E-8;
-4,72707540307213E-8;
-1,98551913413764E-8;
-6,15623317141168E-9;
-3,1612094209477E-9;
-2,87381999967545E-10;
9,97928918177749E-9;
2,55855205882726E-8;
3,7709966299199E-8;
3,97929715325748E-8;
3,43688826753081E-8;
3,12402996393047E-8;
3,82095904355246E-8;
5,23628246977788E-8;
5,9988590074101E-8;
4,63045524207725E-8;
7,79034956516831E-9;
-4,27843536072394E-8;
-8,3251135026999E-8;
-9,62313016812927E-8;
-8,01427821365016E-8;
-4,89465064303426E-8;
-2,12516911890817E-8;
-7,42872936443351E-9;
-4,44771739863244E-9;
-1,54809468944432E-9;
8,92486634475227E-9;
2,48999768094553E-8;
3,74106277196396E-8;
3,97728968400426E-8;
3,45298314325454E-8;
3,16111492415663E-8;
3,89343193300188E-8;
5,35691834828484E-8;
6,16507126869761E-8;
4,81878227136666E-8;
9,53439607828371E-9;
-4,15007217707214E-8;
-8,25905452315229E-8;
-9,61740167293416E-8;
-8,05478867419177E-8;
-4,96499126562528E-8;
-2,21293844868633E-8;
-8,40488981519655E-9;
-5,47899849395068E-9;
-2,6011890866872E-9;
7,89310976484678E-9;
2,39470093661164E-8;
3,66027658443617E-8;
3,91709313333023E-8;
3,41622472604023E-8;
3,14638087221425E-8;
3,89802584947767E-8;
5,38163539942676E-8;
6,21708045059428E-8;
4,90922594194543E-8;
1,08854111996337E-8;
-3,97989404868024E-8;
-8,08245117653655E-8;
-9,4724960818466E-8;
-7,97219128746758E-8;
-4,9530714720735E-8;
-2,25572806414397E-8;
-9,11532018351441E-9;
-6,2814019936723E-9;
-3,46396331411603E-9;
6,89739960599797E-9;
2,27876803792052E-8;
3,53857165212718E-8;
3,80907751917319E-8;
3,33537143365295E-8;
3,08840903283422E-8;
3,84592640340463E-8;
5,32545652315597E-8;
6,1722312325225E-8;
4,9161411904418E-8;
1,18844154658822E-8;
-3,77745703136376E-8;
-7,81580254861309E-8;
-9,21331792423089E-8;
-7,78785562363976E-8;
-4,87198934041658E-8;
-2,25991067941331E-8;
-9,59303831763353E-9;
-6,87787503290976E-9;
-4,15234161758854E-9;
5,94688247917612E-9;
2,14719984374298E-8;
3,38433976234426E-8;
3,66281440415069E-8;
3,21889347611957E-8;
2,99505904007805E-8;
3,74711496780265E-8;
5,20220943104986E-8;
6,0469342772118E-8;
4,85301427428158E-8;
1,25710105850591E-8;
-3,55134095112578E-8;
-7,47800297124206E-8;
-8,86228095924751E-8;
-7,52081239531525E-8;
-4,73433533951271E-8;
-2,23190885536457E-8;
-9,86662251967421E-9;
-7,29124583016945E-9;
-4,68359898097877E-9;
5,05099106100565E-9;
2,00462096258877E-8;
3,20503690047099E-8;
3,48662511805154E-8;
3,07449218909886E-8;
2,87350324582512E-8;
3,61031231869432E-8;
5,02453414994543E-8;
5,85593044381996E-8;
4,73170638771192E-8;
1,29877264711029E-8;
-3,30837408390736E-8;
-7,0855842628463E-8;
-8,43956867745377E-8;
-7,188554389418E-8;
-4,55122393455328E-8;
-2,17712098225395E-8;
-9,96530061061786E-9;
-7,54531656916343E-9;
-5,07219286638198E-9;
4,21545966330422E-9;
1,85502067400511E-8;
3,00769128550007E-8;
3,28791992842087E-8;
2,90868611297492E-8;
2,7301203352971E-8;
3,44385986668619E-8;
4,80395352726246E-8;
5,61258109585504E-8;
4,56341134539276E-8;
1,31662492574304E-8;
-3,05558873694345E-8;
-6,65323111392991E-8;
-7,96286855807587E-8;
-6,8063177247718E-8;
-4,33251486848062E-8;
-2,10053101572839E-8;
-9,91105800288362E-9;
-7,65889400680781E-9;
-5,33855966365458E-9;
3,44382080494462E-9;
1,70207241744981E-8;
2,79805649367888E-8;
3,07343689732661E-8;
2,72737627797792E-8;
2,57039687259264E-8;
3,25486790110667E-8;
4,55026483598919E-8;
5,32870771919563E-8;
4,35792472112815E-8;
1,31415008167119E-8;
-2,79828418098543E-8;
-6,19409183500192E-8;
-7,44807893138341E-8;
-6,38794320433155E-8;
-4,08714843480998E-8;
-2,00666196019502E-8;
-9,73334767485007E-9;
-7,65225813684246E-9;
-5,49311317347344E-9;
2,73506165973892E-9;
1,54835627211607E-8;
2,58127120359729E-8;
2,84871590573257E-8;
2,53580187939558E-8;
2,3993514125617E-8;
3,0497306241136E-8;
4,27252045423387E-8;
5,0147749321242E-8;
4,12428214407508E-8;
1,29454687011007E-8;
-2,54098476095406E-8;
-5,71883768208492E-8;
-6,90881492441181E-8;
-5,94525189378107E-8;
-3,82303792008152E-8;
-1,89972960616866E-8;
-9,4499377116375E-9;
-7,54552686414319E-9;
-5,55181088102801E-9;
2,09586885082699E-9;
1,39635880402951E-8;
2,36176691006138E-8;
2,61909676636556E-8;
2,33849039900431E-8;
2,22134638550512E-8;
2,83395909140233E-8;
3,97874759333821E-8;
4,68031537569247E-8;
3,86990985219107E-8;
1,26064958805538E-8;
-2,28763425311192E-8;
-5,23756011799948E-8;
-6,3569691847408E-8;
-5,48859358515193E-8;
-3,54686011070947E-8;
-1,78310184672548E-8;
-9,08257510817298E-9;
-7,35384155729258E-9;
-5,52872989359871E-9;
1,52124796821823E-9;
1,24833834138733E-8;
2,14329056065144E-8;
2,38829829961879E-8;
2,13912199651227E-8;
2,04014128198316E-8;
2,61249677336679E-8;
3,67561126729638E-8;
4,33322990418659E-8;
3,60198937259055E-8;
1,21513420269154E-8;
-2,04137237962546E-8;
-4,75806122890708E-8;
-5,8026724117033E-8;
-5,02677451346331E-8;
-3,26457097235242E-8;
-1,66013916034128E-8;
-8,64806870693033E-9;
-7,09221820529681E-9;
-5,43519436882976E-9;
1,01193004399366E-9;
1,10565987445736E-8;
1,92882209238191E-8;
2,16030488910687E-8;
1,94110357196032E-8;
1,85867333082975E-8;
2,38918818671313E-8;
3,36880067795884E-8;
3,98054091515855E-8;
3,32652219420881E-8;
1,1603547366576E-8;
-1,80494983709201E-8;
-4,28707185727506E-8;
-5,25418985076533E-8;
-4,56751736981561E-8;
-2,98126679297725E-8;
-1,53344217893739E-8;
-8,16389321594325E-9;
-6,77675512138037E-9;
-5,28526571845928E-9;
5,6462194268307E-10;
9,69728322904795E-9;
1,72093568010499E-8;
1,93774837703008E-8;
1,74694500388491E-8;
1,67986665120637E-8;
2,1679540542648E-8;
3,06358780877939E-8;
3,628063869068E-8;
3,04832165704538E-8;
1,09851631469428E-8;
-1,58008526875688E-8;
-3,83033939040387E-8;
-4,71892642819549E-8;
-4,11680139395971E-8;
-2,70100801495034E-8;
-1,40559495315737E-8;
-7,64321494160234E-9;
-6,41632662834105E-9;
-5,08563508230816E-9;
1,78757099546317E-10;
8,41431685943112E-9;
1,52169416031712E-8;
1,7231810943776E-8;
1,55896434794205E-8;
1,50585327973801E-8;
1,95116686913915E-8;
2,7638549111495E-8;
3,28108462594433E-8;
2,77178325497056E-8;
1,03136198911003E-8;
-1,36843288083046E-8;
-3,39218296548534E-8;
-4,20228128273862E-8;
-3,67996645704505E-8;
-2,42746476270675E-8;
-1,27829718388607E-8;
-7,09979414574008E-9;
-6,02638960645143E-9;
-4,84931036574063E-9;
-1,50406008815381E-10;
7,21573621489921E-9;
1,33250207434808E-8;
1,51843328916351E-8;
1,37889065876103E-8;
1,33809398106693E-8;
1,74156645504001E-8;
2,47316794134191E-8;
2,94327126042506E-8;
2,50069163804094E-8;
9,60785522071523E-9;
-1,17104494496402E-8;
-2,97582439155536E-8;
-3,70863686353864E-8;
-3,26091575374195E-8;
-2,16340527535245E-8;
-1,15339703765881E-8;
-6,5439481274746E-9;
-5,61543807113738E-9;
-4,58518468708132E-9;
-4,28364875418016E-10;
6,10557830222566E-9;
1,15470750628709E-8;
1,32477722558768E-8;
1,20803757324297E-8;
1,17832091826573E-8;
1,54091010740614E-8;
2,19406294441003E-8;
2,61815548022603E-8;
2,23784814414855E-8;
8,88042994198778E-9;
-9,88400899127922E-9;
-2,58393606957396E-8;
-3,24164526515029E-8;
-2,86278400114232E-8;
-1,91102761446556E-8;
-1,03230036808679E-8;
-5,98566465428354E-9;
-5,191589161836E-9;
-4,29805734888826E-9;
-6,5586215254285E-10;
5,0843226412948E-9;
9,88966671742377E-9;
1,14341556509233E-8;
1,04739326558085E-8;
1,02745736897289E-8;
1,35058441868079E-8;
1,92870414592747E-8;
2,30820296313106E-8;
1,98577136453607E-8;
8,14867406908005E-9;
-8,20944775728275E-9;
-2,21840438581859E-8;
-2,80368332352085E-8;
-2,48815212702162E-8;
-1,67216404287966E-8;
-9,15890451684221E-9;
-5,43164982578889E-9;
-4,76246919032313E-9;
-3,99844030076111E-9;
-8,39169803004836E-10;
4,15550176840334E-9;
8,35674642841896E-9;
9,74825063469717E-9;
8,97582148790385E-9;
8,86165925741589E-9;
1,17174357820579E-8;
1,67866729843861E-8;
2,0154285958081E-8;
1,74609235860553E-8;
7,41768117755815E-9;
-6,68659633654525E-9;
-1,87988896589926E-8;
-2,39631332377985E-8;
-2,13839520518817E-8;
-1,44789215380193E-8;
-8,05337745947251E-9;
-4,89114030714283E-9;
-4,33547129636875E-9;
-3,68951437907074E-9;
-9,79998524590487E-10;
3,31699504851611E-9;
6,95170297034107E-9;
8,19475830371259E-9;
7,5909901889132E-9;
7,5497136419539E-9;
1,00500315390019E-8;
1,44517411593004E-8;
1,74122849520577E-8;
1,52021817421045E-8;
6,70021272533647E-9;
-5,31463373547594E-9;
-1,5693724388431E-8;
-2,02054089716189E-8;
-1,81460598940016E-8;
-1,23930013414313E-8;
-7,01115625851345E-9;
-4,36657071159274E-9;
-3,91513147285552E-9;
-3,37757558349777E-9;
-1,0856370305225E-9;
2,56435180309764E-9;
5,67457303586341E-9;
6,77610054588102E-9;
6,32200847150487E-9;
6,34163295002653E-9;
8,50717426737828E-9;
1,22863895008887E-8;
1,486536705589E-8;
1,30931989879697E-8;
6,00381799831434E-9;
-4,08772494054502E-9;
-1,28660057064261E-8;
-1,67672412243732E-8;
-1,51723137237758E-8;
-1,0465797005979E-8;
-6,03655328483679E-9;
-3,86423273220693E-9;
-3,50643717208106E-9;
-3,06922608496692E-9;
-1,15890990378987E-9;
1,89859729548053E-9;
4,52335972433428E-9;
5,48954194292403E-9;
5,16743785696805E-9;
5,23865214397392E-9;
7,09293856765918E-9;
1,02958858093633E-8;
1,2517413149762E-8;
1,1136723481755E-8;
5,33346105272001E-9;
-3,00200027736166E-9;
-1,03136639185342E-8;
-1,3646195135145E-8;
-1,24635915989655E-8;
-8,70117312072424E-9;
-5,13216709506752E-9;
-3,38760086060309E-9;
-3,11357509109268E-9;
-2,76525431641474E-9;
-1,20234963051129E-9;
1,31378779886018E-9;
3,49372806061057E-9;
4,3324226016574E-9;
4,12584102440371E-9;
4,23853338950681E-9;
5,80504825874887E-9;
8,48062169053104E-9;
1,03711315545658E-8;
9,3370461141393E-9;
4,69301033143897E-9;
-2,04969029723417E-9;
-8,02555115122553E-9;
-1,08349649026549E-8;
-1,00139940026322E-8;
-7,09669817253447E-9;
-4,30080129677998E-9;
-2,93837184417909E-9;
-2,73805538750031E-9;
-2,47006863918798E-9;
-1,2215600292657E-9;
8,04628982440514E-10;
2,58088709277454E-9;
3,30119608825081E-9;
3,1939490206093E-9;
3,33962290515878E-9;
4,64308773945106E-9;
6,83672746202757E-9;
8,42154355360595E-9;
7,69497846080629E-9;
4,09030830494145E-9;
-1,22455048804481E-9;
-5,9961681380269E-9;
-8,3241943406582E-9;
-7,81883326973006E-9;
-5,65011354378455E-9;
-3,54043615887818E-9;
-2,51947328841905E-9;
-2,38417085097689E-9;
-2,18694733996336E-9;
-1,21837774562586E-9;
3,67946613701525E-10;
1,77937739700533E-9;
2,39071818685697E-9;
2,36740780411306E-9;
2,53846863845282E-9;
3,60283384213657E-9;
5,36095308215331E-9;
6,66796929495791E-9;
6,20795625310344E-9;
3,52415579810027E-9;
-5,16454999268953E-10;
-4,21163802649921E-9;
-6,10392039998211E-9;
-5,86674942922845E-9;
-4,35598128170559E-9;
-2,85186471685047E-9;
-2,12989235324985E-9;
-2,05146114476794E-9;
-1,9168344678747E-9;
-1,19759898680595E-9;
-1,99697012946053E-12;
1,08409308589884E-9;
1,59326264774599E-9;
1,6408733104999E-9;
1,82987921431456E-9;
2,67786432744322E-9;
4,04787667452339E-9;
5,10267049823065E-9;
4,87259082756237E-9;
2,99884649779727E-9;
8,21877649955634E-11;
-2,65605039135934E-9;
-4,15560796052833E-9;
-4,14862364456433E-9;
-3,20958381772166E-9;
-2,2337161514389E-9;
-1,77300851318641E-9;
-1,74292616632553E-9;
-1,66233913028525E-9;
-1,16126007141473E-9;
-3,10977543594936E-10;
4,86556143598462E-10;
9,0434132156775E-10;
1,00891627113275E-9;
1,21053601850519E-9;
1,86690623254535E-9;
2,88911945514628E-9;
3,71600631670206E-9;
3,681442329817E-9;
2,51344186305902E-9;
5,82176683009871E-10;
-1,31688480845E-9;
-2,46543714381009E-9;
-2,64849913203049E-9;
-2,20231502706517E-9;
-1,68241488219411E-9;
-1,44676318144618E-9;
-1,45784113356051E-9;
-1,42336555972104E-9;
-1,11350770321672E-9;
-5,64051703201005E-10;
-1,96128715269562E-11;
3,12552433194086E-10;
4,65224398434076E-10;
6,74993481068344E-10;
1,15754667604951E-9;
1,87655381769542E-9;
2,50200185154877E-9;
2,62944675123814E-9;
2,06943218070683E-9;
9,89956596991951E-10;
-1,77996352122505E-10;
-1,01524757870558E-9;
-1,35620741097998E-9;
-1,32798292464529E-9;
-1,19661065117034E-9;
-1,15214130207288E-9;
-1,19642101735837E-9;
-1,20157813951868E-9;
-1,05667151157846E-9;
-7,68234667649569E-10;
-4,42723359222868E-10;
-1,8454484090348E-10;
3,14532417926694E-12;
2,15893666305561E-10;
5,4838122474156E-10;
1,00022700531781E-9;
1,44605524968965E-9;
1,70806158029327E-9;
1,66493915933394E-9;
1,31423139577208E-9;
7,76341097162666E-10;
2,13408887654715E-10;
-2,52905917817926E-10;
-5,7355776795925E-10;
-7,70145073076507E-10;
-8,8701508817698E-10;
-9,58926805871782E-10;
-9,98125064613797E-10;
-9,92329611934888E-10;
-9,2524558874705E-10;
-7,89710686109381E-10;
-5,98914220937981E-10;
-3,83032519477787E-10;
-1,71631502294465E-10;
2,89604818566767E-11;
2,51160236637747E-10;
5,41349201640885E-10;
9,12554920659639E-10;
1,30075115681288E-9;
1,56600077952177E-9;
1,56358776777194E-9;
1,23829469580124E-9;
6,75368560451403E-10;
6,57031295217949E-11;
-4,01715565456933E-10;
-6,51426743404436E-10;
-7,46093631358686E-10;
-8,10634928754843E-10;
-9,22499465218343E-10;
-1,04412412493204E-9;
-1,06835739607172E-9;
-9,35754621621E-10;
-6,99810890930589E-10;
-4,9319626843719E-10;
-4,06733917263191E-10;
-3,8032125122695E-10;
-2,2580269649399E-10;
2,30893623834657E-10;
9,75950085979372E-10;
1,75250363341408E-9;
2,19876061406943E-9;
2,07801138003691E-9;
1,44201475396208E-9;
6,00737901548807E-10;
-8,63807786395127E-11;
-4,43293757921189E-10;
-5,54874900869615E-10;
-6,41660024486438E-10;
-8,49394317601264E-10;
-1,12483814985579E-9;
-1,2843526789097E-9;
-1,20456143777352E-9;
-9,55474182993077E-10;
-7,54750662388714E-10;
-7,64311460234047E-10;
-9,0349231239912E-10;
-8,65245929242519E-10;
-3,44339830499828E-10;
6,87386067072787E-10;
1,88158834405602E-9;
2,69722799745344E-9;
2,74927692862168E-9;
2,0625397825147E-9;
1,04065600268721E-9;
1,80026942789335E-10;
-2,61390903959329E-10;
-3,85523356889455E-10;
-4,89262007241781E-10;
-7,74606097137153E-10;
-1,17632557381299E-9;
-1,4469942987343E-9;
-1,41065651772507E-9;
-1,15402398076192E-9;
-9,63968321277121E-10;
-1,05443006433391E-9;
-1,32991405685432E-9;
-1,39078514399266E-9;
-8,23525963729083E-10;
4,33913271815931E-10;
1,96050217267929E-9;
3,07440791826625E-9;
3,27200892008361E-9;
2,55318754736741E-9;
1,3950750958578E-9;
4,0207096853594E-10;
-1,04716555303991E-10;
-2,37956673374728E-10;
-3,53888246041838E-10;
-7,00582341470879E-10;
-1,20244459194245E-9;
-1,56088548020763E-9;
-1,56322016808273E-9;
-1,30635068883926E-9;
-1,12465120255616E-9;
-1,28084683937246E-9;
-1,66824134442535E-9;
-1,81018911213849E-9;
-1,21253303520004E-9;
2,14305113356775E-10;
1,99649733831563E-9;
3,34458717291046E-9;
3,6617453873989E-9;
2,9274263627925E-9;
1,67187059344224E-9;
5,81447679529166E-10;
2,9128144113495E-11;
-1,09106316310485E-10;
-2,3469458094001E-10;
-6,27287219261186E-10;
-1,20482033893247E-9;
-1,63238798111528E-9;
-1,66674185674105E-9;
-1,41219356696241E-9;
-1,24358269241213E-9;
-1,45423996629036E-9;
-1,92777261362318E-9;
-2,13747648116382E-9;
-1,52476571619385E-9;
2,54901549155954E-11;
1,99735814601123E-9;
3,52193899807751E-9;
3,93441807400482E-9;
3,19652200452216E-9;
1,87922512210616E-9;
7,25809622466179E-10;
1,42128259965353E-10;
1,64489341050876E-12;
-1,29230541413781E-10;
-5,55532653334878E-10;
-1,18864994942539E-9;
-1,66742628225901E-9;
-1,72878844153542E-9;
-1,48114935655643E-9;
-1,32401566688165E-9;
-1,57701434921724E-9;
-2,11832470761766E-9;
-2,38114373158236E-9;
-1,76386579609604E-9;
-1,34779414928066E-10;
1,96533744819982E-9;
3,61639326531639E-9;
4,10473854702429E-9;
3,37683944071509E-9;
2,02724358421912E-9;
8,36051362162342E-10;
2,35304124249934E-10;
9,54845954942306E-11;
-3,82996668485334E-11;
-4,85621374881572E-10;
-1,15655630276786E-9;
-1,67384873593411E-9;
-1,75722310609207E-9;
-1,51713191093583E-9;
-1,373037094674E-9;
-1,65840019827784E-9;
-2,24698638642223E-9;
-2,55060682950654E-9;
-1,93993251380808E-9;
-2,68021415380825E-10;
1,91118412973009E-9;
3,64415377582927E-9;
4,18866012020603E-9;
3,47939156247759E-9;
2,12122606885613E-9;
9,16606894858582E-10;
3,10654204502915E-10;
1,72754829253499E-10;
3,90662609892516E-11;
-4,19586406256104E-10;
-1,11241755235236E-9;
-1,65212088524882E-9;
-1,75225113982405E-9;
-1,52426527697074E-9;
-1,39378380860897E-9;
-1,70151368619246E-9;
-2,32310266125282E-9;
-2,65820502519096E-9;
-2,06036599269175E-9;
-3,76978505928597E-10;
1,83540134874844E-9;
3,61263419994184E-9;
4,19710746671292E-9;
3,51436059024884E-9;
2,17017564564944E-9;
9,72450925540765E-10;
3,70203426514202E-10;
2,35684572668188E-10;
1,03864039998359E-10;
-3,56990697071271E-10;
-1,05783825822158E-9;
-1,61118246030751E-9;
-1,7247059090219E-9;
-1,50763075518007E-9;
-1,39043101410062E-9;
-1,71483509678175E-9;
-2,35354897041534E-9;
-2,70828685521743E-9;
-2,13270590213493E-9;
-4,64843711097578E-10;
1,74593545060223E-9;
3,53436047100228E-9;
4,14336328801177E-9;
3,49402763146905E-9;
2,17965063708514E-9;
1,00452344456177E-9;
4,15785866259595E-10;
2,86404938823593E-10;
1,58398942555427E-10;
-2,99861527973557E-10;
-9,9734598136769E-10;
-1,55040487829598E-9;
-1,6756132252009E-9;
-1,47405674445653E-9;
-1,3678906387911E-9;
-1,69981644359167E-9;
-2,34611022448455E-9;
-2,71418642350398E-9;
-2,16303032850367E-9;
-5,32152288754104E-10;
1,64306821047203E-9;
3,41669978208467E-9;
4,03691791269998E-9;
3,42339400760766E-9;
2,1567973355274E-9;
1,01745428418083E-9;
4,47366122363111E-10;
3,25534884281423E-10;
2,0095992149271E-10;
-2,45612026078982E-10;
-9,30454900332686E-10;
-1,47945602280193E-9;
-1,60812733483479E-9;
-1,42187073642588E-9;
-1,33058961625509E-9;
-1,66311490813098E-9;
-2,30498441995363E-9;
-2,67985929876211E-9;
-2,15896858045582E-9;
-5,82085895666121E-10;
1,53244988036212E-9;
3,26683849186623E-9;
3,88948509586507E-9;
3,31705558759701E-9;
2,1069282988017E-9;
1,01477280330481E-9;
4,69151978962777E-10;
3,53255651226216E-10;
2,35243289248167E-10;
-1,95974772296626E-10;
-8,61165491749931E-10;
-1,39738631142737E-9;
-1,53039799655443E-9;
-1,35796859532535E-9;
-1,27761052958387E-9;
-1,60841490453357E-9;
-2,23801828334479E-9;
-2,61243773175599E-9;
-2,12482287612111E-9;
-6,16728154605781E-10;
1,41707959107941E-9;
3,09451044067782E-9;
3,7101225528953E-9;
3,17982266269803E-9;
2,03488558490558E-9;
9,97820950733632E-10;
4,80686938363668E-10;
3,73431795373398E-10;
2,61237698656189E-10;
-1,51466979227459E-10;
-7,89659504435371E-10;
-1,30710306070727E-9;
-1,4409670807036E-9;
-1,28516138865909E-9;
-1,21558571687768E-9;
-1,539525205384E-9;
-2,15129331378472E-9;
-2,51894405960394E-9;
-2,06503796940523E-9;
-6,36744744965697E-10;
1,29922038447152E-9;
2,90402154910874E-9;
3,50556670376015E-9;
3,01978096650226E-9;
1,94522023961295E-9;
9,68763798112561E-10;
4,83021352689529E-10;
3,84180082118413E-10;
2,80168524209074E-10;
-1,11608357161495E-10;
-7,18665206507596E-10;
-1,21309792447641E-9;
-1,34603249785308E-9;
-1,20434771539885E-9;
-1,14579688970694E-9;
-1,45951726290289E-9;
-2,04573585180644E-9;
-2,40496137738397E-9;
-1,98795128846576E-9;
-6,45521946807767E-10;
1,18110289391009E-9;
2,70256959183808E-9;
3,28404536616596E-9;
2,83973726703122E-9;
1,84118497994264E-9;
9,33164984717146E-10;
4,79952316184607E-10;
3,88309259322527E-10;
2,91692050388324E-10;
-7,62197331804782E-11;
-6,47253751156605E-10;
-1,11566852021704E-9;
-1,24689705567265E-9;
-1,1201566283721E-9;
-1,07182967620774E-9;
-1,37204789622062E-9;
-1,92817640399581E-9;
-2,27449436216994E-9;
-1,89372035638119E-9;
-6,44376704678425E-10;
1,06418422802671E-9;
2,49488463540385E-9;
3,05039226050969E-9;
2,64978222048394E-9;
1,72889114527383E-9;
8,8750093431891E-10;
4,68860294586343E-10;
3,85782385077179E-10;
2,97174387429288E-10;
-4,47735933103201E-11;
-5,78524265656974E-10;
-1,01816200291003E-9;
-1,14450223697737E-9;
-1,0319881630734E-9;
-9,92315779867231E-10;
-1,27795318621681E-9;
-1,80334396935677E-9;
-2,13328889786914E-9;
-1,7878758837163E-9;
-6,34868241582608E-10;
9,50038458068441E-10;
2,2833044459657E-9;
2,80924499249191E-9;
2,45160044548435E-9;
1,60986546925162E-9;
8,37995329085884E-10;
4,55234338933256E-10;
3,80168800828469E-10;
2,99380698201919E-10;
-1,66621882808548E-11;
-5,12101107754396E-10;
-9,20616156819877E-10;
-1,04307325760644E-9;
-9,45498662101918E-10;
-9,12329794799942E-10;
-1,18171939147045E-9;
-1,67241743878606E-9;
-1,9837419235474E-9;
-1,6746352402875E-9;
-6,17392144124917E-10;
8,4082886206213E-10;
2,07249105025328E-9;
2,56788589849357E-9;
2,25064774835076E-9;
1,48592333589963E-9;
7,83644649561827E-10;
4,36527251503902E-10;
3,69696979702044E-10;
2,95538586366044E-10;
5,02016801727843E-12;
-4,49048680884569E-10;
-8,26240244000841E-10;
-9,42879885773807E-10;
-8,57647419111185E-10;
-8,33128667121898E-10;
-1,08374092052935E-9;
-1,53825054086597E-9;
-1,83129571573176E-9;
-1,55536261785612E-9;
-5,94987705427078E-10;
7,36109068576442E-10;
1,86638652114777E-9;
2,32769851084771E-9;
2,04938431658078E-9;
1,36210270013582E-9;
7,27191759912137E-10;
4,13358813261934E-10;
3,55372284022877E-10;
2,88844333244091E-10;
2,48232002269361E-11;
-3,88783787012074E-10;
-7,35040759636E-10;
-8,44359743335213E-10;
-7,70720054969026E-10;
-7,53638149689112E-10;
-9,862622673572E-10;
-1,40382502133376E-9;
-1,67598471518297E-9;
-1,4334410331904E-9;
-5,68391043050299E-10;
6,38153181036087E-10;
1,66696054337956E-9;
2,09342496235424E-9;
1,8515934400957E-9;
1,23806893171557E-9;
6,70259210178847E-10;
3,8900546234583E-10;
3,37792176185603E-10;
2,80130505198278E-10;
4,26416345808731E-11;
-3,32590982884545E-10;
-6,48019491571337E-10;
-7,50055892237434E-10;
-6,88451621815861E-10;
-6,76746840992554E-10;
-8,89861522115684E-10;
-1,2710951674993E-9;
-1,52209866587728E-9;
-1,31015703031594E-9;
-5,36663842138677E-10;
5,47018038833518E-10;
1,4756924404455E-9;
1,86693032333117E-9;
1,65964418128864E-9;
1,11678368613076E-9;
6,1236995751092E-10;
3,63884057046287E-10;
3,18290658018676E-10;
2,67368833394299E-10;
5,57255854321743E-11;
-2,81465285188462E-10;
-5,6547399137496E-10;
-6,60385565018018E-10;
-6,08847657970684E-10;
-6,01121554821858E-10;
-7,95646780184372E-10;
-1,14168463679267E-9;
-1,3724739134946E-9;
-1,1897651418433E-9;
-5,041714268588E-10;
4,61899704983435E-10;
1,2944283962992E-9;
1,6493907940145E-9;
1,47259284575873E-9;
9,99242588871447E-10;
5,55621813247139E-10;
3,37227728533501E-10;
2,99895137204723E-10;
2,53760559730857E-10;
6,53918675839069E-11;
-2,32902204741881E-10;
-4,86936414548976E-10;
-5,74299488763593E-10;
-5,32524272622448E-10;
-5,30512003961746E-10;
-7,07028239411136E-10;
-1,01700980070718E-9;
-1,22617542397729E-9;
-1,07100222243802E-9;
-4,68775324330575E-10;
3,84318877746142E-10;
1,12220798268797E-9;
1,44359737685554E-9;
1,29721422555026E-9;
8,86087782012166E-10;
4,98857686570295E-10;
3,0919101898676E-10;
2,78262666975743E-10;
2,39299089023638E-10;
7,38280768898375E-11;
-1,90573275282497E-10;
-4,1620676429461E-10;
-4,95166221276209E-10;
-4,61706639670066E-10;
-4,62959436128994E-10;
-6,20605143752399E-10;
-8,97249361229551E-10;
-1,08706902820476E-9;
-9,56571886463566E-10;
-4,33068109122238E-10;
3,12336988512752E-10;
9,62589858223523E-10;
1,25142989635186E-9;
1,13023561570488E-9;
7,78586613229574E-10;
4,45832776996397E-10;
2,81758496329668E-10;
2,55987028135293E-10;
2,23356219039173E-10;
8,01903440587724E-11;
-1,5086285386415E-10;
-3,49997550457875E-10;
-4,21429863395667E-10;
-3,95436177753564E-10;
-3,99983947677697E-10;
-5,40191542117088E-10;
-7,84680892158683E-10;
-9,54444691715944E-10;
-8,45645873944757E-10;
-3,95733015732816E-10;
2,49403277664182E-10;
8,15399086676974E-10;
1,0717122148977E-9;
9,75168175128396E-10;
6,75927485285603E-10;
3,93854729179519E-10;
2,56204248267184E-10;
2,33334244827261E-10;
2,06701011839399E-10;
8,29667588510054E-11;
-1,16835142753023E-10;
-2,87305306901018E-10;
-3,53476431660384E-10;
-3,3536345573598E-10;
-3,40312629525024E-10;
-4,65118032821658E-10;
-6,79365660353891E-10;
-8,29694714557347E-10;
-7,42669375847125E-10;
-3,60119124945724E-10;
1,92249582912899E-10;
6,79959351940399E-10;
9,05204027385654E-10;
8,2965369814016E-10;
5,82102145483625E-10;
3,45862397432592E-10;
2,30227080656285E-10;
2,12374217158789E-10;
1,89742026543837E-10;
8,47254320419618E-11;
-8,598790554025E-11;
-2,33269255180589E-10;
-2,91064359926962E-10;
-2,79398079264732E-10;
-2,87404656905714E-10;
-3,94788575240608E-10;
-5,80847271017078E-10;
-7,13347412268413E-10;
-6,43951505724882E-10;
-3,24832408686357E-10;
1,42270790111357E-10;
5,57228648100223E-10;
7,52372377855366E-10;
6,96795497680929E-10;
4,94518568368885E-10;
2,98967031772781E-10;
2,03756129806595E-10;
1,91350857317508E-10;
1,73383359169612E-10;
8,50103106041611E-11;
-5,7239992399522E-11;
-1,83379773507129E-10;
-2,35568254056066E-10;
-2,26716348752934E-10;
-2,36485685610571E-10;
-3,3141953578208E-10;
-4,90607716077908E-10;
-6,05304369611097E-10;
-5,52935380347612E-10;
-2,90815657241556E-10;
9,73460927231051E-11;
4,45488746885168E-10;
6,14398018944712E-10;
5,75542257907185E-10;
4,13215431092038E-10;
2,55984670364673E-10;
1,80692702479959E-10;
1,70593335340738E-10;
1,56356886110155E-10;
8,47512428382945E-11;
-3,44046878068954E-11;
-1,40087931664029E-10;
-1,84235723886613E-10;
-1,81410028142501E-10;
-1,93285364646281E-10;
-2,72882788370348E-10;
-4,0684596365309E-10;
-5,06114776720387E-10;
-4,68373799389831E-10;
-2,56873256102386E-10;
5,89595110519436E-11;
3,45349319277747E-10;
4,90387351410604E-10;
4,66076024359306E-10;
3,40206209191193E-10;
2,16718909883967E-10;
1,56784023842318E-10;
1,50512041745335E-10;
1,40756896630166E-10;
8,19671091562315E-11;
-1,4267197329139E-11;
-1,00288299745721E-10;
-1,39366143517054E-10;
-1,39656317376083E-10;
-1,52504909252758E-10;
-2,20620734677267E-10;
-3,32228167133855E-10;
-4,1649943652952E-10;
-3,90662363813436E-10;
-2,26256153361596E-10;
2,49289566343433E-11;
2,57705903711624E-10;
3,7881683933069E-10;
3,66216131808504E-10;
2,73911192841767E-10;
1,81020829366548E-10;
1,36396787155338E-10;
1,32620378129667E-10;
1,24449063507125E-10;
7,92052369681072E-11;
2,89399909330925E-12;
-6,72902898107687E-11;
-1,00148504201862E-10;
-1,03617787692798E-10;
-1,15397455647344E-10;
-1,71602995199452E-10;
-2,63597604128453E-10;
-3,33987408178964E-10;
-3,20765133352793E-10;
-1,97397116119699E-10;
-2,57790761814646E-12;
1,79572350602072E-10;
2,79952083389106E-10;
2,7880788264139E-10;
2,13612233756081E-10;
1,47563302902742E-10;
1,16171487448217E-10;
1,14275385887728E-10;
1,09940359936258E-10;
7,59429734814005E-11;
1,80881489506678E-11;
-3,71797882887961E-11;
-6,61452233109193E-11;
-7,09448235513023E-11;
-8,36555143783634E-11;
-1,29730692793422E-10;
-2,02254792996325E-10;
-2,61365623202686E-10;
-2,56232150707827E-10;
-1,69187698098862E-10;
-2,69833081439119E-11;
1,12816315763213E-10;
1,93219911936239E-10;
2,00411701865733E-10;
1,60702199577632E-10;
1,16858651484626E-10;
9,81311594476633E-11;
9,88134396943689E-11;
9,58664434869636E-11;
7,15439336157188E-11;
2,88650020321541E-11;
-1,22087864786035E-11;
-3,51262535806647E-11;
-4,27002380030096E-11;
-5,61892939007502E-11;
-9,22350041830529E-11;
-1,48549147546213E-10;
-1,96911572217943E-10;
-1,99894131303689E-10;
-1,44383428798236E-10;
-4,6189630164126E-11;
5,44643262862986E-11;
1,1745827177883E-10;
1,32645926281422E-10;
1,14929789473259E-10;
9,06967243948304E-11;
8,04735531581341E-11;
8,30167906963271E-11;
8,22688925869751E-11;
6,68932526428251E-11;
3,87865972865302E-11;
8,71348374295123E-12;
-1,06454145454254E-11;
-1,94977992199761E-11;
-3,22469269343471E-11;
-6,0287154982206E-11;
-1,01726632311608E-10;
-1,39123485477675E-10;
-1,48983861114467E-10;
-1,1930861676888E-10;
-6,12219002304769E-11;
3,14103226250202E-12;
5,31157177289599E-11;
7,42681652434806E-11;
7,3743907144827E-11;
6,7163580069766E-11;
6,45746629989652E-11;
6,89313030925878E-11;
6,99547045830514E-11;
6,22135983187975E-11;
4,66631078889437E-11;
2,62714802718458E-11;
1,08943889284486E-11;
1,14409713899642E-12;
-1,13396507160983E-11;
-3,20851324174707E-11;
-6,04686576156721E-11;
-8,84315825356709E-11;
-1,03631189772685E-10;
-9,7976793046081E-11;
-7,32251464265982E-11;
-3,70559450645677E-11;
-1,49796613337629E-12;
2,37728113548371E-11;
3,81633361699801E-11;
4,62562584388756E-11;
5,18704584357227E-11;
5,63764292219913E-11;
5,89695852567704E-11;
5,72456836011722E-11;
5,12698709470097E-11;
4,11559421534422E-11;
2,89382668508962E-11;
1,82030308829287E-11;
6,56673878473898E-12;
-7,84415200571273E-12;
-2,54935034801754E-11;
-4,56413748734691E-11;
-6,45210226249914E-11;
-7,8609600568318E-11;
-8,1785960339415E-11;
-7,09207843547446E-11;
-4,84200109797931E-11;
-1,92177636108278E-11;
8,59461699137834E-12;
2,87401099690608E-11;
3,9811161467966E-11;
4,44728136750014E-11;
4,76975781040763E-11;
5,2074287872001E-11;
5,45077783293538E-11;
5,20199278633397E-11;
4,42842164179834E-11;
3,23995401682498E-11;
2,10407514515498E-11;
1,30642957142986E-11;
5,02442897235892E-12;
-8,38255882785142E-12;
-3,04143662805456E-11;
-6,03665296054463E-11;
-8,80934835073117E-11;
-9,8662088475859E-11;
-8,59517134329775E-11;
-5,47766369790726E-11;
-1,75366805911915E-11;
1,20067413065413E-11;
2,80408515857158E-11;
3,43404419878978E-11;
3,93568110269751E-11;
4,77619552801625E-11;
5,68145343040942E-11;
6,10880005963587E-11;
5,56868325151862E-11;
4,29380685605396E-11;
3,285861655264E-11;
2,99995437926001E-11;
3,06201099290941E-11;
2,42476538132521E-11;
-1,57117252377299E-12;
-4,5349991760032E-11;
-9,16721385405861E-11;
-1,20092877795857E-10;
-1,157187831439E-10;
-8,28056890038323E-11;
-3,82411044451927E-11;
-7,38390129026853E-13;
1,8332360608908E-11;
2,45247590846649E-11;
2,98555117963748E-11;
4,1412729846069E-11;
5,79566480210409E-11;
6,80938051551276E-11;
6,41232412012095E-11;
5,14446605186809E-11;
4,17206247176657E-11;
4,29215091133301E-11;
5,05654781660994E-11;
4,90461123980634E-11;
2,24137697968509E-11;
-3,11994072466931E-11;
-9,34950963047083E-11;
-1,36164342934052E-10;
-1,39920568748656E-10;
-1,06518113198278E-10;
-5,59575717177701E-11;
-1,2750880634507E-11;
1,02595595947404E-11;
1,69183227835975E-11;
2,20597551945651E-11;
3,68717716110413E-11;
5,77073067562532E-11;
7,20494885769506E-11;
7,09093616636576E-11;
5,8420533390949E-11;
4,9319217915666E-11;
5,41050944323655E-11;
6,74705124537302E-11;
6,95806572805343E-11;
4,16610170247501E-11;
-1,89838504871075E-11;
-9,36292554657552E-11;
-1,47950054872657E-10;
-1,57231511146727E-10;
-1,23187427453651E-10;
-6,83035652255062E-11;
-2,16765767972751E-11;
2,74789841161581E-12;
9,9778942782727E-12;
1,52763696814127E-11;
3,31177499416366E-11;
5,80720558777495E-11;
7,484863267674E-11;
7,54188629815302E-11;
6,29664724697766E-11;
5,46748749537988E-11;
6,23330994524357E-11;
8,00232015548071E-11;
8,685889867259E-11;
5,81571496309888E-11;
-8,96305163008281E-12;
-9,14427197738033E-11;
-1,54278155620335E-10;
-1,69845879913285E-10;
-1,36282901409915E-10;
-7,85509591524502E-11;
-2,96663886021909E-11;
-4,02283532395791E-12;
4,14397356677442E-12;
1,00709627700359E-11;
2,8592857229858E-11;
5,60579771167121E-11;
7,54087628113189E-11;
7,73638429480513E-11;
6,70020411993876E-11;
5,99476352377832E-11;
6,88281516055226E-11;
8,96696191973016E-11;
9,9673130591523E-11;
7,13450803445001E-11;
3,26086240389352E-13;
-8,91694642438642E-11;
-1,59407374200678E-10;
-1,78241289982827E-10;
-1,4483656550971E-10;
-8,68240815026936E-11;
-3,47818602655461E-11;
-8,04047843843541E-12;
-2,30553579571361E-12;
4,71893032502038E-12;
2,44597013920302E-11;
5,27802844304587E-11;
7,57211303988575E-11;
7,84163956915834E-11;
6,74009432176538E-11;
6,12020492404642E-11;
7,2042549975668E-11;
9,65373091393036E-11;
1,0848149860319E-10;
8,05527667152583E-11;
8,14573672593713E-12;
-8,5711188546298E-11;
-1,60026081038286E-10;
-1,82333263949188E-10;
-1,50773110388966E-10;
-9,15125567333235E-11;
-3,86240422329675E-11;
-1,19592689339234E-11;
-5,52888597596748E-12;
4,74568474424218E-13;
1,98268106827873E-11;
5,02921489995504E-11;
7,38320231811136E-11;
7,72005409894988E-11;
6,77804918812379E-11;
6,26720601806342E-11;
7,4967294412694E-11;
1,00846606171552E-10;
1,14831449764703E-10;
8,84393364720296E-11;
1,48834285787371E-11;
-8,10638588950347E-11;
-1,58148636009982E-10;
-1,8342954776883E-10;
-1,53055562407586E-10;
-9,51239438854512E-11;
-4,28654295043568E-11;
-1,55241545926464E-11;
-9,5943501437627E-12;
-2,85372022773576E-12;
1,79882875124578E-11;
4,75490455624121E-11;
7,05724467169925E-11;
7,61846744702735E-11;
6,7694386961454E-11;
6,20181818711768E-11;
7,60648203729279E-11;
1,0307151840286E-10;
1,1792027437521E-10;
9,33405453840674E-11;
1,92244538132877E-11;
-7,69837609343876E-11;
-1,541476530027E-10;
-1,81725638521562E-10;
-1,52732918033748E-10;
-9,57181961522521E-11;
-4,49263200876304E-11;
-1,79067937492281E-11;
-1,2377034933671E-11;
-6,85649359799525E-12;
1,32576232492501E-11;
4,44049317380084E-11;
6,96567927361673E-11;
7,39230233501501E-11;
6,52865136494528E-11;
6,16194288867161E-11;
7,57793408200653E-11;
1,05098184256662E-10;
1,20239354812533E-10;
9,40208201881029E-11;
2,36204396588754E-11;
-7,09580747103513E-11;
-1,48931679533839E-10;
-1,76344897110318E-10;
-1,5049860925037E-10;
-9,59149294658157E-11;
-4,60778888323087E-11;
-2,00213253256231E-11;
-1,43995082382328E-11;
-8,77428003535409E-12;
1,14785816305811E-11;
4,01972121116895E-11;
6,50852375327548E-11;
7,21820666759576E-11;
6,3468892020896E-11;
6,02353033066032E-11;
7,44507385617835E-11;
1,02950115135895E-10;
1,19832288530479E-10;
9,51599194761421E-11;
2,68287553823846E-11;
-6,54985948957662E-11;
-1,43419390474765E-10;
-1,70558787638227E-10;
-1,45595691993693E-10;
-9,3604376962339E-11;
-4,52291911042588E-11;
-2,11600488611179E-11;
-1,68767996296785E-11;
-1,17847677302566E-11;
7,92322242570277E-12;
3,80277202306589E-11;
6,1806816293643E-11;
6,79467646464541E-11;
6,10090246893442E-11;
5,72514035913989E-11;
7,17226026847244E-11;
9,96350708914428E-11;
1,16234929680685E-10;
9,52083626430372E-11;
2,87856166116033E-11;
-6,05733018742205E-11;
-1,3494403584089E-10;
-1,62874722087216E-10;
-1,40544251601598E-10;
-9,12353224640069E-11;
-4,48698319146473E-11;
-2,24799395818902E-11;
-1,78976692694809E-11;
-1,25274649936163E-11;
5,44700924128854E-12;
3,45291989306074E-11;
5,70398995177584E-11;
6,32077714475781E-11;
5,71279183312754E-11;
5,40597299518189E-11;
6,91992232329421E-11;
9,62155271913865E-11;
1,12793524775383E-10;
9,25939746719228E-11;
2,94196628117898E-11;
-5,45813323841465E-11;
-1,26434862774568E-10;
-1,54236022585726E-10;
-1,32541921690032E-10;
-8,67112034434199E-11;
-4,43168046901464E-11;
-2,23687992410505E-11;
-1,91310049018277E-11;
-1,39331260697319E-11;
4,5774956893305E-12;
3,04897592358745E-11;
5,27551835948006E-11;
5,96669516198717E-11;
5,4484190923194E-11;
5,26615530308359E-11;
6,58848947894372E-11;
9,30530815467761E-11;
1,08973789682995E-10;
8,93678544749788E-11;
3,14353404399014E-11;
-4,95884143913252E-11;
-1,17927712822426E-10;
-1,44131503067704E-10;
-1,25952651758619E-10;
-8,25850249509711E-11;
-4,2613226861851E-11;
-2,25852054653709E-11;
-1,87022879857632E-11;
-1,45395515345211E-11;
2,12675015516295E-12;
2,71773664948574E-11;
4,82815017228851E-11;
5,52931752608638E-11;
4,98448015567957E-11;
4,8819956668934E-11;
6,26736384717863E-11;
8,63913503362046E-11;
1,03423598550551E-10;
8,77585923218095E-11;
3,11305660248284E-11;
-4,51297956628291E-11;
-1,0883882627409E-10;
-1,34696248320932E-10;
-1,18046439279533E-10;
-7,78902420996783E-11;
-4,04873462523199E-11;
-2,11504783239964E-11;
-1,83436156856744E-11;
-1,48233358440046E-11;
1,34692324689858E-12;
2,46581126846788E-11;
4,41229966307424E-11;
5,04979501167955E-11;
4,63324342016395E-11;
4,50339790093723E-11;
5,78074756140349E-11;
8,22227328333267E-11;
9,71991431208397E-11;
8,17534063989378E-11;
3,16862791359696E-11;
-3,90371335975507E-11;
-1,00216102470718E-10;
-1,24149527596901E-10;
-1,08545822255092E-10;
-7,22769914416014E-11;
-3,87198736469744E-11;
-2,25121213132982E-11;
-1,93734337107415E-11;
-1,54920324487482E-11;
-1,44094604631615E-12;
2,16673963010636E-11;
4,10863766591416E-11;
4,6124705381642E-11;
4,16346878418597E-11;
4,11957256804249E-11;
5,3744724878625E-11;
7,67631203905265E-11;
9,12701950518621E-11;
7,7461584751881E-11;
3,13440230199445E-11;
-3,39754190699148E-11;
-8,9853240184876E-11;
-1,1307972646146E-10;
-1,00731484969356E-10;
-6,7293518903877E-11;
-3,62360313543584E-11;
-2,08365234117097E-11;
-1,75709523327697E-11;
-1,48151158524783E-11;
-1,86951704281749E-12;
1,85818267407804E-11;
3,51965631283235E-11;
4,15780631565074E-11;
3,8260032592888E-11;
3,74582247621139E-11;
5,00673068004985E-11;
7,06297660110804E-11;
8,43617959373886E-11;
7,31260958667869E-11;
3,02343265346798E-11;
-2,91810372947688E-11;
-8,04117669303679E-11;
-1,03024391562586E-10;
-9,18632444353759E-11;
-6,14327158887627E-11;
-3,37030811075227E-11;
-2,08085109804022E-11;
-1,79800711559442E-11;
-1,37074749090609E-11;
-2,838434171046E-12;
1,51568801370384E-11;
3,21717979230452E-11;
3,72726666556965E-11;
3,47494332928454E-11;
3,50252344077726E-11;
4,5024017721806E-11;
6,43495980160798E-11;
7,78322804650379E-11;
6,70718296204357E-11;
2,83911838806437E-11;
-2,58091086155965E-11;
-7,28398444557625E-11;
-9,2074109237095E-11;
-8,27939797919543E-11;
-5,69894340197377E-11;
-3,03845149495943E-11;
-1,82521424193001E-11;
-1,71146610450037E-11;
-1,38965031253763E-11;
-3,45939141796355E-12;
1,31014229147831E-11;
2,82732298627522E-11;
3,37757994055345E-11;
3,07690125704635E-11;
3,09983196543701E-11;
4,14947497792392E-11;
5,79434548810581E-11;
7,04943025523652E-11;
6,27954693395903E-11;
2,78280662811823E-11;
-2,11711116473372E-11;
-6,32756155348498E-11;
-8,21632303438683E-11;
-7,44525055852284E-11;
-5,1125833099764E-11;
-2,96212760948017E-11;
-1,83912842346619E-11;
-1,53351898859344E-11;
-1,38681377676909E-11;
-4,67663105780107E-12;
1,10648793486118E-11;
2,40934493466664E-11;
2,94040969537312E-11;
2,72003857700058E-11;
2,63108646173102E-11;
3,63492789617191E-11;
5,36324790513903E-11;
6,39712602885851E-11;
5,63143394722752E-11;
2,69426651836274E-11;
-1,7244788193314E-11;
-5,59070787509513E-11;
-7,25983498861822E-11;
-6,58792324337425E-11;
-4,5571635300186E-11;
-2,61173432801165E-11;
-1,6310568054445E-11;
-1,51466146916743E-11;
-1,355551335453E-11;
-4,50216695592195E-12;
9,07958719760269E-12;
2,12761191358983E-11;
2,60872684374081E-11;
2,35236779225617E-11;
2,40096907383225E-11;
3,29715627776673E-11;
4,73801122811608E-11;
5,79009305690498E-11;
5,16022381640738E-11;
2,47361633579398E-11;
-1,43717219421459E-11;
-4,86756969230866E-11;
-6,39924901405593E-11;
-5,83776920202297E-11;
-4,05137632745584E-11;
-2,3712753749431E-11;
-1,5659505538025E-11;
-1,43897760216508E-11;
-1,20426871625523E-11;
-4,35021210122121E-12;
6,99399657703473E-12;
1,79834983933192E-11;
2,23113516040063E-11;
2,00644544293194E-11;
2,02423392298784E-11;
2,87012543086012E-11;
4,30286737678751E-11;
5,22942859434857E-11;
4,56891303006376E-11;
2,26479901583271E-11;
-1,04750214966235E-11;
-4,10233195487456E-11;
-5,539207054547E-11;
-5,10550086432351E-11;
-3,62591601939131E-11;
-2,14804606987273E-11;
-1,42475934144319E-11;
-1,33259611414804E-11;
-1,12099183454014E-11;
-4,53183648802314E-12;
5,96721214789974E-12;
1,4971388200951E-11;
1,80396205727342E-11;
1,80241821762311E-11;
1,86038680552675E-11;
2,51583689176172E-11;
3,76875059819146E-11;
4,53476713930486E-11;
4,09575527013731E-11;
2,15217482690919E-11;
-8,52029680810543E-12;
-3,4258967331146E-11;
-4,65246352290689E-11;
-4,37512080034209E-11;
-3,10400424163424E-11;
-1,88473087453024E-11;
-1,26403454167774E-11;
-1,21223145595864E-11;
-1,16644080072586E-11;
-5,44224060326541E-12;
4,35440622054542E-12;
1,24612315275447E-11;
1,58044800396403E-11;
1,48508796985388E-11;
1,54025139018002E-11;
2,18822725105459E-11;
3,22365487979703E-11;
3,95190328911685E-11;
3,57506594980574E-11;
1,91834677219298E-11;
-5,98839704137683E-12;
-2,95691952645445E-11;
-4,03960481936924E-11;
-3,761486750093E-11;
-2,64919283710845E-11;
-1,61635857728236E-11;
-1,20466732286223E-11;
-1,06756484294431E-11;
-1,01209711555065E-11;
-5,65155700803568E-12;
3,3568669243161E-12;
9,89735975672741E-12;
1,27946533536072E-11;
1,30382312967972E-11;
1,36666280966923E-11;
1,88447775064715E-11;
2,80030019931145E-11;
3,49964737038051E-11;
3,16930851821007E-11;
1,72467197037448E-11;
-3,76628921750946E-12;
-2,36768446339701E-11;
-3,2975311539844E-11;
-3,13736360503655E-11;
-2,37792259241706E-11;
-1,42778511608188E-11;
-9,92573422292018E-12;
-9,84421870152923E-12;
-8,21029379010794E-12;
-4,62871131394537E-12;
1,42567969053809E-12;
7,68632859768342E-12;
1,05542792298766E-11;
1,03695427324272E-11;
1,11236661777094E-11;
1,60386705527957E-11;
2,36224703007511E-11;
2,96566188608472E-11;
2,72583325061568E-11;
1,50371003069708E-11;
-1,96405112355528E-12;
-1,92824562433241E-11;
-2,7992734577189E-11;
-2,50568451985376E-11;
-1,94195869137766E-11;
-1,32475730522724E-11;
-8,19671341104792E-12;
-8,08644408711999E-12;
-7,56034370299835E-12;
-4,19392503835866E-12;
7,75439543763571E-13;
5,84365366555924E-12;
8,4098472304186E-12;
8,53885858405472E-12;
8,32295684182595E-12;
1,26658401153452E-11;
2,00877553694808E-11;
2,39898467107717E-11;
2,27428726554034E-11;
1,41917056434613E-11;
-9,68515921706173E-13;
-1,45044574917895E-11;
-2,11858884071193E-11;
-2,108889531437E-11;
-1,57044175225573E-11;
-9,97079821582721E-12;
-7,2122144710324E-12;
-6,80528322423924E-12;
-6,95759412450769E-12;
-4,63711571363644E-12;
-2,52329582222971E-13;
3,95048411358157E-12;
5,87209338938161E-12;
5,75091845915107E-12;
6,89891752837027E-12;
1,00116579605417E-11;
1,61383215269044E-11;
2,17529931177636E-11;
1,9853226694299E-11;
1,15893493338008E-11;
8,70555843491234E-13;
-9,9404626888255E-12;
-1,70111090609485E-11;
-1,71689557255376E-11;
-1,25804604624213E-11;
-8,38926464859524E-12;
-6,66895108376163E-12;
-6,46777547160981E-12;
-6,31268840250282E-12;
-4,49471503639257E-12;
-6,63443745551171E-13;
2,94941773377219E-12;
4,82827392390568E-12;
4,97971568421701E-12;
5,33816471226804E-12;
8,19867776312466E-12;
1,2814605908359E-11;
1,69315922023757E-11;
1,72712984734551E-11;
1,13289959247462E-11;
1,16272087661188E-12;
-7,59167681779961E-12;
-1,22404493831415E-11;
-1,28284023648391E-11;
-9,7907142801582E-12;
-6,51729912866431E-12;
-5,08173470986676E-12;
-5,34626647888843E-12;
-5,4932674556905E-12;
-4,20235646964575E-12;
-1,88680637930256E-12;
1,60260317332734E-12;
3,1139454049175E-12;
3,16474516909603E-12;
4,44831523186802E-12;
6,01756995310391E-12;
9,7879238279206E-12;
1,43554952094998E-11;
1,40718325379683E-11;
8,96385392153074E-12;
2,57166937816268E-12;
-3,71536068179798E-12;
-7,97145922254488E-12;
-9,13294850101685E-12;
-7,89472620139044E-12;
-5,23320982332436E-12;
-4,4954732442226E-12;
-5,07811563668141E-12;
-4,86592641846367E-12;
-4,56333557893041E-12;
-2,04528392731952E-12;
7,4252512883064E-13;
1,14405170449285E-12;
2,25835936444387E-12;
3,33621819000705E-12;
4,84846617511001E-12;
8,00579271482231E-12;
1,02998757362944E-11;
1,09829399765256E-11;
8,37692093598925E-12;
3,35306766314002E-12;
-1,04336443864457E-12;
-4,99890481088052E-12;
-6,78565480523661E-12;
-5,32572290393355E-12;
-4,3298224711233E-12;
-3,86934315481837E-12;
-3,75589921034619E-12;
-4,41555355189548E-12;
-3,58952898230152E-12;
-2,40004707602542E-12;
-4,1694045155583E-13;
9,38852228761641E-13;
7,10563541206563E-13;
2,08638668489705E-12;
3,37067845093633E-12;
5,24968337439083E-12;
8,14362096914671E-12;
8,68231012381113E-12;
6,99610544689349E-12;
3,64261989103197E-12;
9,24792451810521E-13;
-8,06865978225579E-13;
-3,51031410730348E-12;
-3,82702724274118E-12;
-2,04084443068487E-12;
-2,49836871571254E-12;
-3,28181300900678E-12;
-2,74510442339714E-12;
-2,98649482762585E-12;
-2,57847940592646E-12;
-8,32864363176075E-13;
-7,69954396004652E-13;
-7,06412536016801E-13;
1,29087594240642E-12;
2,68086750649022E-12;
4,06674195970696E-12;
5,40991085729419E-12;
5,97135160418965E-12;
5,91595543486508E-12;
3,74296739049222E-12;
1,98922807171666E-12;
1,08719201086065E-12;
-7,70235234365575E-13;
-1,84463792520031E-12;
-2,56609518837647E-12;
-3,52042571161668E-12;
-3,26706385481381E-12;
-2,43001264568089E-12;
-2,68822877856277E-12;
-2,42183588475552E-12;
-1,40294755606236E-12;
-1,66140409504365E-12;
-1,35963096658521E-12;
1,39991162132909E-13;
1,14533442772287E-12;
1,69771811541856E-12;
2,70866447582258E-12;
4,33318720118855E-12;
5,3763674351053E-12;
5,03495417643251E-12;
3,55107353371106E-12;
1,80815391115105E-12;
-1,29912230675145E-14;
-7,31312194521704E-13;
-5,22200602277969E-13;
-1,57931812868927E-12;
-1,98357852825375E-12;
-2,15233434038828E-12;
-2,85164696748531E-12;
-2,38708089147438E-12;
-1,81935099481946E-12;
-8,79589991393785E-13;
-4,53501196760716E-13;
-6,81907519480498E-13;
-4,99724550742378E-13;
3,09330105671235E-15;
2,08696221523167E-12;
3,34353019698056E-12;
3,68888616254859E-12;
4,743443104446E-12;
4,40284321064687E-12;
3,78892675277607E-12;
2,43800967724205E-12;
3,25935276146893E-13;
-5,43114216211644E-13;
-1,04132456694739E-12;
-1,40866952989881E-12;
-1,60749759047356E-12;
-1,94472478139189E-12;
-2,88286685543985E-12;
-2,82122310224923E-12;
-1,85179829405531E-12;
-1,84318310461603E-12;
-1,34400421017181E-12;
-4,62308666896295E-13;
-2,1824076702114E-13;
5,69855263891752E-13;
1,54241212922545E-12;
2,25377728050163E-12;
4,51628458718549E-12;
6,18898265729012E-12;
4,93984684049115E-12;
2,74066649089364E-12;
9,43369293628023E-13;
-2,33260468719329E-13;
-9,21084579288453E-13;
-9,61178522869002E-13;
-1,15678757836541E-12;
-1,87540724389827E-12;
-2,74956134024079E-12;
-3,23497688696743E-12;
-2,54305167207976E-12;
-2,03449682450794E-12;
-1,60980336166551E-12;
-1,45464426092232E-12;
-1,69540695235408E-12;
-7,20191188943386E-13;
5,37658443188529E-13;
2,81615334314304E-12;
5,39624171207494E-12;
6,28962266030156E-12;
6,5576554385412E-12;
4,86529139276099E-12;
2,20137880549841E-12;
6,06889566824844E-13;
-8,0555107319234E-13;
-1,04313261915462E-12;
-9,5087103193647E-13;
-1,87850979706191E-12;
-2,96293484698162E-12;
-3,48037977292679E-12;
-2,49326134704436E-12;
-2,03527987769944E-12;
-2,51895599578916E-12;
-1,68707083541266E-12;
-1,97782080631457E-12;
-2,6479155994894E-12;
-9,44986555691134E-13;
1,64655363066235E-12;
4,97335188089136E-12;
6,91977867227995E-12;
6,8094785620523E-12;
6,26580152709918E-12;
3,86708591743915E-12;
1,32193209196198E-12;
-1,77180563208558E-13;
-4,96234922459924E-13;
-1,33175227470807E-14;
-1,8873519036783E-12;
-2,76164163976139E-12;
-1,97582343935441E-12;
-3,00354435916478E-12;
-3,03010972833895E-12;
-2,73513858855545E-12;
-3,05702888365233E-12;
-3,02515514158313E-12;
-3,39727081923428E-12;
-1,56087676373333E-12;
1,70858332678027E-12;
4,6296260130254E-12;
7,24283942675856E-12;
7,57898946340264E-12;
6,88410825351364E-12;
5,26476789943745E-12;
2,05064501763628E-12;
-6,54569531077699E-14;
-1,93916791588642E-13;
-6,49735911409509E-14;
-1,21497329115083E-12;
-2,30800249305061E-12;
-2,66026435926981E-12;
-3,07208971133522E-12;
-2,62415708906493E-12;
-2,67288065541468E-12;
-3,42406360423717E-12;
-3,21460497320574E-12;
-3,66217523056943E-12;
-3,41829887325708E-12;
-1,03341105555055E-14;
4,56122748310176E-12;
7,25579392662684E-12;
7,86212390408085E-12;
7,28488465611468E-12;
3,99387091163426E-12;
4,83872120717734E-13;
2,13440837947012E-13;
6,17252926010327E-13;
-9,58168460270722E-14;
-1,37672144603491E-12;
-2,02868390810994E-12;
-2,61322762104219E-12;
-3,37177798028691E-12;
-2,41192220270458E-12;
-2,36452818413447E-12;
-3,28734118454221E-12;
-3,47569540263234E-12;
-4,67645951442785E-12;
-3,29001005713786E-12;
1,23688736490827E-12;
4,64956660398562E-12;
7,20999961711509E-12;
7,99960635215222E-12;
6,80999548179929E-12;
4,90561930779982E-12;
1,64612486237898E-12;
1,27465197660905E-13;
6,22742536600345E-13;
-8,99715016146238E-14;
-1,16413419663423E-12;
-1,86708294548921E-12;
-2,56418148467211E-12;
-3,16234748951283E-12;
-2,27127877963404E-12;
-1,46233656107349E-12;
-2,44945373122025E-12;
-3,86307241622482E-12;
-5,19234869212664E-12;
-3,17644221936124E-12;
9,01782622071165E-13;
3,84959639327705E-12;
6,78208536424035E-12;
8,1549243937833E-12;
7,23424510902709E-12;
4,36856062512827E-12;
1,65396940621062E-12;
1,04309775438405E-12;
7,47001549242773E-13;
4,12557570718432E-13;
-3,45383556063845E-13;
-1,56338797771039E-12;
-2,45141918161631E-12;
-3,52142909531084E-12;
-2,57949340786606E-12;
-1,52249163289655E-12;
-3,38829453914854E-12;
-4,20678766260275E-12;
-4,54161927038593E-12;
-4,08519831079161E-12;
-4,99317224707835E-13;
3,92094243197346E-12;
7,04668442645354E-12;
7,51383353680673E-12;
6,70631184974931E-12;
4,59410220288349E-12;
2,42455641351079E-12;
1,6039108197954E-12;
5,30826872886788E-13;
7,0044096532E-13;
2,69212437839385E-13;
-1,66175214214922E-12;
-2,31527110541811E-12;
-3,12896554638273E-12;
-3,56125936922687E-12;
-2,52443401657005E-12;
-2,52866894507428E-12;
-3,83658825988999E-12;
-4,47853155573503E-12;
-3,25306120220251E-12;
-3,79852115218762E-13;
3,42083442747672E-12;
6,89574513617412E-12;
8,326974274265E-12;
7,37237179190276E-12;
4,87022319824896E-12;
2,58425332385074E-12;
1,3467924659529E-12;
7,68484319753318E-13;
7,39254208344643E-13;
-2,56289725557319E-13;
-1,81110366413679E-12;
-2,22195133160614E-12;
-2,19278667062761E-12;
-2,01179028987245E-12;
-1,79367329091252E-12;
-2,59098762151255E-12;
-4,35369294431374E-12;
-4,67746251810083E-12;
-3,39326373860315E-12;
-1,15712045748677E-12;
2,83995487720652E-12;
6,8710875218443E-12;
8,83437900922471E-12;
7,20846181754261E-12;
4,20322413241052E-12;
2,62323989539608E-12;
1,17642506109905E-12;
6,77067857331396E-13;
8,39770259922868E-13;
-4,59138627182626E-13;
-1,93669656766443E-12;
-2,33138217511418E-12;
-2,27570409162451E-12;
-2,73368884504637E-12;
-2,88868613185084E-12;
-2,38833160743064E-12;
-4,07602996665405E-12;
-5,45700923311247E-12;
-3,84012029507992E-12;
-1,47295760492952E-12;
3,2844762149547E-12;
6,69674928690123E-12;
6,9305436549693E-12;
7,39798055866014E-12;
4,27050330884526E-12;
1,25857612515591E-12;
1,23885237058831E-12;
5,63353218126209E-13;
1,12503745959071E-12;
8,85340661232926E-13;
-6,66247945278553E-13;
-1,09094516133552E-12;
-2,01965211205102E-12;
-2,37183437971173E-12;
-1,75568459268167E-12;
-2,57801984653557E-12;
-4,12829176669971E-12;
-4,63525222879522E-12;
-3,54246848913501E-12;
-5,40657189214993E-13;
2,95330035926756E-12;
5,63126783434654E-12;
6,90322904735525E-12;
6,29392838709675E-12;
5,01241224375758E-12;
2,91835366007258E-12;
1,28789720269436E-12;
1,49192712586243E-12;
1,0484007510353E-12;
1,99571245917001E-13;
-7,60169898479201E-13;
-2,21234024819975E-12;
-2,01573937363725E-12;
-1,32576668627045E-12;
-1,48168778719012E-12;
-2,2086867232342E-12;
-3,8839773412137E-12;
-4,33030952386537E-12;
-3,14973791741625E-12;
-9,7153290905979E-13;
2,64692993969655E-12;
5,43194662987435E-12;
6,1697490909872E-12;
5,75095862271296E-12;
3,83897876969095E-12;
2,0454283461179E-12;
2,30064136639557E-12;
1,5449633235706E-12;
6,85661814760994E-13;
6,52798531509552E-13;
-9,30295668283594E-13;
-1,80973772709417E-12;
-2,54626067458617E-12;
-2,60995515225953E-12;
-1,8885540222838E-12;
-2,5317918022172E-12;
-2,93780267021508E-12;
-3,86295358365644E-12;
-3,75108332777052E-12;
-1,29436603687292E-12;
1,73733136858655E-12;
5,24432812755182E-12;
6,79935927018976E-12;
5,91642785680434E-12;
3,79724541283167E-12;
1,50920209406802E-12;
2,03944449829524E-12;
2,60415373235611E-12;
1,20827870330484E-12;
3,90570686134733E-13;
-8,95061397820876E-13;
-1,44153277268698E-12;
-1,17287823705086E-12;
-1,8396379985521E-12;
-1,90036255195824E-12;
-2,87251848350071E-12;
-4,25750876700217E-12;
-3,94607687872478E-12;
-3,30344717635934E-12;
-1,1119832842529E-12;
2,3798262315476E-12;
5,00883726142507E-12;
6,2647715251601E-12;
5,06177032079752E-12;
3,64726694993089E-12;
2,98383452785018E-12;
1,6866605500938E-12;
1,02919962517707E-12;
7,16330129949791E-13;
1,10881053182177E-12;
1,21153247595417E-13;
-2,15652790375377E-12;
-1,01492819108756E-12;
-4,59442184634322E-13;
-1,76334700370048E-12;
-1,89845415313569E-12;
-2,4949777710256E-12;
-3,78224226539303E-12;
-3,31705530777436E-12;
-8,72240307097125E-13;
1,28396853650635E-12;
4,4963243436918E-12;
6,37803831455434E-12;
4,91556837366357E-12;
3,21531021922565E-12;
1,39562091098571E-12;
9,04751538529155E-13;
1,68535411515769E-12;
1,59981289358134E-12;
6,91295446963881E-13;
-2,77646118480238E-13;
-7,73434805054887E-13;
-1,33122988596309E-12;
-1,32079881352792E-12;
-1,25755021070139E-12;
-2,05231461972386E-12;
-3,02287819444603E-12;
-4,01680156277004E-12;
-3,30491379453648E-12;
-1,0018036621949E-12;
1,70513063655634E-12;
4,34669051117416E-12;
5,0358775560581E-12;
4,50204874326289E-12;
3,4580257662816E-12;
2,10638218564899E-12;
1,34859101090949E-12;
9,59511682503294E-13;
1,38340329405749E-12;
1,1533862340396E-12;
-4,45537153892361E-13;
-1,23612789048326E-12;
-1,47391459752281E-12;
-1,67280140618214E-12;
-1,38766130037307E-12;
-1,76364609732576E-12;
-2,49992446265716E-12;
-2,77164121594766E-12;
-2,56499697997288E-12;
-1,20029349565011E-12;
1,39283784451984E-12;
4,07796888619921E-12;
4,81882412534223E-12;
3,949271145177E-12;
2,9126517007612E-12;
2,38378907925567E-12;
1,76060926429466E-12;
8,02619868156264E-13;
1,026260325562E-12;
8,30039715345369E-13;
-1,71215254492476E-13;
-7,3457004829327E-13;
-1,12325744048948E-12;
-9,63140787146875E-13;
-9,54897889587147E-13;
-1,53672848186621E-12;
-2,10355837877716E-12;
-3,00394568127101E-12;
-2,98604131649669E-12;
-7,06021030363279E-13;
1,31323998947925E-12;
2,89152321710901E-12;
4,59742343455395E-12;
4,18319334847417E-12;
2,31728309560942E-12;
1,23705658908427E-12;
1,66411331770737E-12;
1,54781916881778E-12;
3,91537930784349E-13;
5,05024434917409E-13;
4,50798174983535E-13;
-3,6407145043869E-13;
-1,07358470568785E-13;
-1,29026921584598E-13;
-1,0497288962793E-12;
-1,7052070742589E-12;
-2,13667449589708E-12;
-2,27681752934438E-12;
-2,68154469456893E-12;
-1,66041558289556E-12;
1,52327482750892E-12;
2,67898354506857E-12;
2,79599316348591E-12;
3,60285781618132E-12;
2,95933168585996E-12;
1,43805128945517E-12;
6,50345085647255E-13;
1,20733535498188E-12;
1,29913837456189E-12;
6,53990182029701E-13;
5,07659638826063E-13;
-3,18135480312049E-13;
-1,55705131833531E-12;
-1,2310793625293E-12;
-1,74695056614021E-13;
-7,26534619847591E-13;
-1,72706828918619E-12;
-2,34226373506266E-12;
-2,69565185854279E-12;
-1,02552757660629E-12;
1,60728806272549E-12;
2,56262877775917E-12;
3,05253869670036E-12;
3,23638128317749E-12;
2,25621535940357E-12;
2,34949373324887E-12;
1,86152120869975E-12;
9,56257069282851E-13;
1,77178299349584E-12;
1,01883200746502E-12;
2,35555637885576E-13;
4,1957111863141E-13;
-5,96112438635741E-13;
-3,71589468964777E-13;
9,68393362995917E-14;
-6,19762520390426E-13;
-1,13823092232013E-12;
-1,6301411077259E-12;
-1,15345191011119E-12;
-3,33633876961675E-13;
4,41973997401847E-13;
2,44394171202655E-12;
3,10848416711549E-12;
2,55777130591128E-12;
2,80784531285296E-12;
1,28626964939368E-12;
-1,1486099303902E-13;
8,2100680632727E-13;
9,4575557497241E-13;
8,44966467137162E-13;
6,79150051564566E-13;
-7,1329475461783E-13;
-9,86214889884742E-13;
-9,13316531230631E-14;
1,72079225191613E-13;
-8,7346585185259E-14;
-8,79081073136479E-13;
-1,63267342320765E-12;
-1,12971894987588E-12;
-2,24572270641477E-13;
1,12679987445861E-12;
2,08881975710481E-12;
1,78650190368846E-12;
2,53942530544251E-12;
2,39447382250132E-12;
1,09278890817848E-12;
1,19838368326729E-12;
8,8003000236394E-13;
9,27638737346824E-13;
1,42841829388442E-12;
3,28117534843523E-13;
-6,8341069265222E-13;
-6,38576629420515E-13;
2,35610447182245E-14;
6,25280845076491E-14;
-7,85078117388249E-13;
-1,26146796091744E-12;
-1,41293459867128E-12;
-6,653610897012E-13;
1,84948028096267E-13;
8,25606792163692E-13;
1,67023738517984E-12;
2,59708986164234E-12;
2,76550102358547E-12;
1,15002214552956E-12;
1,30278915705249E-12;
2,02537683815937E-12;
9,96011117533399E-13;
1,16200801350615E-12;
1,05135657256951E-12;
1,68747918048083E-14;
-6,6665977191415E-14;
1,76491948195035E-13;
-6,57389557453311E-15;
-5,36743160022658E-13;
-8,09818833225475E-13;
-5,35400926124257E-13;
-4,46298163751603E-13;
-1,08030017501017E-12;
-8,83797765402653E-13;
4,22620304307056E-13;
1,00500761184173E-12;
1,37616551949348E-12;
1,82314537195969E-12;
1,76103199125312E-12;
1,61463554283631E-12;
9,60547886360707E-13;
2,84929124744741E-13;
8,58276031322374E-13;
6,77992316827747E-13;
-1,67633097717178E-13;
6,131965847432E-13;
4,44950693224591E-13;
1,9214775353943E-15;
4,29630555327226E-13;
-8,42635910654658E-13;
-1,37213482848101E-12;
-1,02162589134608E-12;
-1,71987513915196E-12;
-8,91783296738221E-13;
2,32956593145545E-13;
3,72691028007876E-13;
1,6976036459785E-12;
1,89045243662607E-12;
6,74158132821401E-13;
3,57503623429318E-13;
5,270251329668E-13;
1,43637369009676E-12;
1,54931485852223E-12;
1,35063741829658E-13;
-7,19427359836965E-15;
5,04626594226133E-13;
-1,28158205494388E-13;
-2,63420742011415E-13;
-3,69993532443466E-13;
-1,0835700534392E-12;
-1,08166793892109E-12;
-9,34339055939402E-13;
-8,68290225367476E-13;
-1,11023149647417E-13;
3,16776564135256E-13;
2,60554840539037E-13;
9,62250569544422E-13;
1,06523212777414E-12;
1,1003023944694E-12;
1,4047995367154E-12;
7,11245018795447E-13;
1,02933569717627E-12;
1,0269711537871E-12;
2,27677628465556E-13;
8,11404912402705E-13;
5,57798319940057E-13;
2,50726083736114E-13;
4,79628684169011E-13;
-2,15414819919242E-13;
-2,49300206743549E-13;
-5,41393221377818E-13;
-7,03317438122253E-13;
4,75861453539052E-14;
3,97653832480124E-14;
-1,76277686671723E-13;
3,10553676851899E-13;
9,40073424203586E-13;
1,20702823636718E-12;
1,8575567290326E-12;
1,06827497544154E-12;
-4,72091149767906E-14;
9,96473488638131E-13;
8,53802083543229E-13;
9,03664428853249E-14;
1,63844269303507E-14;
-2,74768777850174E-13;
4,60176573593585E-13;
1,35259568970525E-12;
6,32624362043135E-13;
-1,20342628673818E-13;
6,24863742620279E-13;
1,50246091312657E-13;
-1,0338400744657E-12;
-2,17315548930738E-13;
1,76424428404844E-13;
2,17033034184922E-13;
1,08162525188538E-12;
1,08459719846537E-12;
8,92948561505322E-13;
5,77848312786313E-13;
2,76739745463993E-13;
5,66442917120437E-13;
6,11197412873692E-13;
8,39578163344821E-13;
6,58634133091752E-13;
5,39785015231406E-14;
-3,34507839776797E-13;
-4,89993070394834E-13;
1,4624942772627E-13;
6,85294424600303E-13;
1,87138252536039E-13;
-3,53687714961673E-13;
-6,7011356161226E-14;
-4,48477872934653E-13;
-1,57688543665896E-13;
1,10907729356065E-12;
7,90444291351845E-13;
4,99128732772469E-13;
2,39728163427749E-13;
3,44616308746581E-14;
7,4878986176407E-13;
1,08657825116415E-12;
8,15267474222032E-13;
3,0743681544583E-13;
3,22847381054035E-13;
5,00118726219521E-13;
7,85033202498666E-13;
1,11405340404336E-12;
7,15583664671955E-13;
4,37734786221112E-13;
2,70009873984807E-14;
-4,77675815352849E-13;
2,56978009658504E-13;
1,03134320007085E-12;
9,03426697323535E-13;
9,91555550316102E-13;
9,59079050381926E-13;
6,24508196550021E-13;
9,45745550253483E-13;
9,37160452852598E-13;
4,96553772440399E-13;
1,18938870235213E-12;
1,17209258520156E-12;
-3,18114388863767E-13;
-7,55928594809583E-14;
8,36921292735583E-13;
3,01965563950626E-13;
5,08663979867528E-13;
8,79640135442975E-13;
4,91770209855955E-13;
2,70203706620945E-13;
-6,82264005024456E-13;
-4,22997829357711E-13;
9,50970722719303E-13;
3,83988960795869E-13;
3,47186200333122E-13;
1,28109205825293E-12;
6,87244390865005E-13;
2,52362880972599E-13;
7,71584388792229E-13;
1,02582215201916E-12;
4,03487499199582E-13;
2,94599940638157E-13;
1,0233029489043E-12;
-3,26140597020344E-14;
-6,84632724075642E-13;
6,82891348575735E-13;
4,85812836544888E-13;
3,56474339633403E-14;
1,17288969412916E-12;
4,86925032609986E-13;
-4,08571845151094E-13;
2,38339014580017E-13;
2,70521401568354E-13;
7,41183640027035E-13;
3,09569492126952E-13;
-6,33315693045605E-13;
2,58232670783401E-13;
3,87247031520357E-13;
-3,39785245967179E-13;
7,38068873875011E-14;
1,38621983598859E-13;
-1,79822374763256E-13;
7,17416774786951E-13;
4,35733041150623E-13;
-9,41094551830083E-14;
9,21937281418902E-13;
1,38228621323602E-13;
-2,77603862532948E-13;
4,19978736388668E-13;
1,23434229666843E-13;
5,40090672017593E-13;
-9,07381837807728E-14;
-7,55158860454566E-13;
-4,25592169633171E-14;
4,88350131651804E-14;
1,0798868967513E-13;
2,30559496410789E-13;
7,07518107638401E-13;
8,19648021665915E-13;
8,65925722595652E-13;
1,39572871012382E-12;
1,00018977986208E-12;
6,60692356176575E-13;
3,75578359860504E-13;
3,49199529780848E-13;
8,68411993810037E-13;
1,05605249090498E-12;
1,25285479439153E-12;
1,06366187890753E-12;
8,90674342620659E-13;
4,77982123589899E-13;
-5,17185340704581E-14;
6,13693598459812E-13;
6,34203759838764E-13;
1,52205491059026E-13;
4,81933734389112E-13;
4,06147907713494E-13;
5,05136375330674E-13;
3,48462741192562E-13;
-4,00557816683149E-13;
4,34205901457942E-13;
1,15149761375743E-12;
5,54188042209264E-13;
3,73473060320594E-13;
2,45766855337671E-13;
1,37309629902174E-13;
-1,51133693375213E-13;
-2,50543907926186E-14;
1,15395420345803E-12;
8,14250767899416E-13;
-5,49354798333521E-13;
-5,07011338720854E-13;
2,86204774699933E-13;
4,39675537732705E-13;
7,90148577935589E-14;
4,39563344637506E-13;
6,02929802067532E-13;
9,12918112062482E-13;
9,79519107407668E-13;
-1,93822973043732E-14;
6,16615958041587E-13;
4,44457756086582E-13;
-2,93763975842782E-13;
9,94354641048459E-13;
8,85129311837818E-13;
-3,02511113607225E-13;
-2,06127028924527E-13;
6,69739809863669E-13;
5,81351091744327E-13;
1,7764735340932E-13;
3,01032710332542E-13;
1,3322606838201E-13;
1,5686980561892E-13;
-1,67099950529495E-13;
-1,43332937124686E-14;
-2,26678439687627E-13;
-1,26081537359664E-12;
-5,89284585513001E-13;
1,06138402922253E-13;
4,43827527094149E-13;
4,52993268035692E-13;
1,5668053108659E-13;
4,62951595400275E-13;
-3,70541320480158E-14;
1,77267465249384E-13;
2,70039087510609E-13;
-2,55219275016108E-13;
4,20984090658342E-13;
-5,46116110987859E-14;
-1,6292855793765E-13;
6,48722154947566E-13;
1,2813596328415E-13;
2,34868904133337E-13;
4,21140338751006E-14;
-4,78250723704253E-13;
5,84335358184555E-14;
-2,50463655060248E-13;
8,44505696467973E-14;
6,39745387895927E-13;
-3,11976168326377E-13;
-8,7377968712315E-16;
1,90329421952427E-13;
6,91933038102563E-14;
1,18165901234365E-12;
7,91420559732856E-13;
5,94252773676095E-13;
6,62880493462041E-13;
-1,17270077120786E-14;
5,27469293391277E-13;
1,35353157477967E-13;
9,7031374852483E-14;
8,027616031485E-13;
-2,18742541089561E-13;
1,66427343011316E-14;
9,19535745457478E-14;
-6,05122634768124E-13;
6,51423968283943E-13;
5,83787399933225E-13;
2,85629403376447E-13;
9,29379051447228E-13;
1,02817445438356E-12;
1,1226771318816E-12;
4,66961313345187E-13;
4,65145162059801E-13;
1,87609232422179E-13;
2,9209705970051E-13;
1,03967135595369E-12;
3,67728690941874E-13;
5,34096167786194E-13;
5,93079332618403E-13;
7,76570748809952E-13;
1,28771149931559E-12;
4,01954125570687E-13;
-3,69943016355627E-13;
-3,74788177201008E-13;
2,01634429930129E-13;
-1,11294689154208E-13;
-2,23092007477894E-13;
5,88778658933319E-13;
8,24521535661286E-13;
7,82408028918151E-13;
3,895313403187E-14;
1,00958395020344E-13;
8,0427174509874E-13;
8,4060723646797E-13;
2,73266409494643E-13;
1,93839637817471E-13;
1,22842318814852E-12;
5,39213045072539E-13;
2,02172645597592E-14;
8,22488210615413E-13;
1,09113131429955E-12;
5,75234359832958E-13;
-6,24471439376991E-13;
-3,26227486257818E-13;
1,53056150279047E-13;
1,28057138211906E-13;
5,02034858404981E-13;
4,88855285419382E-13;
7,66611866995307E-13;
5,69523944447838E-13;
2,88510224329444E-13;
8,03336615116151E-13;
8,63482102699256E-13;
4,42820181319343E-13;
4,06661971994666E-13;
8,05060566368781E-13;
-1,01483390812194E-13;
-7,69436860363681E-13;
7,5988986995822E-13;
1,05170379731939E-12;
4,4635916493565E-13;
-1,71854079205956E-13;
-9,21611147437974E-13;
-6,43367905322465E-14;
-7,82537879459203E-15;
-1,4754988091245E-14;
7,78364611964608E-13;
2,20960338460324E-13;
1,53707562702767E-13;
7,14236371873643E-13;
-1,18442965648828E-13;
-3,50627981990168E-13;
9,36591379883328E-13;
4,43914642640389E-13;
1,5422210564311E-13;
8,78937153862063E-13;
1,64071374246625E-13;
7,70471437633301E-13;
1,34034462749467E-12;
2,68626750825758E-13;
4,86570937088556E-13;
7,70344461741281E-13;
5,58601605772151E-14;
5,38614919097743E-13;
1,12241643344907E-12;
7,08881227941982E-14;
-4,7487010123324E-14;
4,32595879513183E-13;
7,00355828949353E-14;
4,28748355526874E-13;
5,32045461429876E-13;
5,3911344308332E-13;
9,23086301800069E-13;
8,88890209461051E-13;
7,43549407133025E-13;
1,77529643226857E-13;
2,18866965351851E-13;
4,56245709198583E-13;
4,84349101937486E-13;
1,17850259267495E-12;
6,56860119545346E-13;
-6,04278982229443E-13;
-2,52138591403939E-13;
4,04941710400595E-13;
1,61198424381554E-13;
6,75085350027127E-14;
1,54379392905775E-13;
2,70121207676281E-13;
4,51793084664272E-13;
1,54610031172252E-13;
-3,08318740666316E-13;
3,00388371965003E-13;
8,68154171959965E-13;
1,48787456989188E-14;
2,71559314976084E-13;
4,23873310890076E-13;
2,51282798723728E-14;
8,17920293120425E-13;
-1,79433791450086E-13;
-4,58129399519223E-13;
9,13193438855387E-13;
3,35608922238843E-13;
-2,50531771638934E-13;
1,6210130921669E-13;
2,4032771039211E-13;
4,34466598532233E-14;
5,89795568069274E-13;
7,87304726578803E-13;
-2,30073978424245E-13;
-4,13837632891207E-13;
2,7225162915439E-13;
4,73794744201091E-13;
3,98830615541401E-13;
6,95893908917105E-13;
1,14281645031676E-12;
7,87661706566729E-13;
-1,35134239521886E-13;
1,23707174694236E-13;
7,04430990610484E-13;
-7,5789459000274E-14;
-6,39636639693663E-14;
7,09553210275695E-13;
7,49762658696778E-15;
-4,41483520373162E-13;
5,47612950612238E-13;
9,78260594286906E-13;
3,04411769461599E-13;
-4,06534250553319E-14;
3,96689799789238E-16;
1,31945160206937E-13;
3,43056237875077E-13;
-1,36449853675322E-13;
4,31123248933431E-13;
1,48103374743523E-12;
-5,03074179018E-14;
-2,46933140623863E-13;
1,11359892476129E-12;
2,59689258893006E-14;
3,30117697132868E-13;
1,04753019642626E-12;
-2,36775100772387E-13;
3,09170632445151E-13;
7,85140165546045E-13;
4,15603950209115E-13;
6,50868032148866E-13;
6,55708122474003E-14;
-1,37538711612077E-13;
-8,71645920935666E-14;
2,2085419395143E-14;
4,42693825415556E-13;
3,60624519195458E-13;
7,33367222038253E-13;
7,15811963398846E-13;
8,13265337979269E-13;
1,05649594407853E-12;
5,43091513310223E-13;
8,72874304626842E-13;
2,2657031416493E-13;
-1,34617913231668E-13;
1,04079973974357E-12;
6,70633448356519E-13;
1,63107035495932E-13;
3,48854059683856E-13;
3,18014680304636E-13;
1,21978150550378E-13;
2,32298118184322E-13;
4,32134438477205E-13;
6,04490743803948E-13;
1,10931926035398E-12;
4,80551868917162E-13;
1,80755768357862E-13;
3,48517662026948E-13;
1,22281514098935E-13;
2,1847254060693E-13;
3,45799991456035E-13;
1,14327809700545E-12;
4,42722603953653E-13;
-2,58665085677088E-13;
7,61007316932545E-13;
4,56247519210247E-13;
2,08094830380872E-13;
8,17834586263844E-13;
8,69847247813707E-13;
1,21474067403759E-13;
-7,69108523112837E-13;
-6,42815676693232E-13;
1,71169062227057E-13;
7,00306453537976E-13;
1,85498591562203E-13;
-3,5369311679085E-13;
5,20227809251086E-13;
1,33188127249628E-12;
1,28652811312052E-12;
1,31375832965302E-12;
7,90300945042824E-13;
1,68330388509325E-13;
3,32891789399761E-13;
-2,96288968319593E-15;
-1,57354876503784E-13;
7,09429533117018E-14;
3,9848961154843E-13;
1,1292964085544E-12;
5,28848806636175E-13;
6,84572181439235E-14;
3,45068046258174E-13;
3,15237094446757E-13;
-8,20582080785484E-14;
-1,78790467003161E-13;
7,89130576134099E-13;
4,83509831001912E-13;
3,9313772630467E-13;
8,956956081165E-13;
8,34060907868482E-13;
8,7347128043177E-13;
8,50845443068644E-14;
5,21101503847415E-13;
1,22352381283553E-12;
6,61081985777569E-13;
6,00664290665844E-13;
3,97578587108362E-13;
8,84985673116798E-14;
4,06267580310123E-13;
9,35801858064756E-13;
7,02628236314428E-13;
-5,19632334707344E-13;
-4,13675389363962E-13;
8,92238249525552E-13;
7,33153540517925E-13;
-7,79887724065792E-14;
3,86681369862364E-14;
2,88421375659506E-13;
-1,1854794844195E-13;
-1,09169717804368E-13;
-1,15080476806703E-13;
1,75585826234217E-14;
4,79996277666618E-13;
-2,20060580937078E-13;
3,09742082191668E-13;
1,07443226352776E-12;
6,65323773198014E-13;
1,22608030605632E-12;
1,12315279262175E-12;
1,56465990084149E-13;
4,80495016549747E-13;
1,00532102227707E-12;
3,89339987262831E-14;
3,70403242746413E-13;
9,75431763395335E-13;
9,71140701910778E-14;
7,34587828106079E-13;
2,64744218463035E-13;
-6,63592078924188E-13;
5,05986523934287E-13;
6,12303741060649E-13;
9,60923935819693E-14;
2,77652974987471E-13;
4,65225744429477E-13;
4,16028073830627E-13;
4,38449312879017E-13;
8,53763529027015E-13;
7,4108641141693E-13;
-6,95249778635586E-15;
1,91595783257027E-13;
4,25190274557241E-13;
4,94599809295496E-13;
8,11319393092739E-13;
-5,05203564433985E-14;
5,79500393377561E-14;
1,4922917908731E-13;
-3,67265237600267E-13;
6,61313641582563E-13;
2,67147048773056E-13;
-3,73464082696585E-13;
7,31573158336893E-13;
3,68575631569243E-13;
-8,14869086280264E-14;
9,50292646525919E-13;
7,19985045166783E-13;
3,7930579563303E-13;
8,71550711307701E-13;
9,0384164723672E-13;
9,77298486875707E-13;
9,72949975585435E-13;
5,0827670398053E-13;
4,25032824690777E-13;
5,2004333255667E-13;
-2,96011333897499E-13;
1,21375663404296E-13;
9,88639562473484E-13;
6,73147450995068E-13;
1,03749304422109E-12;
1,42785155776114E-13;
-1,26411607488964E-12;
-4,89392253998239E-13;
6,36325525261186E-13;
1,31190591636938E-12;
1,07502955809343E-12;
4,56064560028546E-13;
7,01980967073438E-13;
1,03852232223625E-12;
9,83265282744069E-13;
-1,30001579443946E-13;
-6,02060988316045E-13;
1,70478506902561E-13;
5,9544612415331E-13;
1,11692895120044E-12;
1,11454410599838E-12;
8,35003218147613E-13;
1,32793465298263E-13;
-7,06087015235262E-14;
8,81638783483063E-13;
8,40927844141612E-14;
-2,96504921163561E-14;
1,18612696051134E-12;
6,26741995762055E-13;
3,13716307468686E-13;
1,07085991267891E-12;
1,33768977832457E-12;
5,84989982713776E-13;
3,29919593256742E-13;
6,47097437798017E-13;
5,34765638638301E-13;
6,78703219242309E-13;
4,81470251471779E-13;
6,0269264259924E-13;
5,95665342961643E-13;
3,37555621717155E-13;
8,0728700109105E-13;
7,10956602245E-13;
2,93492156162319E-13;
1,27316548632224E-13;
3,26037179990967E-13;
1,60256191556543E-13;
-2,41809372946033E-13;
2,22342835316358E-13;
7,28600261211917E-13;
6,8509659494559E-13;
5,9844443474791E-13;
2,76196908749106E-13;
6,02329728645626E-14;
8,79056545978107E-13;
5,80963762700388E-13;
2,79982062278984E-13;
1,26314173489431E-12;
7,47271983788882E-13;
4,23327570854555E-13;
4,51664366265357E-13;
-5,6728444039868E-13;
-5,96721231049021E-13;
2,5040309625598E-13;
3,24129674192596E-13;
9,35415309468739E-14;
4,45286777620229E-13;
5,53773605114271E-13;
5,53091610404466E-13;
4,74387820447874E-13;
3,63009398472635E-14;
4,4127173809425E-13;
7,23904885913664E-13;
8,21238949643461E-13;
9,49408982909999E-13;
1,40488274537607E-13;
1,50513894380223E-14;
8,81143195253834E-14;
4,6314395861187E-14;
4,46008724583919E-13;
3,75607866122658E-13;
4,12235254114157E-13;
6,07866332197485E-14;
2,22751961209597E-13;
1,29382548115427E-12;
9,61694051440832E-13;
7,35316433334904E-13;
6,3956230415662E-13;
-4,64639958868079E-13;
1,15202671530592E-14;
8,58373667254719E-13;
5,24430593287368E-13;
2,77977609346067E-13;
7,98009524719364E-13;
1,14591185902797E-12;
2,60469771234538E-13;
5,8556775592146E-13;
7,80707972381217E-13;
6,13910094319543E-13;
7,00567937232785E-13;
-7,21225666862345E-13;
7,25011872118224E-14;
8,2508858966885E-13;
5,95642637202131E-13;
1,26767908669866E-12;
-1,73912851138572E-13;
1,03342687065657E-13;
8,19357406883657E-13;
-3,64102358902408E-13;
6,15910339489243E-13;
5,62690119581755E-13;
-3,50544307427922E-13;
3,77183612386091E-13;
7,77242203142354E-13;
1,12634155442798E-12;
4,47102437332056E-13;
-5,40095123688705E-14;
2,34559817574068E-13;
-4,07985397187856E-13;
7,75965596672432E-16;
-7,0778685298874E-14;
-1,03814913999822E-13;
1,02396379387578E-12;
4,08172734374403E-13;
2,3465830155188E-13;
3,01585164394112E-13;
7,56180413182884E-14;
1,04392873453124E-12;
1,04088948095375E-12;
4,90666570092179E-13;
4,12604533996556E-14;
7,48011361109636E-14;
5,96530679240329E-13;
-4,16882917475416E-15;
1,63729653768798E-13;
7,37172554776007E-13;
2,64977139741392E-13;
4,99126985349877E-13;
6,4317320196824E-13;
6,36017424836301E-14;
3,45937220901635E-13;
9,64165792412553E-13;
7,1238742949504E-13;
3,97743918731743E-13;
6,20098303645347E-13;
6,88631976048474E-13;
-3,29856453763243E-14;
2,09050232039114E-13;
1,16074970772601E-12;
4,45126742641704E-13;
5,25083755796269E-13;
8,71930728613865E-13;
3,94520059181237E-13;
1,13951099608492E-12;
9,50448646849889E-13;
3,08935895217093E-13;
-4,51499406307064E-14;
-3,45361133641105E-13;
7,46933770393857E-13;
6,72002873832825E-13;
9,73783088429187E-14;
3,30422502136214E-13;
-4,73136054128361E-13;
-6,70401768261762E-13;
3,62657031046433E-14;
3,39322981768175E-13;
9,22434688363682E-14;
-5,3261482310154E-13;
4,70858782393617E-13;
1,5403305210696E-12;
5,22065097832355E-13;
2,02487548471515E-13;
1,46476727379119E-13;
-1,74357672328227E-13;
6,70805781155324E-13;
6,06930972031003E-13;
2,729951167163E-13;
3,17829707733259E-13;
8,59993349966894E-14;
7,52118484740476E-13;
2,46219734897634E-13;
1,47160865576001E-14;
1,26882774853664E-12;
2,89728796030801E-13;
-5,81123965674525E-13;
1,14721600013866E-13;
3,63044541091221E-13;
3,92158861649497E-13;
2,79990649589997E-13;
4,72804795798709E-13;
5,82472539585883E-13;
2,57015940951298E-13;
-3,02324943733525E-13;
-3,07794860567223E-13;
6,08056288790003E-13;
7,22928831503064E-13;
5,87222542263973E-13;
4,02864375944311E-13;
-3,42321404012898E-13;
-7,14569890499341E-14;
4,10608395600393E-13;
6,92902185179471E-13;
9,52718591400552E-13;
1,59515055920302E-13;
-2,73517474071158E-13;
5,0551487442915E-13;
1,21938282555148E-12;
6,8052823039219E-13;
9,01429199854168E-14;
2,52552875630687E-13;
-3,23421833662739E-13;
-4,14726921427422E-13;
5,98893647398626E-13;
8,96307211698325E-13;
5,47674795113959E-13;
-7,05676689140048E-14;
-3,16180537806756E-13;
6,46688524552326E-13;
4,27390303209663E-13;
-1,90291780637271E-13;
6,49930734727188E-13;
1,72352498268634E-13;
3,79421864254798E-13;
1,6754086209431E-12;
7,71724275642513E-13;
4,75395676562591E-13;
1,08779768211856E-12;
2,18314079724887E-13;
-1,26706491416412E-13;
7,9642896390536E-13;
9,48479608493468E-13;
3,73913725417439E-13;
7,38729168709729E-13;
1,06027662198623E-12;
3,57023630368409E-13;
1,73648397336718E-13;
2,67371208743773E-13;
3,10833574590681E-13;
9,72568299916504E-13;
5,75677429777262E-13;
-5,84911324586294E-13;
2,07595188341598E-13;
1,06572612418192E-12;
2,77195201269619E-13;
2,17290784673098E-13;
5,65841920963182E-13;
-3,22895332740548E-15;
-2,35091709856544E-13;
-1,08661023695413E-13;
-2,97388899204842E-13;
2,53048844767287E-13;
8,84377201940422E-13;
8,73082798823602E-13;
3,67997763134721E-13;
6,96492549902631E-14;
1,33939698475612E-12;
1,28330148788843E-12;
-2,05915091362777E-13;
-3,57796917030907E-13;
-2,42687852151324E-13;
-1,24195465456748E-13;
5,04572451926216E-13;
2,22609213880234E-13;
-6,37494478608225E-13;
6,88634710850977E-13;
1,58530767533842E-12;
4,18922292560468E-13;
4,23707274734237E-13;
5,00262321321084E-13;
1,99887102157159E-13;
9,83111249026879E-13;
9,61260596167321E-13;
-7,91815755162107E-14;
-3,92705369657239E-13;
-1,57801079499922E-13;
2,45674567015938E-13;
3,67942124952271E-13;
9,00988620818662E-13;
1,15937508628584E-12;
3,66450767976542E-13;
7,94563243640117E-13;
3,94874886474256E-13;
-5,43097418533019E-13;
8,5870471133234E-13;
1,40012243586341E-12;
5,64206290393489E-13;
2,1328289057395E-13;
7,26541827660737E-13;
5,66563614347744E-13;
-3,24304102918953E-13;
9,72491699912373E-13;
1,3345919021469E-12;
-1,58832552214215E-14;
5,28066044232199E-14;
7,08167459911319E-13;
2,19262713010436E-13;
-9,35771447050229E-13;
1,77158565058223E-14;
7,03897008631132E-13;
1,7136093586548E-13;
5,81630430972506E-13;
1,64114338065964E-13;
-7,61215855779491E-14;
3,92533400803003E-13;
2,03716608072532E-13;
3,72475474778538E-15;
1,80000070815696E-13;
3,74602163319941E-13;
-6,14577604364418E-15;
1,94660812186247E-13;
7,85867586831154E-13;
2,09825676770383E-13;
5,98826068636735E-13;
8,04737046788178E-13;
-2,730086690668E-13;
4,67823404740661E-13;
6,54257366095808E-13;
4,06272895113374E-13;
1,01549687412013E-12;
7,65407577542672E-14;
-4,32594016520618E-14;
6,70212161844961E-13;
7,05566438033211E-13;
5,18948570713436E-13;
-2,928220230043E-13;
-8,56735973505797E-16;
9,89684759706531E-13;
8,15543663727453E-13;
1,86956094987642E-13;
1,35585900751567E-13;
2,90630463043857E-13;
5,28918593374452E-13;
9,24331111184104E-13;
3,93410603321646E-13;
-7,56117407467774E-14;
1,87960854564265E-13;
2,55390665393743E-13;
6,04132789121037E-13;
7,01634957096702E-13;
-1,41170181223536E-14;
-1,16952470342071E-14;
4,06113244056584E-13;
3,66676649797587E-13;
2,8147303384489E-13;
3,71897477380016E-13;
9,48382566884463E-13;
1,23076040857884E-12;
5,32805441779361E-13;
-1,37300495515095E-13;
1,78077516881598E-13;
-7,93193644649969E-15;
6,56910858747641E-14;
4,35628615399413E-13;
2,43842878480973E-13;
1,56396190972382E-12;
8,83554514543491E-13;
-4,98235301521078E-13;
4,31737108079082E-13;
-3,01250839458751E-14;
2,16391324924333E-13;
9,71534521311981E-13;
2,15800030625022E-14;
-2,98327976132323E-13;
3,32630723614286E-13;
1,25563377632945E-12;
8,34278379471594E-13;
2,43675224237286E-13;
9,16180318907458E-13;
1,57469078190663E-13;
-3,19557473191128E-13;
6,3926798554753E-13;
5,68291081791115E-13;
-7,11157633115815E-14;
9,80046516244747E-14;
9,04992508423997E-13;
1,36311086100456E-12;
1,0074840357444E-12;
3,98983803164236E-13;
-3,58239949557192E-14;
-7,98187028323009E-14;
2,43858489064958E-13;
-2,1815661944191E-14;
-3,3934971291461E-13;
-1,43774599229088E-13;
1,71225475877872E-13;
3,92036619646478E-14;
2,07788057969919E-13;
8,79610926069742E-13;
3,7292240423746E-13;
8,31117215205297E-13;
1,3104964574362E-12;
1,27319644350804E-13;
-1,09579383136501E-13;
4,00371018494295E-13;
3,46226800099461E-13;
2,23631780944698E-13;
9,30308134977997E-13;
4,38583724712815E-13;
4,24176905272529E-13;
1,09393606377396E-12;
-1,44538085841434E-13;
1,54333315302643E-13;
5,55947830117444E-13;
6,45485240977128E-13;
1,00565301882078E-12;
-3,17750043736015E-13;
1,05466503709146E-13;
9,38358958440988E-13;
6,95537208609429E-13;
9,30720430359392E-13;
4,03059676271961E-13;
1,10142655045134E-13;
-2,49147440904524E-13;
-2,29322277317407E-13;
2,91171113358367E-13;
-4,07048216936003E-13;
5,37773150970869E-13;
1,41384267846147E-12;
1,68534645507613E-13;
3,95553137014827E-13;
4,71733095899461E-13;
-2,75990020701977E-13;
2,67290434462383E-13;
3,60008613830248E-13;
3,22758969214705E-13;
6,25937312510165E-13;
3,18864690076703E-13;
6,25040339775456E-13;
6,96586426027699E-13;
4,24492109182765E-13;
4,6724531467627E-13;
-4,40589522371953E-13;
-4,4658295662577E-13;
9,24458467523882E-13;
9,33738957215945E-13;
2,97378785204568E-13;
1,21959799059119E-13;
-9,31492770387511E-14;
5,81370174652811E-13;
1,09999162652631E-12;
4,05065625537493E-13;
6,48626461805515E-13;
9,74793748336753E-13;
-5,46219417550426E-15;
7,84571402526712E-13;
1,67935975115385E-12;
4,11147954328689E-13;
4,44219557872276E-13;
4,9393729063932E-13;
1,98280444658267E-13;
3,8245195850862E-13;
-2,1357617116087E-13;
3,71072832039182E-13;
3,48666363485012E-13;
-4,68041336589763E-13;
5,20341804069634E-14;
3,5743673721337E-13;
1,73422910633227E-13;
-1,13205336612343E-13;
6,00287192697528E-13;
9,04154728811708E-13;
3,45812006211815E-13;
3,9497249059745E-13;
2,64868008939042E-14;
6,19287077504694E-13;
1,07813683229667E-12;
4,25128545706198E-13;
