-6,69277104002636E-11;
-3,69159414707899E-11;
-6,20520899450115E-12;
1,67073163359557E-11;
3,1490730438542E-11;
3,92340558337863E-11;
4,44766073798201E-11;
4,9066167310522E-11;
5,17149398351071E-11;
5,11420087469715E-11;
4,57601430060583E-11;
3,7463567532364E-11;
2,81728748887634E-11;
1,7723689013381E-11;
6,69290260614465E-12;
-5,37290072198278E-12;
-1,98037844932331E-11;
-3,67960196321233E-11;
-5,49966408385475E-11;
-6,91476674132256E-11;
-7,3603874472514E-11;
-6,56707051521702E-11;
-4,59709176935717E-11;
-2,00462837423288E-11;
5,12264108980079E-12;
2,38760079362476E-11;
3,387773647217E-11;
3,85292944962635E-11;
4,25154707830601E-11;
4,65001114712197E-11;
4,86718545826559E-11;
4,70243008753731E-11;
4,01926629369156E-11;
2,98409516629241E-11;
1,96794413466236E-11;
1,24122263961948E-11;
6,50917919118825E-12;
-5,15109183929071E-12;
-2,64357635506847E-11;
-5,33545464352002E-11;
-7,77332178617293E-11;
-8,81478550311803E-11;
-7,72531123848464E-11;
-4,98584798642498E-11;
-1,68686238659991E-11;
1,05383933611075E-11;
2,48644660740414E-11;
3,01005522050269E-11;
3,36876064365473E-11;
4,05820643683781E-11;
5,08605146982623E-11;
5,55410010270128E-11;
4,99242787344755E-11;
3,85717063404904E-11;
2,88499639284927E-11;
2,5832824897457E-11;
2,72298167290921E-11;
2,23898475289681E-11;
-2,80138135228663E-13;
-3,9993867399653E-11;
-8,16402790773139E-11;
-1,05935265641027E-10;
-1,02523071434239E-10;
-7,41061908441872E-11;
-3,40313959559065E-11;
-4,0861316583955E-13;
1,71699989171993E-11;
2,21313018170352E-11;
2,65989647718446E-11;
3,81794766717623E-11;
5,18452562725799E-11;
5,97733165602432E-11;
5,70881983853278E-11;
4,61106721094303E-11;
3,73620998738309E-11;
3,81348172687149E-11;
4,45140425248688E-11;
4,32066621115693E-11;
1,93959096096944E-11;
-2,82603569190111E-11;
-8,26690975959964E-11;
-1,19893464407506E-10;
-1,23126666437683E-10;
-9,35029355285302E-11;
-4,84680176403256E-11;
-1,06044235390186E-11;
8,66543391977402E-12;
1,52189074528339E-11;
2,10327199939029E-11;
3,41273310771199E-11;
5,18003157082457E-11;
6,31169236526886E-11;
6,19600893535185E-11;
5,23504039653962E-11;
4,41273145959894E-11;
4,69541071297752E-11;
5,81540549984019E-11;
6,06400980463528E-11;
3,69102029464942E-11;
-1,67811446180472E-11;
-8,2326314005883E-11;
-1,29547936402456E-10;
-1,37531447808826E-10;
-1,08056632852608E-10;
-5,99292606854719E-11;
-1,77732841221947E-11;
3,16611008770448E-12;
9,5250731842729E-12;
1,53790275611224E-11;
2,9407187685196E-11;
4,99417859843546E-11;
6,50777537416802E-11;
6,60310125930532E-11;
5,60275953408801E-11;
4,85787489345868E-11;
5,40958299380574E-11;
6,91718302533252E-11;
7,49014389833111E-11;
4,99018765523271E-11;
-8,0437892636026E-12;
-8,03881456691462E-11;
-1,35741246768767E-10;
-1,48268556202294E-10;
-1,19275857134919E-10;
-6,9283512418362E-11;
-2,48746363661601E-11;
-2,56838481975782E-12;
4,13161628171483E-12;
9,66499432963312E-12;
2,49859594860847E-11;
4,90391762628144E-11;
6,67778448432638E-11;
6,70555547476856E-11;
5,70232622998248E-11;
5,19742660849193E-11;
5,9101286039778E-11;
7,71954725024471E-11;
8,6214958232081E-11;
6,07147022677534E-11;
1,77275764694617E-15;
-7,73924000665144E-11;
-1,38705369515698E-10;
-1,547214570317E-10;
-1,26301214872333E-10;
-7,51644618263879E-11;
-2,90905542251979E-11;
-6,76634783217217E-12;
-1,93728666665856E-12;
4,39025457613578E-12;
2,2092290316479E-11;
4,69208999430638E-11;
6,5734707906669E-11;
6,83473343899679E-11;
5,92500833527551E-11;
5,35283532385905E-11;
6,32497850413123E-11;
8,39644615565893E-11;
9,35447078179768E-11;
6,97243827629106E-11;
7,42149307330091E-12;
-7,4337935766731E-11;
-1,39177196842819E-10;
-1,58155986994429E-10;
-1,30117050400502E-10;
-7,84657854299074E-11;
-3,34096115747897E-11;
-1,05094324433444E-11;
-4,41258694718738E-12;
9,56683820673539E-13;
1,81071301154098E-11;
4,40127403197783E-11;
6,40935392369224E-11;
6,75888070018373E-11;
5,8829528157877E-11;
5,39449868496351E-11;
6,526783436173E-11;
8,69987379793524E-11;
9,81254729162937E-11;
7,55432896885036E-11;
1,1559409293797E-11;
-7,15130209104704E-11;
-1,37739490550947E-10;
-1,58975726285253E-10;
-1,31890247386113E-10;
-8,12941107767312E-11;
-3,61506946486801E-11;
-1,33527251886436E-11;
-8,33886799965425E-12;
-2,76305997216597E-12;
1,5080462492528E-11;
4,17510611336495E-11;
6,28407685867686E-11;
6,72674848071965E-11;
5,85243165562345E-11;
5,35166946158459E-11;
6,56856634675845E-11;
8,91457126585173E-11;
1,00956563646528E-10;
7,925293841735E-11;
1,70550805016635E-11;
-6,67777318186561E-11;
-1,33513524754239E-10;
-1,56146906077992E-10;
-1,31412093697891E-10;
-8,16580344482718E-11;
-3,84428084517965E-11;
-1,56477683903574E-11;
-1,05647084785575E-11;
-5,89258183936637E-12;
1,24818349908333E-11;
3,86829168145672E-11;
5,92789247937118E-11;
6,41989268472685E-11;
5,71269870174075E-11;
5,35153892396973E-11;
6,53223916979111E-11;
8,94965140246881E-11;
1,03163609202423E-10;
8,13816685411181E-11;
2,02200499374707E-11;
-6,1266557267773E-11;
-1,29064327991557E-10;
-1,52541609566441E-10;
-1,28962780502229E-10;
-8,18607024589715E-11;
-3,92788587455557E-11;
-1,75720422050426E-11;
-1,26681792725224E-11;
-7,17190705977028E-12;
1,00943366941389E-11;
3,556556967494E-11;
5,64778416070661E-11;
6,16837443186319E-11;
5,43744514798075E-11;
5,13785878658166E-11;
6,44619345982542E-11;
8,79684701171371E-11;
1,02031422096585E-10;
8,22366892379065E-11;
2,19058038067556E-11;
-5,74020527433913E-11;
-1,22672245088984E-10;
-1,46398898047126E-10;
-1,25606082629146E-10;
-8,04900537762292E-11;
-3,84127694631515E-11;
-1,87653025049529E-11;
-1,41521575496684E-11;
-8,4837123906345E-12;
6,80297551482674E-12;
3,21343255556782E-11;
5,28070798130728E-11;
5,82260969355585E-11;
5,26104184052484E-11;
4,91699924355715E-11;
6,21917460540036E-11;
8,67350387149631E-11;
1,00439574626986E-10;
8,18307830336026E-11;
2,45074165061046E-11;
-5,27091386236185E-11;
-1,15982713120216E-10;
-1,39733905674428E-10;
-1,20869972901424E-10;
-7,75840641919129E-11;
-3,80646211901439E-11;
-1,93707417547687E-11;
-1,53359236735616E-11;
-1,04009544604206E-11;
4,98133161578489E-12;
2,95435452434722E-11;
5,07600375045644E-11;
5,60251563600049E-11;
4,94608658744246E-11;
4,71652815591154E-11;
6,00168698378439E-11;
8,40067262923125E-11;
9,79571770375691E-11;
7,99636110003198E-11;
2,58964151264307E-11;
-4,80424179072456E-11;
-1,09246879003988E-10;
-1,32255753041115E-10;
-1,15470736240155E-10;
-7,43833842771966E-11;
-3,75524540903149E-11;
-2,05228012403256E-11;
-1,58431135326407E-11;
-1,21097450303313E-11;
2,65293408200873E-12;
2,63722040299883E-11;
4,46412759399949E-11;
5,04600266392873E-11;
4,5767800449095E-11;
4,38351509123339E-11;
5,70090798770376E-11;
7,96562747041278E-11;
9,29230222529495E-11;
7,74452959200078E-11;
2,72536483691286E-11;
-4,29295230730874E-11;
-1,01552005124778E-10;
-1,23404177811302E-10;
-1,0784933084347E-10;
-7,08336820821901E-11;
-3,62341499101245E-11;
-1,97389824185782E-11;
-1,62452206924474E-11;
-1,16943938856528E-11;
2,63693826766947E-12;
2,40819516065344E-11;
4,15357568387151E-11;
4,70002744164694E-11;
4,3574946416633E-11;
4,18790904314989E-11;
5,26557490975096E-11;
7,46155013340718E-11;
8,84061490540547E-11;
7,46147271174222E-11;
2,75673004539638E-11;
-3,8738503832314E-11;
-9,3664521215427E-11;
-1,15341317231735E-10;
-1,01251953407001E-10;
-6,67337359548769E-11;
-3,52861364986155E-11;
-1,86162626193416E-11;
-1,55052900499739E-11;
-1,33056923371734E-11;
9,68779990904527E-14;
2,11936633101765E-11;
3,87204709027221E-11;
4,34867694095152E-11;
3,90687251887274E-11;
3,87689993350069E-11;
5,02672412539401E-11;
7,00676765035465E-11;
8,34266899828871E-11;
7,09641411263964E-11;
2,68467511431868E-11;
-3,28205037038406E-11;
-8,43844004500383E-11;
-1,06072609903578E-10;
-9,30247410835993E-11;
-6,26554078484242E-11;
-3,37733985995073E-11;
-1,89946505219939E-11;
-1,68112809153559E-11;
-1,31156677685749E-11;
-7,95898414766036E-13;
1,79059127495253E-11;
3,42421238959511E-11;
3,96337073618063E-11;
3,66794774000384E-11;
3,59014876174318E-11;
4,61917691079647E-11;
6,55906828519185E-11;
7,80566114286795E-11;
6,66610464420735E-11;
2,74907578560155E-11;
-2,88107894060739E-11;
-7,71503209801943E-11;
-9,65716455821172E-11;
-8,57878168480331E-11;
-5,73327794431952E-11;
-3,1616865215099E-11;
-1,89173437013822E-11;
-1,58801276530437E-11;
-1,28485875190191E-11;
-1,49566640120854E-12;
1,57119733178376E-11;
3,05579179259768E-11;
3,55290293826987E-11;
3,33246387635415E-11;
3,28790907288693E-11;
4,22711372511052E-11;
6,05741406305705E-11;
7,20155417679108E-11;
6,20292630302359E-11;
2,54997471122377E-11;
-2,52728603799845E-11;
-6,79021351065236E-11;
-8,77182519950075E-11;
-7,87869933916033E-11;
-5,27660977107805E-11;
-2,95327996327639E-11;
-1,73364085975835E-11;
-1,49646756545805E-11;
-1,30706712894284E-11;
-2,0984815777671E-12;
1,44520345207622E-11;
2,70560833889186E-11;
3,11402852759858E-11;
2,93262207200003E-11;
2,94682205794063E-11;
3,83421292760437E-11;
5,54706677027162E-11;
6,71409582876851E-11;
5,72793032026475E-11;
2,44596911797203E-11;
-2,08958851365088E-11;
-6,12563897421192E-11;
-7,90940060033589E-11;
-7,10339968856017E-11;
-4,86685488388603E-11;
-2,74931364340164E-11;
-1,6815568981651E-11;
-1,41833131817001E-11;
-1,1308773327256E-11;
-2,90341636548448E-12;
1,12798319669859E-11;
2,43856123585858E-11;
2,8575034554169E-11;
2,60440053816558E-11;
2,58887579533879E-11;
3,46623530361394E-11;
5,00656301848339E-11;
6,04091705232751E-11;
5,30054726993111E-11;
2,36193436802269E-11;
-1,82052200073639E-11;
-5,45488099296455E-11;
-7,05343064464587E-11;
-6,31172611786009E-11;
-4,32062392206865E-11;
-2,48432394826153E-11;
-1,49602578340276E-11;
-1,33679955343726E-11;
-1,23653451965794E-11;
-4,07819077456641E-12;
8,94993633853433E-12;
2,03742130240215E-11;
2,49797905489309E-11;
2,32970176987232E-11;
2,31044682999323E-11;
3,06287969418636E-11;
4,54291617282083E-11;
5,53582817477051E-11;
4,8535428189834E-11;
2,30567490184881E-11;
-1,4171870425005E-11;
-4,71186621649633E-11;
-6,25935196983422E-11;
-5,62898673514036E-11;
-3,75693179121753E-11;
-2,18533807574727E-11;
-1,37347340321156E-11;
-1,20756680966805E-11;
-1,09912342838626E-11;
-3,52381489168682E-12;
7,81439780499039E-12;
1,74575913797171E-11;
2,19370567086597E-11;
2,09822377036565E-11;
2,04695948027597E-11;
2,72058618968885E-11;
4,00666913244541E-11;
4,88386429254097E-11;
4,38115486654431E-11;
2,13163104669889E-11;
-1,18198467068587E-11;
-4,01165493160823E-11;
-5,4099951785612E-11;
-5,03577820700925E-11;
-3,42587863535707E-11;
-1,97061302347608E-11;
-1,33136013341117E-11;
-1,25622465494162E-11;
-1,0904881523049E-11;
-4,12585874929532E-12;
6,01438016954241E-12;
1,43045996356668E-11;
1,78388066301161E-11;
1,74689820008393E-11;
1,78337315300587E-11;
2,49251617024659E-11;
3,62039342951432E-11;
4,42545525127744E-11;
3,97833041679395E-11;
1,94521920923496E-11;
-8,95193548795145E-12;
-3,52339356570893E-11;
-4,73194842984593E-11;
-4,26718156666891E-11;
-3,01147723239962E-11;
-1,78987449112523E-11;
-1,18270227007274E-11;
-1,14121185273913E-11;
-1,00213887028884E-11;
-4,19561597094947E-12;
4,21026226072466E-12;
1,22462429816061E-11;
1,59616321321164E-11;
1,56672979322392E-11;
1,60756086200938E-11;
2,13075637455395E-11;
3,13502514665184E-11;
3,90524833631721E-11;
3,5628474406702E-11;
1,80723080338071E-11;
-7,06327605971161E-12;
-2,93211833318138E-11;
-3,99865506713119E-11;
-3,72961386262942E-11;
-2,67519888257211E-11;
-1,55234689462154E-11;
-1,07739020857825E-11;
-1,02571296093871E-11;
-8,59538983407024E-12;
-4,25248726607378E-12;
4,08068347391091E-12;
1,06061625158177E-11;
1,23195162709366E-11;
1,26887849193257E-11;
1,35053523330599E-11;
1,85329704560661E-11;
2,74115342785589E-11;
3,33815365297345E-11;
3,07813566222194E-11;
1,6500840332638E-11;
-4,89049607613852E-12;
-2,42101453722596E-11;
-3,44871801675278E-11;
-3,19972673379301E-11;
-2,30288367063614E-11;
-1,42254796276147E-11;
-8,78899655270667E-12;
-8,94474561490809E-12;
-8,32710218486471E-12;
-4,37273697558411E-12;
1,73690248817346E-12;
8,85476548684862E-12;
1,15234011409961E-11;
1,10306489333428E-11;
1,17867640640474E-11;
1,57857407774874E-11;
2,36370689184078E-11;
2,9250453565803E-11;
2,72125922440136E-11;
1,57667887182498E-11;
-3,48927194526002E-12;
-2,00286077365198E-11;
-2,73671391097348E-11;
-2,64055882317006E-11;
-1,94113575708695E-11;
-1,20789096382882E-11;
-8,31966957259707E-12;
-8,55266477750679E-12;
-7,82619736206543E-12;
-3,58898394581247E-12;
1,28119639152496E-12;
6,71547367909109E-12;
9,25644278147158E-12;
8,45959354602318E-12;
9,72604174572405E-12;
1,36866383646286E-11;
1,97956852875785E-11;
2,53162320323921E-11;
2,37716154761658E-11;
1,31943362318539E-11;
-1,81787842273391E-12;
-1,55001904924792E-11;
-2,33291912042004E-11;
-2,22243342801183E-11;
-1,58791239442001E-11;
-1,03172737560595E-11;
-7,40484092182486E-12;
-7,05966882897801E-12;
-6,80296478496261E-12;
-4,46444600394346E-12;
1,86876815024962E-13;
4,8507588033944E-12;
7,1223289672825E-12;
7,44593078873681E-12;
7,66345292027725E-12;
1,0893981899388E-11;
1,70337941911468E-11;
2,18997299208016E-11;
2,07291557003936E-11;
1,18889566142726E-11;
-7,98577433142697E-13;
-1,21690745055361E-11;
-1,83118506797315E-11;
-1,73307968198652E-11;
-1,32803161800312E-11;
-1,00066811666536E-11;
-6,62281460463135E-12;
-5,95663595453217E-12;
-6,79846766560545E-12;
-4,13449960242891E-12;
-1,47005439861424E-13;
3,76764042700067E-12;
5,97411563050098E-12;
5,2640503457525E-12;
6,24590931387774E-12;
9,77662743658409E-12;
1,37338784837593E-11;
1,78670894815794E-11;
1,77458763815815E-11;
1,02365284510258E-11;
2,17434655006486E-13;
-8,55902465550828E-12;
-1,3806349060582E-11;
-1,3719583078642E-11;
-1,02950684103826E-11;
-6,78176850756452E-12;
-6,10476284361635E-12;
-6,20458179754338E-12;
-5,40409671420809E-12;
-3,96834037126625E-12;
-8,18179391353529E-13;
1,50673837141267E-12;
3,04437467847138E-12;
4,61825873764442E-12;
5,34981687748626E-12;
7,91301760782579E-12;
1,16201645350653E-11;
1,40384449785578E-11;
1,4046051611162E-11;
9,93086572323617E-12;
2,88890234312151E-12;
-5,44027733444396E-12;
-1,05216053474273E-11;
-9,68040647588223E-12;
-8,04026043089208E-12;
-6,77104686465971E-12;
-4,95875004005762E-12;
-4,69407953909626E-12;
-5,17688245306743E-12;
-3,72900590838647E-12;
-7,56554657258929E-13;
1,37728808582729E-12;
2,37860071994589E-12;
2,85385059367562E-12;
3,5756161417054E-12;
5,69785521687669E-12;
8,66909012772012E-12;
1,11404859292058E-11;
1,17320948579563E-11;
9,11971682249743E-12;
3,07559969080375E-12;
-3,84743555835946E-12;
-7,88472254522411E-12;
-8,15613074514153E-12;
-5,55169920578372E-12;
-3,7775533804491E-12;
-4,73271078114138E-12;
-4,9601939343179E-12;
-4,25669295827072E-12;
-3,60147332166543E-12;
-1,8462283955116E-12;
-5,46973616322256E-14;
9,98109610258706E-13;
1,99605266389992E-12;
2,93535391389059E-12;
4,37310699429419E-12;
6,63041471719236E-12;
8,75583130481087E-12;
9,16314408476331E-12;
7,18755942084844E-12;
3,05092667324996E-12;
-1,56480025251695E-12;
-4,00068611735998E-12;
-4,94955754380498E-12;
-4,67512616508987E-12;
-3,50106852399462E-12;
-3,35821596399765E-12;
-3,61415487634399E-12;
-3,48183207038216E-12;
-2,62919056711565E-12;
-1,30048375024682E-12;
5,30686062948799E-14;
8,03624252562579E-13;
9,30146148470917E-13;
1,5873173552533E-12;
2,45872567091478E-12;
4,54322257538906E-12;
7,15819738043961E-12;
6,91934640778003E-12;
5,24795080852206E-12;
3,68266547945837E-12;
5,16313642257068E-13;
-2,14292795705911E-12;
-2,63741388907318E-12;
-3,01982288451048E-12;
-2,81485653023669E-12;
-2,45902258824847E-12;
-2,89215396903772E-12;
-3,09112594479654E-12;
-2,9980195687913E-12;
-1,71633663087524E-12;
-6,64192904956816E-13;
-4,06803456353982E-13;
8,90755167788875E-13;
8,84555001237992E-13;
5,63696660760353E-13;
2,90868205180946E-12;
4,96889925342442E-12;
5,49812574506131E-12;
5,97111726219624E-12;
4,4364585333578E-12;
1,65037887205609E-12;
5,72220579200921E-13;
-5,83893687519633E-13;
-1,28496582530362E-12;
-1,1388519878025E-12;
-2,28019160158334E-12;
-2,96430842123909E-12;
-2,11579098390572E-12;
-1,67499466725996E-12;
-2,4057950521352E-12;
-1,76684033152725E-12;
-4,16379424501625E-13;
-5,76984533944291E-13;
1,14308570275972E-13;
1,02811683701296E-12;
1,65070917379858E-12;
3,48320403698275E-12;
3,4968655878751E-12;
3,53009746267382E-12;
5,10303443089763E-12;
3,75116398735996E-12;
1,86007510117517E-12;
6,87294913442004E-13;
-4,30921131200772E-13;
-5,73200033046862E-13;
-1,50947445156171E-12;
-1,83619268206938E-12;
-1,76968016390837E-12;
-2,09164781576076E-12;
-2,08136409816913E-12;
-2,18968006993283E-12;
-1,19524444937304E-12;
-4,39428824583401E-13;
-7,68442766248285E-13;
2,44624034300543E-13;
1,5426136964765E-12;
1,79719599819939E-12;
2,54433339128746E-12;
2,92143200452719E-12;
3,38565939275046E-12;
4,37398345751309E-12;
3,49888324177828E-12;
2,33240901983093E-12;
1,10429975757606E-12;
-5,94306282552837E-13;
-1,0143510797724E-12;
-1,48777370414531E-12;
-1,78079629394075E-12;
-9,96620751254271E-13;
-1,65471679211838E-12;
-2,88654277605032E-12;
-1,87853131144939E-12;
-1,25955238684561E-12;
-1,37142087180612E-12;
-9,36324648143373E-13;
-4,47704143518917E-13;
1,05860448861086E-12;
1,57200573273219E-12;
2,41293447372443E-12;
4,62726153270223E-12;
4,72141880735592E-12;
4,48561072363894E-12;
3,50343597705451E-12;
1,11183022680092E-12;
8,45577244809596E-14;
-9,05404271746494E-13;
-8,37407631771012E-13;
-9,60594824536419E-13;
-2,80993151053623E-12;
-2,86754842615515E-12;
-2,4883000509286E-12;
-1,88603990090209E-12;
-1,04562304862023E-12;
-1,02900733553695E-12;
-1,12221224692123E-12;
-1,72826707610773E-12;
-1,2587105277726E-12;
1,55812698383937E-13;
2,4593238697838E-12;
5,14913289096548E-12;
5,85396649110494E-12;
5,5932141874849E-12;
4,42526792746114E-12;
2,20662970575708E-12;
8,24782750603522E-13;
5,15274709304762E-14;
-5,03206036198376E-13;
-4,38194726561523E-13;
-7,61186860414066E-13;
-1,53473851749261E-12;
-2,25178799644688E-12;
-2,94781855452807E-12;
-2,4292333386063E-12;
-1,34552258601405E-12;
-1,66381370348731E-12;
-1,72872139944018E-12;
-1,43342172595247E-12;
-1,44662219475867E-12;
1,25513637668727E-12;
4,75921086712023E-12;
5,85409250968476E-12;
5,96903058075112E-12;
4,37982885014458E-12;
2,3000048665819E-12;
1,78696223083779E-12;
3,31088478305594E-13;
-7,79601957107603E-13;
-3,22510485675239E-13;
-1,15427860996974E-12;
-2,04451691460995E-12;
-2,16437332145899E-12;
-2,6512738351926E-12;
-2,46297285323578E-12;
-2,21448869850369E-12;
-1,96606334756089E-12;
-2,24156466703234E-12;
-2,81184698581443E-12;
-9,18664034665464E-13;
1,13796784095437E-12;
3,44022406973438E-12;
6,64181464462721E-12;
7,14293397953669E-12;
5,87674161429887E-12;
3,23963175094263E-12;
5,76296394852314E-13;
1,53756339801043E-14;
-4,73498929375587E-13;
-7,08784245739415E-14;
2,65695165892376E-13;
-1,55276589327647E-12;
-3,13613628502656E-12;
-2,91898116779967E-12;
-2,02769292222219E-12;
-2,31969431672769E-12;
-2,46833442435955E-12;
-2,53656406275705E-12;
-3,57963775429959E-12;
-2,51543561173745E-12;
8,66652812243499E-13;
4,22867461212661E-12;
6,70096322783761E-12;
7,65491969970349E-12;
6,12272192191509E-12;
2,81422650962856E-12;
1,20992099893859E-12;
1,39421717768638E-12;
7,56421840416172E-13;
-3,24631615807821E-14;
-8,10269388388917E-13;
-2,00407667975909E-12;
-2,35814920402552E-12;
-2,27634405264029E-12;
-2,13910750020191E-12;
-2,17277305663157E-12;
-2,30839433580453E-12;
-2,53735914005859E-12;
-3,37640186408607E-12;
-2,42713581170555E-12;
2,55773610521574E-13;
3,30412213169934E-12;
6,48326922796082E-12;
7,65702544894004E-12;
6,32211176175077E-12;
3,91958248352522E-12;
1,76577323503119E-12;
3,49810825963633E-13;
1,46204463162195E-13;
-3,87223858848865E-14;
-1,29696502815907E-13;
-6,09438516150621E-13;
-2,65086282212093E-12;
-2,4630884652619E-12;
-1,88562866560222E-12;
-2,43402168305086E-12;
-1,90833110616337E-12;
-2,65549241544427E-12;
-3,87240110362268E-12;
-3,28008253376968E-12;
-1,8743871977324E-13;
3,6417128002782E-12;
5,88188470523783E-12;
7,06737350869554E-12;
5,88658361170282E-12;
3,90785308412256E-12;
2,99888514555703E-12;
1,39177210369487E-12;
6,76808988028709E-13;
4,44674939605701E-13;
-3,74769478678729E-13;
-1,02760526856037E-12;
-2,79982261242791E-12;
-3,89364574819404E-12;
-2,21458065645384E-12;
-1,2089900131837E-12;
-2,55372198791355E-12;
-3,7992961833453E-12;
-4,98038191546228E-12;
-3,65105189288792E-12;
5,70386798062109E-13;
3,68767578296559E-12;
6,65933991794803E-12;
7,41342976132063E-12;
5,26801557237337E-12;
3,78731956980421E-12;
2,14339298009581E-12;
9,0164491500405E-13;
7,49895542853614E-13;
5,66340597689636E-13;
3,51231524486841E-13;
-7,8041667661488E-13;
-2,57551553910355E-12;
-2,86689178193809E-12;
-2,08389288842566E-12;
-1,55945931224555E-12;
-2,09865539017459E-12;
-3,78403191628028E-12;
-4,42237630246453E-12;
-3,08580111828328E-12;
-2,74314862398873E-13;
2,84136640486087E-12;
6,0373084746274E-12;
7,45348789730017E-12;
5,88028280409045E-12;
4,26949550900624E-12;
2,30485288167373E-12;
9,24244491999499E-13;
9,72316719156246E-13;
5,72688987261026E-13;
-9,03165408938928E-14;
-1,01854026384278E-12;
-1,45637362224575E-12;
-1,75465130898374E-12;
-1,95446770637591E-12;
-1,42968376651894E-12;
-2,29252628712209E-12;
-3,79767784484311E-12;
-4,08685386892073E-12;
-3,58369053749193E-12;
-1,02533178073097E-12;
3,24415210971586E-12;
6,06472479299189E-12;
6,7671150987066E-12;
6,71288667450818E-12;
4,66876525261438E-12;
1,83915281228263E-12;
1,96702615196574E-12;
1,85406130487312E-12;
2,56980724316509E-13;
-6,16042637454173E-13;
-1,53171024412549E-12;
-1,49316833023453E-12;
-1,88638143326208E-12;
-2,54995750492713E-12;
-1,5378315524326E-12;
-2,34782788014984E-12;
-4,06532780096642E-12;
-4,11345237031477E-12;
-2,96272940381139E-12;
3,29466123601566E-14;
2,77032893777112E-12;
4,90956242393313E-12;
7,07572959310994E-12;
6,2151727747542E-12;
3,1723456636695E-12;
2,1157279297647E-12;
2,1048613050276E-12;
1,30115636470128E-12;
1,44425368931874E-12;
8,77412304437356E-13;
-7,54018600098767E-13;
-1,15046225994796E-12;
-1,85159420637076E-12;
-2,01689152925711E-12;
-1,34122474515465E-12;
-2,65854829934635E-12;
-3,77078317468432E-12;
-3,43547613433795E-12;
-3,22650896786686E-12;
-6,68387030480188E-13;
2,7613773811558E-12;
4,40978668947689E-12;
5,96471927998753E-12;
5,8322028069962E-12;
3,83438658512543E-12;
2,39896598925257E-12;
1,39316893610538E-12;
1,16071206116948E-12;
1,69394291891342E-12;
5,65216604429233E-13;
-1,42704546646931E-12;
-2,37529839349798E-12;
-2,45211824515853E-12;
-1,33817210526024E-12;
-1,1967842383462E-12;
-2,20464293046998E-12;
-3,22960779076208E-12;
-4,63943135264515E-12;
-3,85960058126242E-12;
-8,63907652104213E-13;
1,72713487483351E-12;
4,36846601835489E-12;
6,4709652693683E-12;
5,38450024005291E-12;
3,28910705777861E-12;
2,1446466826183E-12;
9,76913276647108E-13;
1,22642302114789E-12;
1,3023726133601E-12;
1,03561148929615E-13;
-9,11977268414129E-13;
-1,30639682868334E-12;
-4,85494305934326E-13;
-9,64008576806946E-13;
-1,58923267169191E-12;
-1,3019387889341E-12;
-2,98492560881238E-12;
-4,06175432996976E-12;
-3,3614917979535E-12;
-1,4449422861132E-12;
2,05133973209686E-12;
5,01321845638148E-12;
6,00445752451621E-12;
5,34381770397173E-12;
3,68236364857706E-12;
1,66080250213514E-12;
1,4055871667811E-12;
1,58679495674184E-12;
8,53462502705021E-13;
9,8293162544946E-13;
-3,21310510572315E-13;
-1,7140527265861E-12;
-1,61149454782229E-12;
-1,77722256380867E-12;
-8,37869765457991E-13;
-1,30283315853409E-12;
-2,94670984475796E-12;
-3,02985187710604E-12;
-2,93912242916934E-12;
-6,57586730251738E-13;
3,09792932913606E-12;
4,66211116857422E-12;
5,09045188191525E-12;
5,07326657739761E-12;
3,43249268642454E-12;
1,47917741378401E-12;
9,83178787736982E-13;
1,03816840800021E-12;
6,3600182286039E-13;
4,03899669340362E-13;
-3,46789327186238E-13;
-1,52503491887062E-12;
-1,26631102031238E-12;
-1,52405149110215E-12;
-1,71564796874182E-12;
-1,38686458046838E-12;
-3,03815037508228E-12;
-3,54072402300397E-12;
-2,25121709653099E-12;
-7,68737561229944E-13;
1,45512995256838E-12;
3,74021239353383E-12;
4,82225257884016E-12;
4,05042730649384E-12;
2,83761015644243E-12;
1,22975453268139E-12;
3,88526090949517E-13;
1,444486853767E-12;
1,20578830882769E-12;
7,48305514524623E-13;
1,19637215483934E-13;
-1,55425338981425E-12;
-5,55296686063302E-13;
-5,22251361377385E-13;
-1,81004476825656E-12;
-9,44965478248994E-13;
-1,94967043359421E-12;
-2,80305536964337E-12;
-2,06130734235913E-12;
-1,33449053966932E-12;
1,73742169782531E-12;
3,54950055471058E-12;
3,50821862421075E-12;
3,55418985154555E-12;
1,77988385505211E-12;
8,45134086112866E-13;
1,13293834519827E-12;
5,74961244536433E-13;
4,47546390531021E-13;
7,82313495656925E-13;
1,78323612312197E-13;
-3,28190843547383E-13;
-8,49534691187484E-13;
-1,61928650856643E-12;
-1,12718320613704E-12;
-1,52867996271764E-12;
-2,35056086092278E-12;
-2,50105390059641E-12;
-2,25466244865137E-12;
-2,20281997940495E-13;
1,22517261632368E-12;
2,38251731241133E-12;
3,86736267304636E-12;
3,5430155413011E-12;
2,6043498477959E-12;
1,70545768994008E-12;
1,03588233788533E-12;
9,51211396853915E-13;
1,35484057281691E-12;
1,50750848255387E-12;
1,86756746937196E-13;
-7,74994142823903E-13;
-8,91169302375672E-13;
-1,71408133645408E-12;
-1,7774490903275E-12;
-8,95355121451279E-13;
-1,33854807280005E-12;
-2,33061022625182E-12;
-1,71901410085376E-12;
-3,51802499182482E-13;
1,0152530967371E-12;
2,62137151544071E-12;
3,70074366452554E-12;
3,85283580803634E-12;
2,84688438663402E-12;
1,84939547579904E-12;
1,67376576225332E-12;
8,82956462001129E-13;
3,94815263592264E-13;
7,41536104599265E-13;
-2,46523437569195E-13;
-8,70442661446621E-13;
-1,00316519842325E-13;
-6,26559834179559E-13;
-8,03056850068301E-13;
-1,28682479615198E-13;
-1,10890238004138E-12;
-1,80477825734133E-12;
-1,43638713829824E-12;
-1,4089434534629E-12;
8,85593303668404E-14;
2,4908846562958E-12;
2,92936552451585E-12;
2,39140322224691E-12;
1,65169442728483E-12;
1,36211963780129E-12;
1,44510930467489E-12;
2,58488602973486E-13;
8,50709260141533E-14;
5,98262089593996E-13;
1,00703473769772E-13;
1,29454697518559E-13;
2,43639420989735E-14;
-3,50767636403982E-13;
-6,91531632082407E-13;
-9,46477718533556E-13;
-6,89865401121073E-13;
-1,19369131277539E-12;
-1,8061986553976E-12;
-5,81246155472907E-13;
1,14749013547085E-12;
2,10171128720092E-12;
3,29651020109194E-12;
3,42193874136639E-12;
1,70438016718791E-12;
9,82287366433091E-13;
1,3520377237294E-12;
1,37872489006853E-12;
1,59280660833841E-12;
1,16195751493112E-12;
1,92634348281762E-13;
-2,32639115836907E-13;
-1,49414779329216E-13;
1,16074598729264E-13;
-2,53068819539204E-13;
-2,82720282368174E-13;
-1,45642237897358E-12;
-2,66343445094223E-12;
-1,10607376405521E-12;
-5,56797700672583E-13;
3,8543337907263E-13;
1,84799786760973E-12;
1,80261133800737E-12;
2,50517902454166E-12;
2,06252180975194E-12;
1,23000329655912E-12;
1,47651919952802E-12;
1,41167789644975E-12;
4,56959562442585E-13;
-4,06386019279615E-13;
6,81263210104655E-13;
5,46731090355437E-13;
-5,43020540147056E-13;
-1,54145862438306E-13;
-5,14191105818997E-13;
-8,11688916132887E-13;
-1,22204296932241E-12;
-1,54082788487984E-12;
-8,11475678248982E-13;
-6,89834098798203E-13;
2,13335736808298E-13;
1,76482317598817E-12;
2,26486588218149E-12;
1,80676689748848E-12;
1,24876682151838E-12;
1,19177770915548E-12;
1,20172757283147E-12;
1,42947791796629E-12;
8,86343339032482E-13;
6,16589531459085E-13;
9,31790988226851E-13;
-4,25180548049724E-13;
-9,40304459572975E-13;
8,9191416319008E-14;
3,99780059406489E-13;
1,06126730665764E-13;
-8,75949982818173E-13;
-1,29842496001342E-12;
-5,55494536993485E-13;
-3,03198589624326E-13;
5,80798542602652E-13;
2,20481203268244E-12;
2,08192766392367E-12;
1,48985386116449E-12;
1,54263947828882E-12;
1,66041216517287E-12;
2,06724781802879E-12;
1,64868999009714E-12;
7,6028016633087E-13;
3,97120537129241E-13;
1,57158854591032E-13;
1,33776503257675E-13;
-5,76029178191516E-15;
-1,11359748168009E-13;
2,15645239561367E-13;
1,2675490139966E-13;
-5,79456025153262E-13;
-1,20179498948779E-12;
-8,16880943402988E-13;
5,48740611432752E-14;
1,64864643436449E-13;
7,97000722279274E-13;
2,09015245785498E-12;
2,3982030121787E-12;
1,58963542814102E-12;
8,54348126716979E-13;
1,10708077698727E-12;
9,17676319321505E-13;
4,15376393958048E-13;
7,74697284524695E-13;
1,35255469829111E-13;
-9,6451142187858E-14;
5,07206801071957E-13;
-9,93680918017192E-13;
-1,06096062000076E-12;
-3,48692937923848E-13;
-1,52073787952E-12;
-1,14421299738528E-12;
-4,9138248247533E-13;
-1,88724042739348E-14;
8,62203840877181E-13;
1,65725503975391E-12;
2,26049824860478E-12;
1,27449310840942E-12;
1,01582989387169E-12;
1,38934995598993E-12;
4,61509534442954E-13;
2,86552756399441E-13;
8,47165497656715E-13;
1,93684622918544E-13;
-3,38279482466413E-13;
-4,65995431947981E-13;
-8,61232354900019E-13;
-1,7187572949251E-13;
2,6228410179882E-14;
-3,85032011677219E-13;
-4,70263243679988E-14;
-3,98301853376631E-13;
-6,98138133175741E-13;
1,79524082899816E-13;
3,64500790703612E-13;
5,55353948054552E-13;
2,13283528147134E-12;
1,61406549682494E-12;
2,34950360065012E-13;
7,61290221522817E-13;
5,2143132556127E-13;
8,60312741484104E-13;
1,75122988271181E-12;
1,29056268834865E-12;
6,87414998623679E-13;
1,25444177469769E-13;
2,48247200334065E-14;
-3,44554931936122E-15;
1,99657704787024E-13;
2,85608173696024E-13;
-5,97947010149065E-13;
-1,04894560170566E-12;
-2,6856273393572E-13;
5,68404799346458E-13;
-1,51805237207206E-13;
-1,29294967113368E-13;
1,23907284648795E-12;
1,53647426683596E-12;
1,55872221470399E-12;
9,76991685814133E-13;
5,40325125925015E-13;
1,40039726238924E-12;
9,84726943552304E-13;
-2,0694452876165E-14;
8,19420470062613E-13;
1,34332893588879E-12;
2,92583437777052E-13;
2,3063206296064E-13;
5,30689733095995E-13;
-7,79176616578326E-13;
-1,12047954974429E-12;
-2,07983277679891E-13;
-5,5964244942436E-13;
-2,26826848812098E-13;
6,22852995692044E-13;
2,7799773012932E-13;
3,69019559566812E-13;
9,62676927722039E-13;
1,13130512038585E-12;
7,74599986223061E-13;
9,10985536802151E-13;
9,82573588259009E-13;
2,64884586661831E-13;
5,57441365749898E-13;
6,9000165384112E-13;
-5,6208442858076E-14;
2,50335147376193E-13;
2,77354071811224E-13;
5,28176972787324E-14;
-3,16702684543868E-14;
-4,80678034453217E-13;
-3,84286962877282E-14;
-1,2872932130686E-13;
-3,66504440753443E-13;
2,21375124338611E-13;
6,65496860330198E-13;
1,15955051081964E-12;
6,54066103550015E-13;
1,17340685787131E-13;
5,43641414499023E-13;
3,06213875032728E-13;
5,65323876706054E-13;
9,97782427200928E-13;
6,74563928336187E-15;
3,03328798942021E-14;
6,17635667119274E-13;
-5,47484599793292E-14;
2,58703692092975E-13;
3,09162389101479E-13;
-4,35405175980073E-13;
2,00584646556957E-13;
-2,7978404670898E-13;
-8,62808632614247E-13;
-2,89581154984721E-14;
3,08051355180241E-13;
9,63367186476417E-13;
1,24287858658558E-12;
4,35790471288601E-13;
3,18653084218576E-13;
8,75399952703304E-13;
7,17012705021119E-13;
6,17242559101958E-13;
7,20825759140874E-13;
-5,32360780562241E-13;
-5,90436361324716E-13;
7,36616395470792E-13;
1,37579915049663E-13;
-2,04004517251724E-14;
3,8937555928936E-13;
-2,0323017890015E-13;
4,03594414543671E-13;
5,2732485687226E-13;
-7,44943934608041E-13;
7,6077178636064E-16;
5,76036048737692E-13;
-5,20533772007289E-13;
7,0923989969043E-13;
9,99017426418556E-13;
-3,6460782585222E-14;
1,48882223882206E-12;
1,2750360156938E-12;
-1,43198846900819E-13;
2,60067070842494E-13;
2,7691530000135E-13;
-1,230233275272E-13;
2,58524238080387E-13;
7,3596769595088E-13;
5,42647650553924E-13;
7,72548944238956E-13;
2,64912575877989E-13;
-5,45279923796437E-13;
5,16098609823911E-13;
7,91065078442662E-14;
-4,11861137475773E-13;
4,08179072519022E-13;
-1,18270825376863E-13;
1,07775037012654E-12;
1,44845448716761E-12;
-2,5049677015778E-13;
3,54777214350944E-14;
-1,14683766177272E-13;
-1,5881363970633E-13;
4,7988140145129E-13;
4,02178771674599E-13;
1,01064603072158E-12;
7,61996055911707E-13;
-1,22308097331314E-13;
-7,43268006054519E-14;
1,16895054818571E-13;
4,47793624105293E-13;
3,75309560237235E-13;
3,59556327900485E-13;
4,05211292648731E-13;
-2,70844760848063E-13;
-1,3365870265228E-13;
3,32321035648676E-13;
2,98984226502453E-14;
4,04267384046985E-13;
7,39522484588128E-13;
-2,19159504954636E-13;
-2,82112164176072E-13;
6,75321005344027E-13;
7,85984181975826E-13;
6,82447260034974E-13;
8,85120508981167E-13;
6,44062685904505E-13;
1,29204600031402E-13;
5,5073733580675E-13;
5,68320852101611E-13;
3,48194996106365E-13;
9,36515454289507E-13;
-4,11361510909374E-13;
-6,77646695733291E-13;
7,12798376445476E-13;
-7,27182232314406E-14;
-7,05021032606284E-13;
-5,52889624609941E-13;
-2,52981576047498E-13;
3,54865711388941E-13;
1,32139811876539E-12;
6,74445755501807E-13;
-5,36220573122713E-13;
6,81809313779158E-13;
5,13940356838725E-13;
6,22386382987449E-14;
5,12509082797374E-13;
-2,1677501787526E-13;
8,63471618670538E-14;
7,82994537063395E-13;
7,28200191506136E-13;
1,927695716307E-13;
4,5302695869183E-13;
9,90092804631425E-13;
1,72887082071443E-13;
8,9595793880484E-14;
-1,87408410321458E-13;
-4,2945752721122E-13;
4,83405735623E-13;
-5,8931086641666E-14;
-4,52889232773265E-13;
9,74756743825022E-13;
1,13382578341605E-12;
-2,63765755272411E-14;
2,55061221058676E-13;
8,67287108948897E-13;
9,38921030281197E-13;
1,04918427284718E-12;
3,94324074823152E-13;
-1,16377464306563E-13;
9,22650848197825E-14;
2,42031024661108E-13;
2,59725156832537E-14;
1,23717612214217E-13;
2,77168635453754E-13;
-4,9390768489563E-13;
-5,92346274790579E-13;
2,16885838836155E-13;
9,36428835774563E-13;
7,53022274935117E-13;
4,84726579067424E-14;
1,53261541881943E-13;
5,30579615741105E-13;
7,83899437846382E-13;
1,78732529554707E-13;
-1,45419915664941E-13;
8,73442033325923E-13;
9,34184860214865E-13;
2,16511502208905E-13;
8,02247373978608E-13;
8,13297827517001E-13;
4,05436175809576E-13;
1,69507955690277E-12;
9,44122788874061E-13;
-8,08268519885609E-13;
2,08607445553769E-13;
2,94154241768005E-13;
-8,01176001450994E-13;
-1,23170208284633E-13;
7,2687156292335E-13;
5,27353106788077E-13;
3,3070034930839E-13;
8,68359496027026E-13;
4,55586457247237E-13;
-2,95248172050979E-13;
9,06353135748226E-13;
9,16701991057977E-13;
7,32581341066494E-14;
5,23924084267581E-13;
5,54236194191567E-13;
4,99638584904878E-13;
-6,51671852046105E-15;
1,47541930472899E-13;
1,06414824429907E-12;
5,42336330469772E-13;
4,87084840264239E-13;
9,67877688431705E-14;
-9,22300867768131E-13;
-7,35074704822661E-13;
-1,86244985849415E-13;
7,9479053825394E-13;
5,50003506510036E-13;
2,10687791112913E-13;
1,10005719596432E-12;
4,50853459457357E-13;
4,95654672166407E-13;
1,34477535133327E-12;
4,1017432647831E-13;
1,00129056678204E-14;
6,02547656412905E-13;
3,14420808773851E-13;
-4,82649657351449E-14;
2,37747561564266E-13;
-1,77825208563507E-13;
-2,57675046831932E-13;
2,45376652122739E-14;
-3,78901179806238E-13;
-8,58911496808915E-14;
6,4497668582689E-13;
8,95923184181433E-13;
1,24926772615338E-13;
-5,45808980026886E-14;
3,75013555139909E-13;
3,00269228141179E-13;
1,06963265733561E-12;
8,31068290518434E-13;
6,09486202202696E-14;
5,72005308531947E-13;
6,28415886954192E-13;
5,19419648573633E-13;
9,13381847167084E-13;
1,22463773986796E-12;
1,08741485028547E-12;
4,95492565798536E-13;
3,40774138803781E-13;
9,04644090251633E-13;
5,55911073964996E-13;
-2,98759960835594E-13;
2,98577026191639E-13;
3,95319913543588E-13;
-1,49360577496713E-13;
3,9651411198939E-13;
6,76432542403816E-13;
7,24957561513607E-13;
2,33950727494636E-13;
-1,94546838465182E-13;
6,25798303918388E-13;
5,01521880026464E-13;
5,4179030975807E-13;
9,16770768107667E-13;
1,63254617272339E-13;
4,92560204448987E-13;
4,54793916112407E-13;
1,48658689880227E-13;
8,5672691823589E-13;
-1,13071877944125E-13;
-5,73423112352937E-13;
5,12231517462634E-13;
4,59015663268146E-13;
2,4453952720306E-13;
5,56099605320496E-13;
6,21308597959997E-13;
4,17844522288484E-13;
3,41388077149234E-13;
7,85514359819917E-13;
7,23255291430897E-13;
1,73763542028762E-13;
4,0350235915075E-13;
5,50605409916275E-13;
6,3437391784818E-13;
5,08783118543982E-13;
-1,29562486764413E-13;
-5,85266976164015E-14;
3,86083635965715E-13;
7,51274063207321E-13;
5,29995416125996E-13;
2,42436725090213E-14;
2,99664599906879E-13;
5,58239056669817E-13;
-6,12909780756029E-15;
-3,34750529447429E-14;
5,22035860477206E-13;
9,87617787329985E-14;
-1,03338512613783E-13;
2,80007085475695E-13;
2,83212122603203E-13;
1,03718988397783E-13;
7,28473087809106E-13;
1,38723033948104E-12;
4,61640116527542E-13;
2,07232467937099E-13;
7,74663279948652E-13;
1,17257771190175E-12;
1,29819316332449E-12;
1,38032870269633E-13;
1,68764353673498E-13;
9,01973521545482E-13;
6,00251040697329E-13;
1,68731030636288E-13;
-6,27462886037111E-13;
-2,30588535532715E-13;
5,99737789153279E-14;
-7,04382881890176E-14;
9,69290518713584E-13;
1,46641127532075E-13;
-7,76739809095239E-13;
4,43511443567301E-13;
1,04924188603938E-12;
7,76995782767984E-13;
3,60169418021759E-13;
5,57401870859084E-13;
1,11061465849268E-12;
4,82422828202921E-13;
4,44178340590091E-13;
1,15448002856465E-12;
6,65310103697415E-13;
2,04937868095246E-13;
-2,22639614800922E-14;
-2,39747181251411E-13;
9,80296136521275E-14;
4,84244977024367E-13;
2,71297305446551E-13;
-1,40272277183861E-13;
5,56926747864202E-13;
9,76088275653983E-13;
5,97096223276772E-13;
5,73439372043068E-13;
4,96990178040929E-13;
7,91493533361284E-13;
6,48590424046042E-13;
4,1332215714964E-13;
9,61769587936514E-13;
7,4412299104296E-13;
1,01720440453533E-12;
1,00835281153832E-12;
-1,71362917857287E-14;
3,62233876354331E-13;
2,73280853731693E-13;
1,44468927802443E-13;
3,89066314351092E-13;
-9,84921245333871E-14;
4,75966097069495E-13;
1,17757293221445E-13;
-4,97494544566786E-13;
3,36754542712283E-13;
5,18521619728954E-13;
4,77097419808934E-13;
7,58320314694176E-13;
4,0631078567511E-13;
8,09019974224231E-14;
1,08933678944482E-12;
7,48289034951083E-13;
4,01999109607844E-14;
1,42860967112093E-12;
9,06837342654442E-13;
2,00163993638292E-13;
7,91092292311504E-13;
8,63886488348952E-14;
4,13080123900112E-13;
1,00233780149984E-12;
5,82520865604561E-13;
1,03533578157799E-13;
-5,66770279473756E-13;
3,4381957022062E-13;
8,98722106683094E-13;
-3,31669613668408E-14;
-1,34263152243641E-13;
-1,51312794169934E-13;
6,98065033679894E-13;
1,32353347212294E-12;
6,3295539924773E-13;
6,83195131444838E-13;
5,90468991800043E-13;
8,36404022521456E-13;
5,68653342460405E-13;
-6,06345436252459E-13;
-4,34241642171425E-14;
2,1188281574155E-13;
-2,4379223409859E-13;
-4,48787061560965E-14;
-6,48796526150604E-14;
2,17469618324724E-13;
-1,54745546564121E-13;
-3,55220153630336E-13;
1,0035121489108E-12;
9,40330909065653E-13;
8,40136967725412E-13;
1,67090935618787E-12;
8,39790609005978E-13;
4,96093572892294E-13;
1,0849914032146E-12;
6,12119788284213E-13;
-3,83480624399753E-14;
7,92405977425485E-13;
1,07567384397657E-12;
-4,03071779121762E-13;
3,28794445384113E-13;
7,8323739033033E-13;
-6,2057993040236E-13;
3,68445629696566E-13;
5,98224267882238E-13;
-2,04948489060458E-14;
4,19781727779301E-13;
-1,84185284167531E-13;
-2,72449919900489E-13;
-8,47834750828683E-14;
9,41931452490402E-14;
2,62793311081171E-13;
2,05044551047593E-13;
5,91608145532982E-13;
-1,14429684581706E-13;
-4,84109404568752E-14;
7,83233373479084E-13;
5,86416713144816E-13;
7,13578785104968E-13;
4,2090645285196E-14;
-1,64406944096023E-13;
4,79584140446211E-13;
-4,62679262638043E-13;
-4,43284276691165E-14;
7,63639188506118E-13;
3,34910178224914E-13;
6,54029406190607E-13;
5,25535296368395E-13;
7,8225926890159E-13;
4,64498939721585E-14;
-4,66644875235977E-13;
6,19671667049932E-13;
-3,54894291242765E-14;
3,77248414896439E-13;
6,20897060768394E-13;
1,33894289162997E-14;
8,61175967354404E-13;
2,14209635962506E-13;
-1,0634831033638E-13;
5,79489824023799E-13;
1,75893137922944E-13;
9,98783879929372E-15;
-1,29047559500421E-14;
3,7177408405329E-13;
7,52033041152813E-13;
4,42994800171916E-13;
6,89357085842553E-13;
3,8202148337864E-13;
4,08406217979766E-13;
8,32280470844414E-13;
8,83084982913804E-13;
1,53879494725694E-12;
5,50675588275751E-13;
7,94915697425741E-14;
1,80924601259134E-13;
-9,31765093734426E-13;
2,24946929331765E-13;
1,16115003785844E-12;
3,32218309814464E-13;
1,71962853835955E-13;
1,02761024713686E-13;
2,03139762027638E-13;
2,91601092690227E-13;
7,08163532494385E-14;
1,68844142259875E-13;
5,42008635041283E-14;
4,77297657651939E-14;
1,32287071565365E-13;
-2,04940267563692E-13;
4,28619393689773E-13;
5,74899269660348E-13;
-2,00384374428093E-13;
2,81340026884758E-13;
3,66735862164343E-13;
1,07511429684696E-13;
4,47102005105519E-13;
9,07957812594245E-13;
4,21172780818341E-13;
-6,33696656714452E-13;
4,35887261309262E-13;
5,97421102520486E-13;
3,12056772361162E-13;
9,71909731484786E-13;
1,8497483348017E-13;
3,36955428601526E-13;
3,32963685732408E-13;
3,5474346566157E-13;
8,25709944667351E-13;
1,19762336420705E-13;
6,54528431185045E-13;
1,03446687798159E-12;
4,70565330698316E-13;
8,0308984006588E-13;
1,04114255029272E-12;
2,07055396614608E-13;
-6,79205644885554E-14;
1,12624716064901E-12;
1,04198950813189E-12;
6,10075451149791E-14;
1,26764981431981E-13;
-1,8387891081758E-13;
-2,13532668969413E-13;
2,30562311604062E-13;
-2,14884325868509E-13;
-2,64141203554837E-14;
7,23866781529465E-13;
5,91876975121395E-13;
4,82642040293752E-13;
2,9637429409581E-13;
-1,5187282744816E-13;
5,01988674747567E-13;
1,08963017489241E-12;
3,51338927273912E-14;
-6,50208067812642E-13;
-9,57438059744918E-14;
3,54343003965274E-14;
2,65353316891511E-13;
8,01033519890185E-13;
7,42917725451063E-13;
2,65952532055434E-13;
3,29133096302589E-13;
1,2315479722481E-12;
8,34975881251952E-13;
-1,41123852382617E-13;
1,17653054152065E-13;
3,38381321600074E-13;
6,46898921130057E-13;
7,70016495263557E-13;
-3,22562048341772E-13;
-9,37872413553394E-14;
1,14375043522358E-12;
7,62498608652344E-13;
2,15651259612844E-13;
2,87241302737338E-14;
6,72090785738101E-13;
9,7906713217739E-13;
-4,96695161016238E-13;
-2,24935253480307E-13;
7,80700868245182E-13;
2,94381105473457E-13;
6,35588557400368E-13;
5,56560235672636E-13;
2,12012394643276E-15;
4,69906784999827E-13;
1,91191149822641E-13;
2,16016768585074E-13;
8,29871319203848E-13;
9,5054531507799E-13;
7,21811098942709E-13;
5,4220348553437E-14;
3,0028458056076E-13;
5,86791589271566E-13;
3,79191572176575E-13;
4,69853306344636E-13;
4,208682702495E-13;
8,42032766004552E-13;
8,48178804113169E-13;
4,72796607016214E-14;
1,40325931690274E-13;
3,99108304880636E-13;
2,66287610757427E-13;
4,51119736157497E-13;
5,43502482462046E-13;
6,19477675401587E-13;
5,60977619476754E-13;
8,03778158179667E-13;
1,1775390444198E-12;
3,49475626624533E-13;
-4,74112749425332E-13;
-4,16240291860956E-14;
2,42285436805488E-13;
-1,97563246628366E-13;
2,66321618856351E-13;
4,32863423886961E-13;
1,07263566947073E-13;
9,01808933792661E-13;
3,03146588413934E-13;
-1,74668526576312E-13;
6,92238338736172E-13;
-3,10333427102607E-13;
6,57882689811454E-14;
7,38227079243154E-13;
-9,33258384622888E-13;
7,10843974619202E-15;
5,78429859730274E-13;
3,53683371293395E-13;
1,38198520502322E-12;
3,5816978333049E-13;
9,49491394982972E-13;
1,16800355044068E-12;
-7,10986872138665E-14;
9,03898691496561E-13;
3,93783698747082E-13;
4,05457492341189E-13;
8,81732416303525E-13;
-2,44355668717543E-13;
6,45142278092781E-13;
8,3955271655614E-13;
-9,34546745613367E-14;
2,11106711284377E-13;
-2,52447414728051E-13;
-6,36849072806105E-14;
8,96001621113174E-13;
5,11932249381045E-13;
2,28308151034555E-13;
1,49055884704596E-13;
3,69956497138003E-14;
7,16108818449934E-13;
6,55454329301568E-13;
1,53653473114117E-13;
6,20101133768553E-13;
3,03814956956359E-13;
2,16489958289684E-13;
1,01172873235378E-12;
4,93500483832654E-13;
6,94148187736687E-13;
8,43221660805502E-13;
1,98827663886483E-14;
7,14640966156298E-13;
3,06129446980457E-13;
-9,57994640932781E-14;
9,5033757937321E-13;
9,00093078061856E-14;
-3,87044323934213E-13;
1,89118932044446E-13;
3,07352959582037E-13;
6,24448910134585E-13;
4,77605584496201E-13;
9,05559585620262E-13;
1,06017964521443E-12;
-1,49424659384771E-13;
1,04013862661875E-14;
6,41230311153605E-13;
2,12732989928235E-14;
3,05362674122105E-14;
3,57113304756606E-13;
2,52356680648677E-13;
6,99999063452043E-13;
7,21782987469228E-13;
1,01410311709053E-13;
3,12367622919678E-13;
6,86535394111111E-13;
2,25518827594851E-13;
-1,33115984251794E-15;
3,49945006805503E-13;
-4,3774907190821E-14;
-3,00654939693027E-13;
2,89469301908269E-13;
3,26848346561106E-13;
6,20102365411153E-13;
8,44341630887758E-13;
5,34862987336097E-14;
1,58546182711453E-13;
6,24817426856203E-13;
1,03663157072236E-12;
1,17025908910696E-12;
-2,59362634530386E-13;
-1,20683099970484E-13;
6,34644331820457E-13;
-9,24067676094201E-14;
5,39180510478768E-13;
6,48715791598908E-13;
-3,64393178029813E-15;
9,57198960446854E-14;
-1,10299649722412E-13;
2,66158899613562E-13;
4,60517157136083E-13;
2,56499677593811E-13;
1,62318894807021E-15;
-1,48832652296913E-13;
1,0763500650591E-13;
2,44599897309553E-13;
7,80586669718549E-13;
4,88374159462457E-13;
2,06862097413781E-13;
8,56967674312655E-13;
6,58681319360164E-13;
5,18055067603275E-13;
1,03886508810948E-13;
-2,47464867139655E-13;
7,80700213723078E-13;
1,219281047662E-12;
5,64912438149527E-13;
2,4714674149383E-13;
9,79652885758884E-13;
1,17456739977438E-12;
4,14189498680896E-13;
-1,12769614007351E-13;
-2,46676276456596E-13;
-1,11135550287205E-13;
4,69605150533862E-14;
1,12155955585788E-12;
1,2552910624325E-12;
4,18189662256274E-13;
3,96501365249631E-13;
1,83007271082749E-13;
5,87530581258992E-13;
1,51175608061591E-13;
-3,68329164612118E-13;
8,66573386448485E-13;
5,50451480423865E-13;
-2,02973557136963E-13;
-7,61950072978957E-14;
2,90411747029771E-13;
1,20833959848126E-12;
1,00107498414055E-12;
6,83469616045742E-13;
4,2172010585708E-13;
1,11923972268765E-13;
6,21574373551955E-13;
7,73913566606786E-14;
-3,73363417140146E-13;
2,5451303355995E-13;
6,58398827364226E-13;
5,70985664889623E-13;
5,46602219745889E-13;
8,46504167184782E-13;
6,63211140710423E-13;
1,19081880309484E-13;
-1,82801452458464E-13;
6,11016401268001E-13;
4,49021991314276E-13;
-5,38841594709851E-13;
3,25249443041479E-13;
3,74104599813879E-13;
1,7163348282713E-13;
3,6349500475219E-13;
-1,43899356286278E-13;
2,64387342252519E-13;
6,84001045062171E-13;
1,11954146057931E-12;
6,43797102320433E-13;
-1,84490741527946E-13;
5,5409251351826E-13;
2,95184709324995E-13;
2,63079684896965E-14;
7,06701929909246E-13;
4,56248660179089E-13;
-2,18402405813835E-13;
-9,41326510095301E-14;
3,03258696611267E-13;
-1,04896847116322E-15;
-2,49871022182563E-13;
-5,13803848935479E-14;
9,78801576612439E-13;
6,08888629375263E-13;
-5,73707276433602E-13;
9,79031347639057E-13;
1,20998031349162E-12;
-3,07314959426819E-13;
2,93611437864694E-13;
3,44936656421224E-13;
7,72433443634683E-14;
4,97562090679371E-13;
6,95574325146906E-14;
9,21772677289743E-13;
1,29656790957539E-12;
1,28526820006921E-13;
-3,70597742952853E-13;
-2,65535780948404E-13;
3,34591665271773E-13;
2,8772993460247E-13;
-2,30121285647026E-13;
3,39267366989837E-13;
9,13827688406697E-13;
-2,64590164554402E-13;
4,85588102100446E-14;
9,66148861113815E-13;
-2,39420919318551E-13;
4,96102424768621E-13;
1,08193044336229E-12;
1,40743600175277E-13;
5,7388570455992E-13;
4,71014216653978E-13;
-1,39553571261294E-13;
-9,74233203131528E-14;
3,76783536607599E-13;
1,36634982013897E-12;
1,29620531507438E-12;
2,79043904160145E-13;
4,57550134014425E-13;
8,65882525453109E-13;
6,70647475731124E-13;
5,58184056605653E-13;
1,76306521383599E-14;
-2,01627860815118E-13;
-8,55029239007098E-14;
4,9167082652638E-14;
9,74127732910628E-13;
1,13407162049055E-12;
2,85335232020906E-13;
-1,37200007585224E-13;
2,54127079063295E-13;
5,45244605563999E-13;
-3,77669980979697E-14;
2,28086013629998E-13;
6,48154654773429E-13;
3,001419011006E-13;
2,39677645739147E-13;
-9,50507765240268E-14;
3,57038991541516E-13;
8,12632875110643E-13;
1,99766823173114E-13;
4,34347485778366E-13;
1,64030292274042E-14;
1,80238459379947E-13;
1,2082667534502E-12;
2,03916885296184E-14;
-1,50229178867525E-13;
7,19358283758353E-13;
2,92358703708177E-13;
1,32744545214443E-13;
4,57474318603128E-13;
2,07338749530904E-13;
-2,35838842607484E-13;
-7,45134995535385E-15;
4,626581943758E-13;
1,10808977780337E-12;
9,17692701957537E-13;
3,957630130325E-13;
8,94182848327171E-13;
5,72953413430875E-13;
-1,88949696864782E-13;
5,71504869322242E-13;
8,66284378482416E-13;
1,2359822345896E-13;
3,91327448597004E-13;
1,52103239978731E-13;
-5,79437450794179E-13;
-2,60048962553501E-13;
-1,77601274483603E-13;
-5,79643739770522E-14;
2,54910298071244E-13;
1,00652039029882E-15;
3,56631088736924E-13;
9,3566108849718E-13;
4,06854640225374E-13;
-9,97736948849467E-14;
3,54397079642013E-13;
1,26755281284599E-12;
1,34526483740103E-12;
5,81276260918209E-13;
4,62520237348826E-13;
4,1705471355139E-13;
7,27280739505953E-14;
2,94769620710886E-13;
6,61386126988355E-13;
7,20905898874153E-13;
3,84661346320743E-13;
4,24207799037859E-13;
4,51070644885881E-13;
-1,44834390126275E-13;
6,12803892490933E-13;
7,54512814940285E-13;
-3,03011609306985E-14;
3,55889394461362E-13;
-1,4533452380151E-13;
2,20363956385609E-14;
4,70022547801912E-13;
-5,07994937214356E-13;
1,62177841331127E-13;
9,64377883534353E-13;
8,80505057251003E-14;
6,43723190074412E-13;
1,34094620961148E-12;
4,06263843364784E-13;
6,74275470502765E-13;
2,65552363783887E-13;
-2,94109269090091E-13;
9,77958888719758E-13;
8,12158257079707E-13;
7,26546894876826E-13;
5,71782974857927E-13;
2,29046161022528E-14;
5,39638815347151E-13;
3,73085692229326E-13;
6,56930302299269E-13;
3,24700133544295E-13;
-4,55354068608494E-13;
8,83986939712818E-13;
8,74633674148888E-13;
-4,35323220643578E-13;
-1,4796280305549E-13;
3,42167537701335E-14;
3,01495377947989E-13;
4,22338624617056E-13;
-3,68111315035084E-13;
7,60662392034591E-14;
7,30938256404132E-13;
5,17784464622302E-13;
1,00239622231099E-12;
9,66088359588699E-13;
4,84485362040239E-13;
4,95862331603696E-13;
-4,365024185696E-14;
6,5592177300187E-13;
7,50073577808432E-13;
-4,93382351358497E-13;
7,65238982432168E-13;
8,97143893083967E-13;
-1,03612637355508E-13;
6,42419464800051E-13;
4,62876608591569E-13;
5,83792184149831E-13;
2,82914358383206E-13;
-6,88297317480306E-13;
5,2307466887601E-13;
1,46496701308852E-12;
9,34802644530334E-13;
2,73966082039639E-13;
4,60095148908494E-13;
7,93017547929252E-13;
3,97985212088373E-13;
7,54214355942281E-13;
8,88481187686463E-13;
5,3455877972006E-13;
4,61998888083817E-13;
-2,45582070668851E-13;
-7,73602661721632E-15;
8,40611222504377E-13;
3,51289155372719E-13;
5,30048424242925E-13;
1,0915657410508E-12;
3,25958338604072E-13;
3,71689438655264E-13;
8,62077958263734E-13;
3,51110668655169E-13;
4,26585357556246E-13;
5,32259136322273E-13;
1,29780213547369E-13;
-3,57265623793698E-13;
-6,71526853257811E-13;
2,30277009325132E-13;
9,46566991728705E-13;
5,82974786402024E-13;
5,23694658183585E-13;
5,82072561239412E-13;
3,4617855582619E-13;
8,89798230517978E-13;
1,09396489407682E-12;
5,12518650805959E-13;
4,85476006540632E-13;
1,61800164924641E-14;
-7,42922426773473E-13;
-5,757384806696E-13;
4,82650194878785E-13;
5,49108965577547E-13;
-3,68118806135479E-13;
2,90764240486656E-13;
4,96090932110384E-13;
5,28675087253768E-14;
1,13328989555722E-12;
8,05492938197232E-13;
7,43673996463539E-14;
4,1421789840811E-13;
-1,19169254726323E-13;
3,74815725565787E-13;
7,09626753963826E-13;
1,20065917146602E-13;
2,20713608096684E-13;
2,82203518200301E-13;
8,00852541007184E-13;
7,54218271919122E-13;
5,07718218799925E-13;
2,54228689223802E-13;
-1,80246347054737E-13;
7,27075318848753E-13;
1,00454026480685E-13;
-1,92190514571647E-13;
1,53086526543077E-12;
7,29821492526673E-13;
-4,52786365253964E-14;
5,93124491004103E-13;
1,82174939261077E-13;
1,62395451656838E-13;
8,60046954628164E-13;
7,05353590115664E-13;
-1,5986542029092E-13;
1,3269512304441E-13;
8,39864759062624E-13;
5,54611243455212E-13;
1,81084599623271E-13;
3,72658475752286E-13;
3,07777765902872E-13;
3,91859440425806E-14;
4,72609167590903E-13;
5,28531563174003E-13;
1,199389218008E-13;
4,74016742487504E-14;
5,50327430238271E-13;
8,71891838060148E-13;
6,49634438896656E-13;
5,94887318537064E-13;
8,01761913778257E-13;
1,47834785467734E-12;
1,1724841846386E-12;
2,17450398132597E-13;
8,9307083220317E-14;
-2,1792339397713E-13;
9,09357917531331E-14;
7,42388444188063E-13;
2,03226570083788E-13;
3,3081216305324E-13;
6,39474448637013E-13;
7,58379634347084E-13;
1,77296733726517E-12;
1,32722716086935E-12;
3,97193713835564E-13;
6,36668101496778E-13;
5,75668925386487E-13;
2,15184358981917E-14;
1,27056044751715E-13;
9,11038958288821E-13;
4,18640603772167E-13;
-5,56530199101115E-13;
-3,29625784192793E-13;
3,1122049926251E-13;
5,77998548969516E-13;
4,41679569476424E-13;
7,79784945879241E-13;
9,56658429805457E-13;
6,87209816784473E-13;
3,89302445416689E-13;
-3,28959455024323E-13;
-2,0575270780514E-13;
2,78804373971085E-13;
5,37516576147059E-13;
6,42687625023117E-13;
5,58189722925159E-13;
6,42717628973464E-13;
-4,7804564955481E-13;
-6,51724121721948E-13;
6,69996370836521E-13;
7,20892331699575E-13;
8,69540083570376E-13;
1,31747681672545E-12;
1,40320236776465E-12;
1,10568197263172E-12;
-2,59104958709653E-13;
-6,82746322439884E-14;
1,04626913730932E-12;
1,20659777320978E-14;
2,72609021888782E-13;
1,59885019123928E-12;
1,05934633384574E-12;
5,88749668746104E-13;
-9,07925956735978E-15;
-4,83772574667558E-13;
-3,26872574997235E-14;
3,85247777950109E-14;
5,23728218774013E-13;
8,68001818450106E-13;
-1,47559807398972E-13;
-5,94936353665645E-13;
-3,66451080009282E-13;
3,74464719236024E-14;
5,72449611574417E-13;
8,54831433578134E-14;
9,51263656464749E-14;
7,94515656599859E-13;
1,54307825850211E-13;
-6,94592570702836E-14;
6,63797080299612E-13;
6,42389695722713E-13;
8,75076373083853E-13;
5,96347304085645E-13;
-2,44520402176108E-13;
3,12976820459599E-13;
3,72743307630286E-13;
1,53339775041304E-13;
7,74795769595714E-13;
1,56757101222103E-14;
-3,67481538320075E-13;
5,58747582507823E-13;
6,81732904684482E-13;
4,27813387175866E-13;
-5,46310318401485E-14;
1,52113083872237E-13;
5,67208912153933E-13;
4,39736195136443E-13;
5,16665278020645E-13;
2,35187594840455E-13;
7,8743312625901E-13;
7,23494478814863E-13;
1,63647952256243E-13;
8,22155809583987E-13;
6,05882182886145E-13;
1,05556914629349E-12;
7,45814873896347E-13;
-3,10994749206155E-13;
1,03384041821595E-12;
1,04652368454321E-12;
9,50807164804073E-14;
3,99451966794029E-13;
1,49694255573212E-13;
1,3739968446422E-13;
4,10196204861826E-13;
-1,15589410286007E-13;
9,284810530531E-14;
6,26303221043394E-13;
7,82940988113451E-13;
9,21330066564388E-13;
7,18677450713032E-13;
9,90191391612826E-13;
5,35629512153055E-13;
-5,76102448786826E-13;
-4,05953829651755E-13;
8,44047537863967E-13;
1,22188411404423E-12;
-3,76472119074756E-13;
-4,84959451618701E-13;
7,89268494479894E-13;
-1,2991394674621E-13;
-6,18295992646592E-13;
4,36572158250058E-13;
3,39214513410344E-13;
-9,9637683969219E-14;
6,66255884961281E-13;
1,0574653316571E-12;
-1,93248845169751E-13;
4,71927020443478E-13;
1,81776893663125E-12;
5,17584133330473E-13;
2,48598694869171E-13;
5,74244440108278E-14;
-1,63373688413039E-13;
7,34722548472003E-13;
1,83809137374591E-13;
1,75725042889294E-13;
4,91539027865808E-13;
5,08511523088737E-13;
5,72628531335758E-13;
-4,41527077756705E-13;
-3,14239220829714E-13;
5,56436724796559E-13;
2,2405587368953E-13;
-8,99633645372794E-15;
5,79751583911085E-13;
4,44417027328871E-13;
-1,95348222798404E-13;
2,53954355316588E-13;
3,7616809955776E-13;
-1,63105462178849E-13;
2,16016282869467E-13;
8,02855937695624E-13;
6,68530507374276E-13;
3,35122353599707E-13;
1,96563080023584E-13;
4,89269938636901E-13;
5,79870290026244E-13;
5,53563395457637E-13;
7,13693886230743E-13;
3,49205542180537E-13;
4,3128887440724E-14;
-2,69799551726733E-14;
3,44907482993574E-13;
2,96550531120591E-13;
-5,59121689628522E-14;
1,65834967756828E-13;
2,63080660794823E-13;
4,86105003895584E-13;
-1,10522796853427E-13;
1,6335203079935E-13;
5,33887806360951E-13;
-3,74275263826365E-13;
6,66475568738554E-13;
8,15686074565412E-13;
-1,79969541690248E-13;
5,99756068274071E-13;
1,1774187417092E-12;
6,34719619910527E-13;
3,99587119937379E-13;
7,98217535629346E-13;
7,65744006904514E-14;
-1,94513266734125E-13;
6,28431610813082E-13;
7,10796912647864E-13;
6,34614741090312E-13;
5,83960420130523E-13;
9,17319411372651E-13;
7,08625842158277E-13;
1,50230946281617E-13;
6,72554029724724E-13;
6,34888180941939E-13;
2,91777169036268E-14;
9,65147939847877E-14;
5,53367808451987E-13;
5,09892951645547E-13;
-1,79271907666651E-15;
2,65994679808447E-14;
3,20191800471581E-13;
5,07156708115831E-13;
1,27565948112667E-13;
2,41850309475774E-13;
1,31969007329561E-12;
6,62292474914344E-13;
3,47401598230744E-14;
9,42332508606297E-13;
9,71180364453589E-13;
3,27493252238681E-13;
-6,87870267864446E-14;
1,08398598803477E-13;
-9,56584640456939E-14;
-6,70629946551382E-14;
5,63391327670306E-13;
3,32855872526207E-13;
4,45432919355423E-13;
3,4120564702888E-13;
3,85244043565124E-13;
5,4251376783001E-13;
-3,73679407398373E-15;
4,62303626174271E-13;
-5,17115200191242E-14;
-1,89362255294924E-13;
1,189750556308E-12;
6,42074948050272E-13;
-5,36184838771687E-14;
4,47175622951913E-13;
5,72740328323513E-13;
3,59516231808191E-13;
6,61215403820994E-13;
3,09502184276866E-13;
-2,29921631211942E-13;
3,01588644937863E-13;
5,02136834967072E-13;
1,00855274707994E-12;
5,42565257218734E-13;
-3,62828115485952E-13;
6,14371028096477E-13;
8,42376163354348E-13;
3,35529445813012E-13;
9,53875535925279E-13;
1,02463977993216E-12;
2,66065790553603E-13;
-2,45337157582646E-14;
-1,2031900206459E-13;
4,17006839105661E-13;
3,10108279969328E-13;
-1,29959379295071E-13;
6,84245606739819E-13;
2,14039553887758E-13;
-3,06868949902999E-13;
5,52303231670785E-13;
4,91952223245146E-13;
5,2318471033387E-13;
6,49779443820406E-13;
-1,91490973857609E-13;
-1,17849066249436E-13;
7,55960748293585E-13;
5,29890360331798E-13;
1,70254726011947E-13;
7,34031374685937E-13;
3,36632827773957E-13;
-5,13120965562947E-13;
1,75967471205638E-14;
6,16735907351403E-13;
1,89696560505567E-13;
1,67340026499801E-13;
1,25538386046951E-12;
1,01921610255809E-12;
-1,08303250809535E-13;
2,2778348965931E-13;
5,77855753210181E-13;
1,71294811522974E-13;
1,70193945760526E-13;
3,22740064592554E-13;
2,29035980470806E-13;
-5,55957090640594E-14;
-6,80244635390562E-14;
7,22038683043046E-13;
6,62674412605443E-13;
1,02105051311337E-13;
4,85682410206078E-13;
3,3981586743618E-13;
4,92027916756811E-13;
1,41419568345105E-12;
6,77549199493774E-13;
-3,00813298126484E-13;
4,32525595758156E-13;
7,92248525019265E-13;
4,19031494097234E-13;
4,21623291329238E-13;
7,66748802409045E-13;
9,72132666569867E-13;
8,63427760154342E-13;
7,21381967329945E-13;
4,64486806911901E-13;
1,11278176855319E-12;
1,15513906568451E-12;
2,74201994067226E-13;
9,2258984459264E-13;
6,93095363381047E-13;
-5,7623349373375E-13;
-2,7345978007935E-13;
2,95249729737928E-13;
1,86164084030892E-13;
4,53061910986442E-15;
1,01656899724548E-13;
1,73444606013546E-13;
2,03767771302113E-13;
5,09750781814291E-13;
1,35201334175805E-13;
7,90340433329132E-14;
5,02357306574393E-13;
3,82659082812345E-13;
3,56314775441117E-13;
1,79652929428988E-13;
3,30743261978424E-13;
4,08922445107654E-13;
5,5949502465318E-13;
1,13719973314641E-12;
7,52946900757743E-13;
1,08671424072675E-13;
6,75245151541895E-13;
1,27412428612536E-12;
8,53741050288661E-13;
9,33114432126587E-13;
7,6301849075844E-13;
1,7206089185523E-13;
4,61044325916297E-13;
5,79104708185171E-13;
2,68621153173758E-13;
1,07361177022787E-13;
8,00796493509269E-13;
4,90423964310926E-13;
-3,19625067874146E-13;
3,49621731973279E-13;
-5,72693075265235E-13;
-7,73401290881783E-13;
3,64183865438725E-13;
1,47761991416179E-13;
5,81790647391776E-13;
5,56576169115456E-13;
7,30200393441673E-13;
1,07117387103115E-12;
7,99381258656023E-14;
4,0381158068003E-13;
8,1345315178012E-13;
4,78609031397894E-13;
1,11503848993422E-12;
5,90694275862875E-13;
-4,11046172308126E-13;
8,78878295786203E-13;
1,21760822120708E-12;
-1,33897905164416E-13;
1,55492786428801E-13;
4,40341014397402E-13;
9,65263523923752E-15;
5,74111053210946E-13;
9,57146396947614E-13;
5,20484059994477E-13;
5,99011604844942E-13;
6,82327215454655E-13;
-1,95324839681609E-13;
1,33758163412707E-13;
6,53025440040986E-13;
5,97464284999008E-14;
7,50655631406272E-13;
8,63025280842465E-13;
3,74014260573154E-13;
9,3598679375302E-13;
7,93917990813412E-13;
2,03723093091019E-13;
-2,72739155082239E-13;
8,78302185055423E-14;
7,10692933553952E-13;
1,96873471052203E-13;
4,20379722800318E-14;
3,58495529103741E-13;
2,8310419025785E-13;
3,13505231421429E-13;
2,9545540943369E-13;
1,10007309551309E-13;
3,03756847716394E-13;
6,13514452279687E-13;
6,04564939398536E-13;
5,36335864132319E-13;
7,76855251305273E-13;
1,00481752603473E-12;
9,03936779389544E-13;
1,15306009766101E-13;
-2,10419180845439E-13;
6,3265728202533E-13;
4,7183821016059E-13;
5,94653701719843E-13;
9,26696085582755E-13;
5,84731863656412E-13;
1,02908895699543E-12;
5,18691002133081E-13;
1,88315751365314E-13;
1,820132994552E-13;
-4,78320852565513E-13;
7,94735263471133E-14;
6,74415127199332E-13;
5,00079181698541E-13;
6,14381796487194E-13;
7,39659841631252E-13;
-1,91242227421116E-14;
-4,24148989209608E-13;
9,55047905894767E-14;
7,28199267623965E-13;
5,55416741496755E-13;
-7,24501491837047E-14;
4,2871047404611E-13;
3,12174322760219E-13;
3,40293350253632E-13;
9,66896170404904E-13;
4,20641683530551E-13;
8,56026750057248E-13;
1,00622937628277E-12;
7,00154255194273E-14;
7,29139030025463E-13;
1,43210692417669E-12;
4,13350713575494E-13;
-1,43978936502495E-13;
1,00462471703898E-12;
7,70819418558591E-13;
-7,11875850800336E-14;
6,04318262462492E-13;
-9,22367377533449E-14;
-5,36802780141373E-13;
6,14400744396023E-13;
-1,17577966373097E-13;
-5,87694506243564E-13;
7,19848461155194E-13;
6,3645702537801E-13;
3,96913870383549E-13;
5,19996156302729E-13;
5,10167764780269E-13;
5,00372229304164E-13;
-3,43311157986831E-13;
3,75332264951453E-13;
8,92931173735402E-13;
-1,49747003106567E-14;
4,71194046302346E-13;
9,31579108119108E-13;
5,80122537653182E-13;
-2,81178368893361E-13;
-2,462138466369E-13;
6,7961501458238E-13;
3,52663631226731E-13;
3,28618716546537E-13;
6,36000556910109E-13;
3,72897688157356E-13;
2,49227265886451E-13;
3,91966587412253E-13;
5,43744576062334E-13;
2,48152812954492E-13;
3,96755765771387E-13;
5,76477792785247E-13;
-3,0569086862942E-13;
-9,51477651100566E-13;
-2,77660191945647E-13;
3,31321710963973E-13;
-1,45821091434625E-13;
1,68242357183135E-13;
6,12054377330868E-13;
3,33238959989617E-13;
6,9230369932357E-13;
3,41029997208405E-13;
9,44535122780333E-14;
1,68847061408093E-13;
2,53558669189509E-13;
1,09978392788324E-12;
3,85641967072088E-13;
3,53276573300511E-13;
1,09168311555633E-12;
7,75357627952142E-13;
7,69653524138227E-13;
-2,80804514598538E-13;
-9,01795372988465E-14;
1,15922249274564E-12;
7,35807449601979E-13;
2,27116487885311E-13;
3,12463889783307E-13;
3,98630866876797E-13;
-7,26330108009026E-14;
1,91926495515382E-13;
5,2771732508066E-13;
6,49223667597467E-14;
3,49235941240156E-13;
8,40234635205899E-13;
1,17401022298427E-12;
1,09787873153633E-12;
2,02852364471499E-13;
1,22984846591017E-13;
9,16084922372583E-13;
5,6602818733699E-13;
2,56626288410803E-14;
6,32655251282131E-13;
6,09809722762589E-13;
6,76036492485848E-14;
6,14367633232463E-13;
3,90659549272982E-13;
1,87175761901693E-14;
6,15122498534538E-13;
2,85316343879318E-13;
1,74006400730519E-13;
1,70628218884274E-13;
4,03383141015077E-13;
7,86471160150622E-13;
-1,5745030193264E-13;
-1,8240271431885E-13;
5,47259396071389E-13;
5,00264244067505E-13;
4,67333917448244E-13;
8,62223327609704E-14;
1,34851773058659E-13;
1,42790598977454E-12;
1,36246633367483E-12;
1,90942900542182E-13;
6,35457580680703E-13;
8,59311362051557E-13;
5,85844786362266E-13;
1,05476359966225E-12;
2,97246829298655E-13;
2,85605689712933E-13;
9,61424292109006E-13;
5,883665099473E-14;
8,716395638616E-13;
1,42125018157723E-12;
2,38547422164466E-13;
6,92934975623495E-13;
7,21306052357192E-13;
7,91259200703546E-13;
1,14213000728607E-12;
9,05388819161528E-14;
2,33394237699502E-13;
4,16545469575543E-13;
3,01905213490536E-13;
7,47869973820814E-13;
3,30660413896685E-13;
5,91841848256974E-13;
1,30346501308691E-12;
3,94513375367356E-13;
-2,21811077500441E-13;
8,48574340399592E-13;
7,46875049245323E-13;
-2,77604335881448E-14;
2,08517224599048E-13;
5,66466937239665E-13;
5,08272867692617E-13;
-4,41393339733387E-13;
-1,20963204464639E-13;
5,99154948203756E-13;
-2,36601408168675E-13;
1,11634827679904E-13;
1,34053887604058E-12;
1,00173260045276E-12;
-3,97285110685654E-13;
6,46975900784468E-14;
1,36147097708685E-12;
4,41305070196855E-13;
-1,54018747086706E-13;
4,53599914252591E-13;
5,41184563275889E-13;
3,66798250941606E-13;
1,56976438981417E-13;
2,46774331721993E-13;
6,85264063524136E-13;
9,44413046696659E-13;
3,15072119545903E-13;
-2,42640028145885E-13;
4,92190741858591E-13;
1,06964028998273E-12;
5,26129594529525E-13;
2,26688492233341E-13;
5,14155886133185E-13;
4,49574071837961E-13;
7,44404170579609E-13;
5,44651761147295E-13;
-2,20433374201606E-13;
4,79347558697165E-14;
7,71688991484656E-14;
3,92757532688834E-13;
7,38771197897105E-13;
-1,0215987479176E-13;
-1,62697462530514E-13;
4,14124718114462E-13;
5,18557373033135E-13;
5,11828325195252E-13;
-2,3500432707103E-14;
-4,97288720133294E-13;
2,44802597218466E-13;
7,83162444680054E-13;
1,62863874879497E-13;
6,86586006753311E-14;
5,30929889295429E-13;
-2,76718597916513E-13;
-1,12093783191557E-12;
-1,99355567005822E-13;
8,42238656161662E-13;
5,02332146536008E-13;
1,23578533050711E-13;
4,45587437067092E-13;
2,38622223450524E-13;
3,40227374403117E-13;
6,68614051816284E-13;
1,23661710366423E-13;
4,65528488883483E-13;
1,02801255144673E-12;
5,97339486049044E-13;
2,00010645782027E-13;
2,30180721383621E-13;
6,79364508820705E-13;
-3,53425168626664E-14;
-2,64947183908654E-13;
1,02998770695765E-12;
-1,32636041036528E-14;
-7,36338436987286E-13;
2,93000589464614E-13;
2,36430399187091E-13;
3,38818285658846E-13;
-2,13466571008736E-13;
-2,2457215386387E-13;
7,17665716737207E-13;
-3,59243744061044E-13;
-5,00385149454733E-13;
8,1004570964237E-13;
3,60844574795601E-13;
-2,02342609579377E-13;
7,04794823512386E-13;
5,14659666436909E-13;
-2,73530510507242E-13;
8,8936585792669E-13;
1,25200511463338E-12;
1,40795359855469E-13;
-1,19156054805521E-13;
2,99295034793034E-13;
5,43360849022313E-13;
2,54950958253563E-13;
3,45673416546236E-13;
7,62793767694785E-13;
7,57407223549183E-13;
8,61250660177087E-13;
8,82683617642096E-13;
3,32382370127742E-13;
1,9740623955266E-13;
5,07092837568917E-13;
6,71780148523309E-13;
9,76246993735615E-13;
5,05497215528585E-13;
-1,94712285973079E-13;
-1,84591428307001E-13;
3,77763379046308E-13;
9,24046537180094E-13;
2,86067493549654E-13;
2,79297838757986E-13;
1,13711174011768E-12;
8,99464632537561E-13;
4,17760465275255E-13;
2,23248560828541E-13;
-2,62476547510273E-13;
8,55326982827077E-14;
9,37471792205639E-13;
7,08307544268831E-13;
4,65044089591948E-13;
4,22205017844879E-13;
2,01916821854995E-13;
1,29020253881E-13;
7,1857124817755E-13;
1,18315428254151E-12;
3,42864687729739E-13;
3,79739544339068E-13;
1,1705057937898E-12;
8,59559804923569E-13;
5,86934594725562E-13;
4,83577919027881E-13;
1,91880322740549E-13;
2,29234318688872E-13;
4,44027148923254E-13;
6,6822996137518E-13;
6,41403355529078E-13;
5,85140502090015E-13;
1,4772106647692E-13;
-1,9568629617911E-13;
5,40690706144906E-13;
1,91318147863694E-13;
-4,67524518856163E-13;
-4,91530186850935E-14;
-4,8231169807598E-13;
1,15485405170579E-13;
1,38274137956428E-12;
3,84874345297506E-13;
-3,26244154224894E-13;
9,79836238872879E-14;
3,2138931945419E-13;
4,34853044164606E-13;
-1,57362539258731E-13;
-4,25995510685131E-13;
3,20342152551175E-13;
1,01588627290846E-12;
7,6154424734023E-13;
1,39257145040153E-13;
6,69510605237852E-13;
1,15652061813973E-12;
7,26590712078474E-13;
5,88904125365627E-13;
6,49777250990368E-13;
4,15039312471049E-13;
4,39731897292042E-13;
7,31574681038927E-13;
1,54881495236141E-13;
-2,69501626140321E-13;
2,35827372525297E-13;
3,54119415149033E-13;
2,86347209022197E-13;
-7,30979336910613E-14;
-2,49534936683339E-13;
3,33041603522443E-13;
1,90935886877886E-13;
4,50586410632464E-13;
1,30670537653953E-12;
4,04490926206186E-13;
5,14144886004925E-14;
7,778567188141E-13;
2,84923749133885E-13;
2,73556553589624E-13;
8,46815849143826E-13;
7,25311166087722E-13;
3,8188056516626E-13;
2,95131126090075E-13;
3,59883156413039E-13;
1,33172924258249E-14;
-1,55496364987155E-13;
3,88653296913076E-13;
2,77486579252807E-13;
-1,12136760898874E-13;
7,87849474924168E-13;
9,23052912724209E-13;
5,33709354048244E-13;
7,25189344378416E-13;
5,91931066764513E-13;
1,01020688380361E-12;
7,41509366402118E-13;
5,93266421382751E-13;
7,59923766127178E-13;
4,89183774773343E-13;
7,12317147418674E-13;
-2,28167792986973E-13;
1,2432662290017E-14;
7,2868288281281E-13;
1,16657753083661E-13;
3,75413878828208E-13;
2,46978345429709E-13;
5,9994118527718E-13;
1,0516267631438E-12;
1,41796899531662E-13;
1,68377993311098E-13;
1,17666208471517E-12;
7,43072277477739E-13;
-2,03307887009948E-13;
-8,18580467820554E-14;
1,37003045565181E-13;
5,40108228855327E-13;
3,28951676628863E-13;
-5,47428745331969E-14;
-3,14152835024674E-13;
2,48533002318616E-13;
1,23942194841488E-12;
-6,3952441857224E-13;
-4,17365507468432E-13;
1,25028959650544E-12;
-2,8571996244608E-14;
4,39474458704911E-13;
1,13960869828966E-12;
8,45039292274935E-13;
6,38364426170634E-13;
-1,09698149686911E-13;
6,94081920898672E-13;
6,51051625744394E-13;
1,98755719711944E-13;
1,27241345679405E-12;
5,82863852277503E-13;
1,36651415237756E-14;
5,16765446098225E-13;
2,97197867420367E-13;
8,23661164707976E-13;
5,62911885829449E-13;
1,14111247265692E-13;
5,63178266492914E-13;
7,76567531792529E-14;
1,94770003754712E-13;
4,85611207849723E-13;
4,82588386706669E-13;
3,3852945294069E-13;
-4,70801544062033E-13;
6,93149735356027E-14;
2,21405011678438E-13;
2,53525003552751E-14;
1,00034231100487E-12;
5,89972241957156E-13;
4,11251125969149E-13;
4,07791918484723E-13;
-6,71902283244104E-14;
2,81012029918087E-13;
9,66178616115867E-14;
6,03530394647346E-13;
6,00945546762685E-13;
-1,27159538059612E-13;
3,34633765914173E-13;
6,17827848493986E-13;
7,67893847579594E-13;
7,6556826874687E-13;
8,84344918555387E-13;
2,66900354567751E-13;
-3,16737903553365E-13;
4,68390841366907E-13;
3,31303796676709E-13;
1,98071403330436E-13;
4,1872465784069E-13;
-1,34253195715522E-13;
-2,49457269070462E-13;
4,94046841245301E-13;
7,24627804732445E-13;
3,39775801960055E-13;
1,54396817395685E-13;
-1,45756592147465E-14;
7,00285634956844E-13;
6,4245374183666E-13;
3,06334874606645E-14;
7,7850623078623E-13;
1,50794345452968E-13;
3,55994664618361E-14;
9,59856269246624E-13;
5,73443860562904E-13;
2,47765329045302E-13;
-5,87642930934496E-13;
-1,62159357791055E-13;
5,46969433943783E-13;
-9,50327154575249E-14;
5,37960470244369E-13;
5,06447386286722E-13;
-5,31827139319032E-13;
-3,69035803690068E-13;
5,60644390241212E-13;
3,64052247025398E-13;
-1,86523899321983E-13;
1,27457435550303E-13;
-1,24485523817796E-13;
6,68401256910292E-13;
1,28439589990339E-12;
8,94881753633341E-13;
1,09605981249821E-12;
-1,34645109744318E-14;
-1,91114663923627E-13;
2,74080231774932E-13;
2,33991162460441E-13;
1,07909256328307E-12;
6,03636934901201E-13;
2,55227234820038E-13;
7,94068807913527E-13;
6,99489446063926E-13;
5,52095025903238E-13;
3,91485683627299E-14;
-1,96956941886539E-13;
3,20490560798289E-13;
6,66670367526528E-13;
1,20244063339486E-12;
1,26022536677307E-12;
6,30869941964383E-13;
5,37418252191514E-13;
5,91079154463399E-14;
-1,97749121417048E-13;
6,90250447189792E-13;
6,63530444092329E-13;
4,36397627730175E-13;
1,01829639003329E-12;
3,97216494919994E-13;
3,37122767622571E-13;
1,15072827565479E-12;
9,91932881219E-13;
9,21212468884423E-13;
1,4926472560286E-13;
-5,43273951650457E-13;
-1,12155079884107E-13;
6,38007539408041E-13;
9,20612960337442E-13;
9,33318321403451E-14;
-1,62702189804646E-13;
1,12019387864992E-13;
6,05026371318378E-14;
1,60907075157238E-13;
6,04563074794581E-13;
1,11577655860109E-12;
9,26973969048379E-13;
5,60739408491637E-13;
4,55735395319E-13;
5,73564132871248E-13;
9,15982042821404E-13;
2,94194333474251E-13;
-1,26356537826095E-13;
5,87708465724727E-13;
4,37653682832501E-14;
1,01104320919493E-14;
5,95016941176057E-13;
-3,72116475762635E-13;
-2,14036464351897E-13;
4,30958363983978E-13;
3,70518301377299E-13;
3,35940437143938E-13;
-6,84444393151884E-14;
-4,40535216744639E-14;
5,11732153249383E-13;
6,99947689908144E-13;
-3,40630113700166E-13;
-7,13990850638951E-13;
8,59488476920529E-13;
8,26467073154553E-13;
-5,07209238548655E-13;
6,37151918036577E-14;
2,08271506948006E-13;
-2,36723023742827E-13;
3,8523333505417E-13;
5,76315446255867E-14;
1,17394603233063E-13;
1,15120065943029E-12;
1,26254893552265E-12;
8,13467074446357E-13;
3,5420790165538E-13;
4,39813086590409E-13;
6,86985299998511E-13;
8,34479864899883E-13;
6,97978559698599E-13;
-1,97792227069303E-13;
8,07970775917302E-14;
1,50806828825073E-12;
1,12583577475284E-12;
1,04326953743811E-13;
5,66233165700144E-13;
6,1859681251744E-13;
6,45589706584406E-14;
3,58027046281385E-13;
6,33977023587069E-13;
5,62814562423291E-13;
3,65583485489809E-13;
2,5469107574302E-13;
3,17920568793612E-13;
-5,81857928865169E-13;
-6,13992443854907E-13;
6,1108229904073E-13;
4,88995321141638E-13;
8,15881498140195E-13;
1,12282814314218E-12;
2,67314156017674E-13;
5,32026942426117E-13;
7,31590648007044E-13;
5,70225582995796E-13;
6,84064274783227E-13;
4,76611561684193E-13;
6,53520414175927E-13;
5,28118109664819E-13;
1,79673748808648E-13;
2,11244736165599E-13;
5,03398555395219E-13;
1,1949437654838E-12;
3,70650322548531E-13;
-5,07031960561335E-13;
5,83546151785614E-13;
5,67224558855545E-13;
-3,83537801186605E-13;
-2,6118740092653E-13;
5,05563137063005E-13;
9,25492109493775E-13;
3,38206816655627E-13;
-3,21851787527349E-13;
-1,19304421880166E-13;
6,88433529857691E-13;
2,65096588666963E-13;
-1,0446160230325E-13;
6,49751395310356E-13;
-6,15267047084868E-14;
-3,63354358674704E-13;
6,90682959461953E-13;
1,47169805443439E-12;
5,44430623876303E-13;
-4,51263642697185E-13;
5,0472217229339E-13;
2,26898391857625E-13;
6,61212393422208E-13;
1,11786771110914E-12;
-5,48026757682417E-15;
9,45812921387063E-13;
1,31886366584907E-12;
4,40143794973535E-13;
3,07608020107805E-13;
7,03907046776878E-13;
6,33832966729995E-13;
2,05896643917774E-13;
5,79826614904146E-13;
2,18246172095824E-14;
8,04413082849228E-15;
7,30108811326352E-13;
5,27996730017827E-13;
5,300429600037E-13;
2,0938217329689E-13;
1,34917484993982E-13;
2,86490347901052E-13;
7,08712356402014E-13;
1,03331612501636E-12;
6,02642438180072E-13;
1,03639861976818E-12;
1,91315176356466E-13;
-8,00328779105946E-13;
5,58057223284799E-13;
5,44369661070724E-13;
2,511757464945E-14;
5,39439749809805E-13;
2,25380915563663E-13;
3,92735914894902E-13;
6,05315771418979E-13;
-3,32224750103862E-13;
-1,66243341700156E-13;
9,60880956682582E-13;
8,22940094234118E-13;
7,11130440470468E-13;
1,2348276361359E-12;
4,17598710277864E-13;
3,26692864667132E-13;
6,59816767104101E-13;
-4,3029295264766E-13;
2,21291626541955E-13;
6,16047580060991E-13;
1,03526671735369E-13;
4,52164416367566E-13;
-6,02826069672346E-14;
7,77074198723858E-14;
3,67673409096056E-13;
4,74839409580996E-13;
3,20480492905841E-13;
1,9636627641663E-14;
3,66343444013401E-13;
-6,26393785889712E-13;
5,35169550688412E-13;
1,88283289279671E-12;
-4,02440490633557E-14;
-7,55446547127402E-14;
5,36052217140393E-13;
5,08229771736961E-13;
1,20182204425137E-12;
4,72796841300134E-13;
-3,48003857931027E-13;
5,03539519196161E-13;
2,40524208688284E-13;
-3,81915134519834E-13;
3,7603253055886E-13;
3,7039024828739E-13;
8,75824976853072E-13;
1,28448824096603E-12;
3,29068215291577E-13;
1,38839226791528E-13;
-1,54707170068319E-13;
6,28252512779804E-13;
1,45609947734652E-12;
-2,34398931669726E-13;
-1,93419404485515E-13;
7,84586496477245E-13;
6,20382333450777E-13;
9,09855254997722E-13;
1,67731980421643E-13;
3,28499530434005E-13;
1,54687625176861E-12;
4,89337482939574E-13;
-1,80777889512536E-13;
4,2265737317675E-13;
-3,07970893459904E-13;
-3,512508838592E-13;
7,28503023271956E-13;
5,88062431029783E-13;
5,29984090976574E-13;
9,25604475324739E-13;
7,57318279636575E-13;
4,17945622718185E-13;
3,06773403064275E-14;
-3,89374241810115E-14;
2,57173401791251E-13;
6,77518520285346E-14;
-2,68981093918614E-13;
7,54938157687465E-13;
1,19531877864077E-12;
4,92347639850992E-13;
6,62852472877625E-13;
1,59520340978057E-13;
-5,91895045492075E-14;
3,46257804738544E-13;
-1,95487837071402E-14;
-3,10409915468154E-14;
5,45033949415358E-14;
4,6562517213682E-13;
6,73370265497679E-13;
6,47824080498463E-13;
3,94593773646647E-13;
-1,17322255165829E-13;
1,21914121267154E-12;
1,53252589953803E-12;
8,98811492696241E-14;
-2,19178858220255E-14;
6,23504437354265E-13;
9,95780920433562E-13;
3,48108254042162E-13;
-3,15449679080043E-13;
1,7664278328737E-13;
1,11848331627967E-12;
5,09420818716199E-13;
-6,37966210355434E-13;
-3,55383878676304E-15;
5,72647814280964E-13;
2,05289170422369E-13;
-1,40893857523617E-13;
7,47568199351426E-13;
7,25787183020345E-13;
-6,85116987464798E-13;
-9,79949555082818E-14;
6,20040347739661E-13;
4,20306830156862E-13;
4,41870379118664E-13;
5,75456298507778E-13;
8,22334154427835E-13;
3,73256809635667E-13;
4,01446807989957E-13;
6,16497453603142E-13;
8,8085236253341E-14;
3,99612082078463E-13;
3,32554066892333E-13;
-3,11466989555869E-13;
-3,69373037930813E-13;
3,30008318681913E-13;
9,97448179563669E-13;
2,8715915325E-13;
5,13572416656121E-13;
1,44674695074841E-12;
8,24234655755741E-13;
4,4904956087664E-14;
2,75980000572953E-13;
2,69654837612468E-13;
-3,65021634845046E-13;
4,81601141591522E-13;
1,4822726208174E-12;
3,90194221975587E-13;
-1,89948567441953E-13;
6,81177932143138E-13;
2,64390875777669E-13;
-6,02604083825392E-13;
2,10918816704209E-13;
3,79339854929984E-13;
-4,58363242639453E-13;
-2,24303854723081E-13;
3,69503750300398E-13;
1,53448103964534E-13;
-2,38665727064461E-13;
1,41108684171397E-13;
3,13395860209093E-14;
-8,45516240705416E-14;
4,16882648452717E-13;
5,38292185003613E-14;
-5,66178609310957E-14;
8,75623968114953E-14;
5,86801342100737E-13;
9,37984527508731E-13;
1,32285598194809E-13;
4,25019850992163E-13;
4,19416722990134E-13;
9,11982594961195E-14;
8,71870640677019E-13;
9,45879009185553E-13;
1,25541677529219E-12;
1,07846328229451E-12;
1,09446347806594E-13;
1,35357500372412E-13;
-1,20829712030024E-14;
2,32264331017487E-13;
4,92621787907791E-13;
2,09263991136608E-13;
1,27286610788727E-12;
1,1731125543387E-12;
-3,79427680626344E-13;
-3,0588679184404E-14;
3,06120492903043E-13;
-2,89383082003257E-13;
5,10216139481112E-13;
9,47080552936609E-13;
2,69497651244021E-13;
8,61036299666437E-13;
1,26403499051858E-12;
1,17725709004911E-12;
1,07806818280934E-12;
2,11928622792359E-14;
-1,92633863106453E-13;
1,49936490205951E-13;
3,93271094140419E-13;
3,59779421191973E-13;
4,21457932855714E-13;
1,13007905295575E-12;
5,4148608818501E-13;
1,81892065843294E-13;
1,12578120715147E-13;
3,12507842468694E-13;
1,311799057891E-12;
3,19605913190254E-13;
-1,38303866992253E-13;
4,04855864542915E-13;
5,646599249497E-13;
4,81717517499538E-13;
-3,66859808213306E-13;
5,13843489915146E-13;
7,79566482770038E-13;
-4,18409709173744E-14;
1,90269828726446E-13;
-5,86166340937769E-15;
5,52974904919594E-13;
6,67063664318079E-13;
1,06697091670538E-13;
6,09975282731766E-13;
4,44446148703114E-13;
3,15157248547724E-13;
5,17410824827408E-13;
-5,49214345709286E-14;
5,64681268505405E-14;
7,99862390539681E-13;
7,03756114098281E-13;
-6,82978849538847E-14;
2,64007969458413E-13;
8,37145201578996E-13;
2,78556451958349E-13;
3,9030839365882E-13;
5,39407292706102E-13;
4,85190999043568E-13;
9,2860369793897E-13;
8,9316684865208E-13;
9,22671974343302E-13;
5,92992497909855E-13;
2,95703500078725E-13;
5,76778599715674E-13;
3,99924166032731E-13;
7,29338219830506E-13;
7,37752006924861E-13;
4,44394918980102E-13;
1,04322798919145E-13;
-1,79628713473009E-13;
6,07448440746404E-13;
-3,12224640639033E-13;
-3,86491985929039E-13;
6,92111564421449E-13;
-6,39382443322366E-13;
-5,10744722474636E-13;
2,29397639846403E-13;
-3,05374034188042E-14;
1,04250807308451E-12;
1,04893364836869E-12;
4,91533405025989E-14;
1,14675150454442E-13;
-6,52874190573504E-14;
1,47992943362611E-13;
5,73434682353164E-13;
1,47990616610415E-13;
2,76479047214059E-13;
3,83050634704382E-13;
1,92841394060308E-13;
2,80309798882827E-13;
7,1703919214672E-14;
3,48094724902573E-13;
2,86558171694798E-13;
-3,50477383501094E-13;
6,15593672937638E-13;
1,39384629903044E-12;
1,0624890652579E-12;
1,19068704746614E-12;
8,65107112531841E-13;
4,58434000096769E-13;
3,01656808391035E-13;
3,13738334346352E-13;
7,76119318657019E-13;
3,80220965883138E-13;
4,51329515070821E-13;
9,01494667102735E-13;
2,9149928507536E-13;
4,96177069543945E-13;
9,03268598408449E-13;
8,42416338690281E-13;
5,95502832813543E-13;
2,84008981747932E-13;
7,45194868275478E-13;
3,66685517613637E-13;
2,51021447559883E-13;
1,01750879992971E-12;
-1,11173930467161E-13;
-6,50144820180218E-13;
4,90632514248908E-13;
-4,19497989809989E-14;
-2,48923517791214E-13;
7,29591918716403E-13;
2,64273154093733E-13;
5,7587520706786E-13;
1,12758271293631E-12;
5,37884271175995E-14;
3,102943562009E-13;
1,02543548985171E-12;
5,71260815244267E-13;
4,73470758647579E-13;
-3,44748623002131E-13;
-5,02787184723578E-13;
1,03061145221082E-12;
7,98741094201489E-13;
4,03732357278904E-13;
7,25507700528037E-13;
5,20618319553028E-13;
6,31706989185947E-13;
1,87398837545629E-13;
-2,32440222778392E-13;
-1,15000092988693E-13;
3,15094415171985E-13;
5,61070842036184E-13;
2,58292562103592E-13;
4,6584132727547E-13;
3,08847540524255E-13;
4,80719092951522E-13;
1,08832921616656E-12;
8,54143717496901E-13;
3,66693600590384E-13;
-7,67894843515429E-13;
-3,12414805361861E-13;
6,35749658656771E-13;
-1,15044269522583E-13;
1,43834141332098E-13;
-5,48769514772679E-15;
6,61117124279271E-14;
1,07948768980246E-12;
3,59619392910507E-13;
-2,06292279264088E-13;
-2,03111798240315E-14;
5,163732482413E-13;
1,19507526973315E-12;
1,18305078922285E-12;
1,25098683892677E-12;
3,01434788877883E-13;
-2,27713903053903E-13;
8,8224846831936E-13;
4,05018249472467E-13;
-3,41898004546133E-13;
8,27748785564203E-13;
5,07127881005202E-13;
-6,79042986068093E-13;
3,73230034711536E-13;
2,34872326996233E-13;
-1,07636845517594E-13;
1,3857642058336E-12;
5,64559382715802E-13;
1,31790963172012E-13;
1,08943513750598E-12;
2,20197497002149E-13;
5,5286142544945E-14;
-4,03690836093163E-14;
-3,29553169382064E-13;
2,63579829513293E-13;
-4,08234497298319E-13;
-8,94957357039456E-14;
6,57483148045988E-13;
-7,93457865167319E-14;
-5,18856048127162E-14;
-1,03717830914742E-13;
3,20297954286809E-13;
6,85009071154599E-13;
2,62364078019527E-13;
4,209932083636E-13;
-1,18054741932421E-13;
-1,24879149907075E-13;
6,34976840362705E-13;
6,34221969587645E-13;
2,65301345040524E-13;
-3,60781313438867E-14;
2,73006910618448E-13;
4,51732677451073E-13;
3,48561572624083E-13;
7,27781154514819E-13;
4,49536389046985E-13;
-5,33411028822203E-13;
-8,16718092791315E-13;
-1,84152389957454E-13;
4,82227129187425E-13;
-4,64733552425241E-15;
-3,78027736349234E-13;
3,10790748792497E-13;
9,23061288454742E-13;
8,76797486900173E-13;
2,09738375817063E-13;
-2,95992637778196E-13;
1,64850530548887E-13;
6,36332480973561E-13;
2,31877423019046E-13;
4,45163815024548E-13;
1,04839150458015E-12;
1,08005392307719E-12;
9,14196306179838E-13;
8,68035055256271E-13;
6,69155293120747E-13;
3,08545784510304E-13;
3,52733577585135E-13;
3,10170843652199E-13;
4,62223822365515E-13;
-1,78291209906499E-15;
1,43850782550663E-13;
1,19873444539857E-12;
-1,56144928087398E-13;
-2,48227779903021E-13;
1,1321365010374E-12;
-1,59851394833707E-13;
-8,69685608387155E-14;
8,38379476200683E-13;
-2,41117236731229E-13;
1,79818055623476E-13;
8,10051542947024E-13;
4,31848386255312E-13;
3,96567255821807E-13;
2,23183154954146E-13;
5,09750710941092E-13;
8,63726203227843E-15;
1,83808783749929E-13;
1,06210164133405E-12;
-1,92613945504932E-14;
-1,09511914864254E-13;
8,3302375400238E-13;
7,77345952249728E-13;
2,06127968292495E-13;
-8,6129255705101E-14;
7,08682211741944E-13;
1,39602728313621E-12;
1,03981950250352E-12;
6,07906603882853E-13;
7,94416704041499E-13;
4,31635256647594E-13;
1,27038239585185E-13;
5,10004903280499E-13;
2,60837856286529E-13;
3,90228300777228E-13;
4,10039588982614E-13;
1,88028669012604E-14;
7,5417837449148E-13;
9,9472879928296E-13;
3,9760727945537E-13;
3,51318283291992E-13;
2,34101351042881E-13;
5,99037513411271E-13;
9,77991567256977E-13;
1,2706668789664E-13;
-2,10432755345091E-13;
2,19773879083677E-13;
7,12316940968763E-13;
1,13442870896897E-12;
9,16661366764745E-13;
6,63581677106712E-13;
7,98216970602604E-13;
5,57820211669196E-13;
-2,44035123693397E-13;
1,77806006646974E-13;
7,30631019278772E-13;
4,21465754825328E-13;
1,15936185208142E-12;
5,78456880943664E-13;
-3,17591097450107E-13;
2,9245202469467E-13;
4,40668335678247E-13;
8,90298636563073E-13;
4,51358639749732E-13;
6,72307202323543E-14;
5,80635721608578E-13;
7,6392511620875E-14;
1,02180481393954E-13;
3,84415965319065E-13;
4,27702212338118E-13;
5,8714586967582E-13;
4,74175251934239E-13;
6,77442198559887E-13;
-7,77719399230069E-14;
-9,05401906190523E-13;
-1,60657916151517E-13;
1,55857334262682E-13;
2,0825222931512E-13;
7,10074362319706E-13;
8,90402259838094E-13;
9,164165613846E-13;
7,21806297699342E-13;
1,18123192067255E-14;
-1,39117628725353E-13;
1,02080141235909E-13;
3,78922716558596E-15;
2,88300634316824E-13;
7,00252804359148E-15;
2,48664771283552E-13;
3,98974633092871E-13;
-1,39548046803613E-14;
6,48956804440118E-13;
-2,21000606674321E-13;
-2,49940023723972E-13;
4,39948741191803E-13;
-6,57599421982643E-13;
5,3162586396038E-13;
1,23708109477783E-12;
-1,06512466534418E-13;
3,44224673232079E-13;
3,8070007718419E-13;
1,27259429088546E-13;
8,1861151800595E-13;
5,1382841925896E-13;
-3,27653351611756E-14;
-2,1517091260433E-14;
7,24414457171491E-13;
6,00418613855437E-13;
-1,57854495326959E-13;
8,88576476379023E-13;
1,03020597181548E-12;
4,32135626286559E-13;
8,53776580074096E-13;
1,3192762135708E-13;
-8,32059931213573E-14;
7,34084061916701E-13;
8,31114486513588E-13;
7,34415715041089E-13;
2,09317254595854E-13;
3,35462295631374E-13;
6,74319756398513E-13;
4,97852010292802E-13;
9,01439266582055E-13;
1,30992688507821E-12;
1,43036083561761E-12;
4,2697532563105E-13;
-2,7249722394347E-13;
8,26740449948223E-13;
9,05857551495319E-13;
2,22737806236613E-13;
2,40463304034028E-13;
-1,82279151790939E-13;
4,55292327273729E-13;
1,12743528010692E-12;
-7,82500710362215E-14;
2,12721089203571E-14;
2,47113805656128E-13;
-4,33301589893004E-13;
3,00608342828454E-14;
-3,56763266501818E-13;
-6,48309276338629E-13;
2,68323875618357E-13;
7,23252841119132E-13;
7,1166605051432E-13;
2,12546207899457E-13;
8,57063262198082E-13;
1,05950206517838E-12;
-5,44351639102674E-13;
-3,37837221131528E-14;
1,15516615082268E-12;
1,02824821047286E-12;
9,15233995148297E-13;
8,77261912476289E-14;
2,43538967872761E-15;
6,27484802750151E-13;
-2,01397308319909E-14;
-6,65562505788696E-14;
7,75237972767503E-13;
1,66374987539592E-13;
-1,25726055309321E-13;
1,05968280939861E-12;
6,47606211242425E-13;
-1,04292663045661E-14;
2,9927668218161E-13;
2,61701689522901E-13;
4,58281648684853E-13;
6,88108840746311E-13;
4,1437772250955E-13;
-1,46376911226145E-13;
6,52728188354618E-13;
1,01052983485846E-12;
-6,06454613623978E-14;
1,00106971038028E-13;
4,26559500548962E-13;
-1,40201254106738E-13;
-2,73151332547156E-13;
5,08127097961018E-13;
3,46410037929176E-13;
-1,41935201155231E-13;
2,8449658033065E-13;
-1,22361048217396E-13;
-2,70103232374653E-13;
4,47625820881756E-13;
6,37493731772323E-13;
5,64645684200338E-13;
3,48516213068039E-13;
-2,11529575670282E-13;
-8,13781848172826E-14;
6,29032606486821E-13;
3,76282259540855E-13;
-3,77096989725609E-15;
5,30170386016676E-13;
7,29864428720687E-13;
2,45070927234745E-13;
1,91197973607254E-13;
3,25174275534252E-13;
5,36526559140994E-13;
7,48075518878217E-13;
5,04720498256048E-13;
4,34192046168142E-13;
6,63124017771564E-13;
7,89012637390749E-13;
4,17158022652553E-13;
3,0686797262839E-13;
3,14881926761943E-13;
7,44094152092006E-13;
1,42984539712981E-12;
1,66065587481185E-13;
-5,79059855981527E-13;
-1,2704456651576E-13;
1,00137303264684E-13;
9,19269850998894E-13;
1,38263628982163E-12;
1,16595720462651E-12;
3,04422530372095E-13;
5,32598184657011E-13;
9,79131637214829E-13;
-2,47623938502535E-13;
-1,60809678283244E-13;
1,8423491631185E-13;
3,79329278101383E-14;
5,51449214715046E-13;
4,02598779985434E-13;
6,31169004634847E-13;
1,20457894628692E-12;
9,71742057338136E-13;
6,36502581458521E-13;
6,76488261350434E-13;
5,58413849115525E-13;
3,17224507699785E-13;
5,27956748676911E-13;
1,81640325568635E-14;
-2,16774276078176E-13;
1,1685366248062E-12;
7,91217708019033E-13;
1,39573573460604E-13;
9,66909810631702E-13;
-4,0704876715437E-13;
-1,6149652114983E-13;
1,02606924961921E-12;
-1,17488915087777E-13;
1,00063593526891E-12;
7,22302935727615E-13;
-8,60441731569492E-13;
3,70405793599714E-13;
2,18795139330275E-13;
-4,22970587228828E-13;
2,75895921847835E-13;
-6,33002931735291E-14;
-1,85678924502616E-13;
4,86855157527972E-13;
2,60304512967244E-13;
-9,76202833587686E-14;
1,24357519221018E-13;
8,8137193491091E-13;
6,59188080635527E-13;
-5,63280643512378E-14;
3,86593064564102E-13;
4,67543175134513E-13;
4,9455717465536E-13;
4,87425977206516E-13;
5,8444836410665E-13;
7,20131487711194E-13;
-3,9673092056333E-14;
-1,38209195692864E-13;
1,72507687323571E-13;
3,24572820498063E-13;
8,3844309320765E-13;
4,94497842562055E-13;
-3,48893317851404E-13;
-1,11365987987068E-13;
1,87458350716339E-13;
-4,10044836236793E-14;
1,9502083768866E-13;
6,55935328158461E-13;
7,67067998738051E-13;
9,21350267104258E-14;
5,54716482435348E-14;
8,61411592590495E-13;
-2,3859610207442E-13;
-8,85577712930244E-13;
3,18819683978557E-13;
4,35880500596799E-13;
3,13811801128462E-13;
6,37013558990282E-13;
6,93812850804338E-13;
9,19838095534409E-13;
8,55800545743846E-13;
2,76711975020042E-13;
1,72738417715294E-14;
2,376135028229E-13;
4,02578543562532E-13;
6,59280966777484E-13;
7,70762645618876E-13;
4,24305029636083E-13;
6,93228568340279E-13;
8,0268140388408E-13;
8,79500176320521E-14;
1,64588673163178E-13;
4,76547506094958E-13;
1,94018588674855E-13;
3,94360394848439E-13;
3,50232676749527E-13;
-3,82694330466103E-13;
2,23681877974008E-13;
5,8561114561913E-13;
-1,53525838250081E-13;
1,36233926778534E-13;
2,83159683515667E-13;
1,87509006983068E-13;
3,07457440111782E-13;
-1,02595638976851E-14;
-3,6420267502071E-13;
9,37553416594837E-14;
6,4105128763215E-13;
4,65537659799371E-14;
-2,27686832547452E-13;
2,19796346597551E-13;
1,26739731794465E-12;
8,53479937759647E-13;
-1,93573633292014E-13;
1,01281180945091E-12;
6,13165701774592E-13;
2,94399514205048E-13;
3,8751205939228E-13;
-9,8483892916728E-14;
1,69831719045461E-12;
8,29533056578573E-13;
-8,15409172936138E-13;
-2,91548326674539E-13;
-5,36305075088064E-13;
2,48885276045583E-13;
8,19208670684009E-13;
2,20173197832723E-13;
1,57077435487061E-13;
3,52857249207564E-13;
7,30385151851601E-13;
1,67920467872247E-12;
1,42634193228815E-12;
-8,36448484502042E-14;
8,92385417035452E-13;
1,41506855955041E-12;
-2,40222545202268E-13;
-8,94786429850708E-14;
-1,50972576267089E-13;
7,72618068866102E-14;
1,07325363351786E-12;
-2,19435067394669E-14;
-3,58138914562398E-13;
1,90374267847865E-13;
7,96093638589144E-14;
1,0429659465908E-13;
2,61099478190916E-13;
4,14255637804677E-13;
3,82830522991252E-13;
5,41439398056113E-13;
9,91843459551175E-14;
3,22562977314942E-13;
1,18808995360883E-12;
7,47210447125686E-13;
6,54667640280973E-13;
4,56178833982627E-13;
1,689526248595E-13;
5,89388789094199E-13;
3,59169623669792E-13;
4,84177554671552E-13;
4,47275603354336E-13;
-3,73089723653314E-13;
-4,18293376121799E-14;
6,35839230105112E-13;
2,9182970262505E-13;
-3,92541253811062E-13;
1,33117124849798E-13;
6,40578649124325E-13;
-7,4259232781888E-14;
3,44173525240679E-13;
6,25966549440931E-13;
1,36484866910939E-14;
2,02181753123853E-13;
9,32914900408648E-13;
1,54907756866534E-12;
9,53595359593524E-13;
-9,5850750410506E-14;
1,17223981595301E-13;
1,11596432783647E-12;
4,50140039895109E-13;
-3,85650503085437E-13;
7,86900609755845E-13;
1,40929852460801E-12;
9,95274277511764E-13;
7,64731363017105E-13;
4,2125671164685E-13;
-3,27589265744604E-13;
1,45129068539646E-13;
8,53914850611503E-13;
-9,76497420522569E-14;
4,07276926248974E-14;
6,20236809658658E-13;
7,43723383557342E-14;
1,86847235894063E-13;
5,15708553053808E-13;
4,21304568815005E-13;
3,09161765549204E-13;
2,13077855633661E-13;
-8,32492739778369E-14;
-9,22975574430264E-14;
2,33882554654534E-13;
2,9261159030003E-13;
6,90421090161347E-13;
5,46063730066017E-13;
1,45515326791216E-13;
3,25602010416589E-13;
-3,52559511775927E-13;
-6,74082166805406E-13;
-5,2654572104322E-14;
3,2243976258024E-13;
1,09340653715626E-12;
1,09882185621475E-12;
2,22131099451805E-13;
6,22396136147184E-13;
2,21245353797569E-13;
-2,30166834432872E-14;
1,13912794786451E-12;
6,87279034984131E-14;
-3,09933590758676E-13;
9,08584417160887E-13;
6,0292748871288E-13;
2,52215137792469E-13;
5,10321988459197E-13;
7,30741407319351E-13;
6,98378333123347E-13;
3,38535835226076E-13;
1,75456254096215E-13;
9,0955972133153E-13;
8,50007627159083E-13;
1,95352642235243E-13;
9,44212549860818E-13;
6,5981722577822E-13;
-4,67882611473838E-13;
-3,55943222191896E-13;
9,07661678403697E-14;
2,33151420749404E-13;
-4,00969358574282E-13;
2,02300442717191E-13;
9,52215294469047E-13;
1,11270743496948E-13;
6,87099251000343E-13;
6,11624600108017E-13;
8,70466670639019E-13;
1,48972218956813E-12;
-2,79956337625289E-13;
2,44179317446679E-14;
7,63251800158057E-13;
-1,28661018798279E-13;
-4,83896258372302E-13;
1,60614516166151E-13;
6,59476808571001E-13;
-1,98367932731703E-13;
1,39239693322014E-13;
7,94476479526503E-13;
8,96934196889044E-13;
6,06365804637884E-13;
-2,1381171346113E-13;
9,73258653058932E-14;
2,85253220536952E-13;
8,37689180117058E-13;
-9,22913671658906E-14;
-8,6162940676024E-13;
1,43900355619133E-12;
8,88725293054658E-13;
2,25499614164968E-13;
6,7487222196743E-13;
-1,5003830848062E-13;
6,56152063944916E-13;
6,92317679941819E-13;
8,17914116576719E-13;
6,22213994279828E-13;
-9,29264893654194E-13;
1,13521947162946E-13;
2,6608045108632E-13;
-3,26045987534094E-13;
1,11055081656863E-12;
7,48385451395584E-13;
2,12908127524125E-13;
5,45005360948893E-13;
3,8504815252744E-13;
8,27686890547968E-13;
5,46903745549504E-13;
1,35514805186158E-13;
3,55994052981264E-13;
5,27032374082976E-13;
7,31298794372654E-13;
5,89345758961706E-13;
3,52054072150098E-13;
-4,01870016820071E-14;
-2,10565069541217E-13;
4,20666827412232E-13;
1,04630662550395E-12;
6,0683115451703E-13;
5,71412103784277E-13;
1,01054666100202E-12;
9,41558219544E-14;
-1,65186955057858E-13;
3,53593435569661E-13;
2,88712410577178E-13;
2,35755667590542E-13;
1,70192898473956E-13;
2,4112384216766E-13;
4,7948301272375E-13;
6,80474515352933E-13;
5,90646091061511E-13;
2,6492373627968E-13;
8,96840345303764E-14;
-1,13085646419921E-13;
-1,78590464559357E-13;
6,16750386870292E-13;
1,41192023865613E-12;
5,44232448775206E-13;
1,21937093996601E-13;
1,04694712673673E-12;
1,85153663888976E-13;
5,76962848338833E-14;
1,23270327752141E-12;
8,16921456415462E-13;
6,08731352093632E-13;
-8,75308776958729E-14;
-8,54833911014718E-13;
-3,03316174571699E-13;
2,42839542533557E-13;
5,56045910352643E-13;
5,91848095620818E-13;
6,90929649989732E-13;
4,61512604915118E-13;
-4,86771211746788E-14;
3,19628025322902E-13;
7,44915730092687E-13;
5,76109585716596E-13;
2,59074341039321E-13;
1,87775102716145E-13;
4,98849270119715E-13;
5,01710044883676E-13;
3,19844852410666E-14;
-8,15057884279124E-13;
-4,83277048551255E-13;
6,13338825243689E-13;
6,54604915598389E-13;
5,49453191495667E-13;
1,01731428365658E-13;
8,99339668579281E-14;
3,77769229127549E-13;
3,86965452081588E-13;
7,00302788510365E-13;
5,93516993504274E-13;
7,63279704177339E-13;
4,18494674092781E-13;
3,25111418837713E-13;
5,68149273509493E-13;
-3,20824062124745E-13;
2,91378485939648E-13;
4,3771488390412E-13;
-9,97092869068134E-14;
4,41911643125463E-13;
4,40612712921385E-13;
9,9589537821331E-13;
7,60753210130763E-13;
2,99458243173415E-13;
2,40229911576622E-13;
-3,95099517161784E-13;
7,40100219103685E-13;
1,30587670774263E-12;
-1,04481375134512E-13;
4,75546949201754E-14;
7,75871491555872E-13;
1,15648030766301E-13;
7,50335820820311E-13;
1,37693653127345E-12;
-1,41056892933277E-14;
2,66273246668905E-13;
1,41717934642174E-12;
8,49046475581077E-13;
2,87446546575646E-13;
5,32753512384544E-13;
5,3761046864169E-13;
-1,34207984298276E-14;
5,03636776160618E-13;
1,35092647303241E-12;
5,3937183815717E-13;
6,76904891552447E-13;
8,5328683114858E-13;
-2,55890106948985E-13;
7,87145164178519E-13;
1,21663218917929E-12;
7,29545130984687E-13;
1,04944977214994E-12;
-4,67553259385713E-13;
-3,66774626313199E-13;
7,0371400996617E-13;
-1,26038159837454E-13;
2,34910425077957E-13;
4,04542723366451E-13;
5,78516638883231E-13;
1,24688297228049E-12;
1,76884890718471E-13;
-2,71630176718709E-14;
1,00877903968097E-12;
6,52416032861892E-13;
-3,01750209516495E-13;
9,84730487035983E-14;
3,73375826518119E-13;
1,82686218005716E-13;
5,51315027018086E-13;
-1,15167433860667E-13;
4,72860630994507E-13;
1,02509492200604E-12;
-3,75148407883444E-13;
7,42246801412677E-14;
6,44858739580617E-13;
9,89306985080601E-13;
7,57797118749697E-13;
-3,57642868014902E-13;
6,46039933848865E-13;
7,0977106104072E-13;
-1,68052126889939E-13;
1,78141158877338E-13;
2,0839361955783E-13;
3,80324070156533E-14;
2,0875717406081E-13;
5,75543332965315E-13;
4,85841735633021E-13;
5,13048514728406E-13;
3,39449000324255E-13;
-4,62534670859449E-14;
7,88369688902822E-13;
8,93226119212385E-13;
-1,23222651965815E-14;
5,83903504314844E-14;
-7,8601436315837E-14;
-2,23511869142545E-13;
5,32935005839944E-13;
6,64587503617987E-13;
3,05679577022527E-13;
-7,65398242731939E-14;
-1,23966417100073E-13;
3,01019374476216E-13;
7,67782519246714E-13;
1,40797080019052E-12;
1,18367661520634E-12;
2,82249768351526E-13;
-2,08702796185401E-13;
2,96051103785962E-13;
3,01253517883594E-13;
-1,9452292073361E-13;
9,52790554439106E-13;
7,93121659570677E-13;
4,19439733053523E-13;
1,29684476134312E-12;
9,40547550954831E-14;
-9,39868301612367E-14;
3,64049963013457E-13;
-6,11032096380272E-13;
2,56938569467442E-14;
1,75272883542683E-14;
-6,0182982451234E-13;
2,96121959161018E-13;
3,25797562680848E-13;
-1,06820470916335E-13;
6,57667990384535E-13;
1,62228569962637E-12;
5,06360613751154E-13;
-5,47358803751585E-13;
3,03878553600458E-13;
6,27480453720038E-13;
7,65812001256798E-13;
7,38669207229399E-13;
2,91342401171261E-13;
1,53438617340855E-13;
8,10329108271772E-13;
9,28587176950609E-13;
-4,43290464339828E-13;
-1,13040356206148E-13;
9,17530439710923E-13;
8,54943395893687E-13;
9,76995762483335E-13;
6,072412592028E-14;
-3,89125990925478E-13;
2,94495102446854E-13;
-2,82954532720298E-14;
7,79106329587632E-13;
1,1939970200242E-12;
2,53459736013736E-13;
1,0650449208095E-12;
6,76459357493455E-13;
-5,41473541956531E-13;
1,69937360711918E-13;
6,15163514705168E-13;
1,42190634936095E-13;
7,26592410305169E-14;
5,44710765503154E-13;
1,30620971082906E-13;
1,53254224845872E-13;
1,08627597073138E-12;
5,29357225423134E-13;
2,41667439325554E-13;
7,07715178488084E-13;
3,70395817616051E-13;
4,21627216316673E-13;
4,28204613986744E-13;
-1,16754456018315E-13;
1,57662978005801E-13;
5,77318327634807E-13;
-1,07052654738578E-13;
-2,97246195333629E-13;
9,53078116667043E-14;
-2,89053861739256E-13;
-1,67391798310359E-13;
3,95171252962124E-13;
5,67581052201448E-13;
7,27499759123866E-13;
9,52135192304715E-13;
1,00691251027565E-12;
2,43362502987015E-13;
-6,72600097196705E-14;
2,09007784333461E-13;
6,98814988910138E-14;
7,10446983055912E-13;
4,94111422168496E-13;
-2,01531827264431E-13;
6,95318773271341E-13;
5,28957542798108E-13;
-1,31246534984437E-13;
1,49081108995904E-13;
2,1305960930435E-13;
5,41776285347812E-13;
7,65388950262281E-13;
4,274346761305E-13;
4,47624605434626E-13;
8,79141632969385E-13;
3,78001170845365E-13;
-7,13802706972695E-14;
7,86696236003716E-13;
9,17888548648231E-13;
6,74455865245992E-13;
3,95825658850156E-13;
2,52443433189689E-13;
1,00696747236954E-12;
2,87217571214093E-13;
4,76051571511976E-13;
1,1619522873156E-12;
-5,8574465985559E-13;
4,05892758050926E-14;
1,1500385736116E-12;
1,23001994610054E-13;
2,56666734405062E-13;
4,29350256601258E-13;
4,47272402068567E-13;
9,90138007754386E-13;
7,04603503439398E-13;
2,07341370745915E-14;
5,15034385375497E-13;
6,61255537118885E-13;
-1,91889461513024E-13;
8,161676690764E-13;
1,36283181596219E-12;
4,59749993308668E-13;
4,77601410716449E-13;
-2,32908150075658E-13;
-2,41801491872145E-13;
6,53194106388659E-13;
1,57386154391388E-13;
2,0837429201414E-13;
6,91388086054604E-13;
2,78009291448548E-13;
-3,17886609936468E-13;
-7,05321200359969E-15;
7,25393218105695E-13;
-4,82388563009756E-14;
-7,67916918621102E-13;
-1,10640268322703E-13;
7,18960579020217E-13;
1,2194069374114E-12;
1,28238817768521E-12;
1,13628876425477E-12;
5,42828680293368E-13;
2,90563028522321E-13;
4,90922915613311E-13;
2,48079934857685E-13;
1,89336040566903E-13;
5,89718249702894E-14;
-1,57617612270649E-13;
3,40894626180831E-13;
6,3746146985735E-13;
3,28478511984255E-13;
6,67674715978921E-13;
7,99773877805244E-13;
1,86619946697282E-13;
3,48999747271305E-13;
3,51424164445927E-13;
-2,30792622733582E-13;
3,50292133310839E-13;
8,97404350139987E-13;
1,14498091603513E-13;
1,09483785251011E-13;
9,76300002963045E-13;
4,89948973921622E-13;
-5,1012008614951E-14;
7,43830758093542E-13;
6,10822478998726E-13;
-1,25739582865164E-13;
-1,0300232628884E-13;
2,51604857961656E-13;
6,33163015194349E-13;
5,2388205540189E-13;
5,94412052042628E-13;
6,15223915565197E-13;
9,24644284928886E-13;
7,77774473874605E-13;
-5,48160923731624E-13;
6,56004324257864E-13;
1,19280790400244E-12;
-4,67619305346321E-13;
4,63222142724375E-13;
4,17420315720857E-13;
-6,49629737570412E-13;
4,05247361119928E-13;
1,37113111064975E-12;
1,01407014201325E-12;
1,51570033562599E-13;
7,35952274882561E-13;
1,17871605192756E-12;
8,84778620512856E-13;
1,02590579207735E-12;
5,27374208884775E-13;
1,36931667531557E-13;
5,39288443097807E-13;
8,67411019804013E-13;
9,80243929287072E-14;
-4,92323814634542E-13;
1,17214461467563E-14;
8,96368397937892E-14;
1,90415684002682E-13;
1,96258277585585E-13;
-1,80904970250238E-13;
5,31725495762023E-13;
5,49787894366393E-13;
6,98644063559631E-14;
8,9699751383335E-13;
3,73209685454975E-13;
-9,66493868272088E-14;
3,67963776966274E-13;
-2,63455646934147E-13;
-3,37544657206286E-14;
9,63198529147762E-13;
1,21473270329167E-12;
7,77794563448861E-13;
3,31577427464874E-13;
5,64385926151251E-13;
7,52146939425691E-13;
6,40380003027304E-13;
9,47126638988121E-13;
5,83139508977164E-13;
2,81769019973923E-13;
1,18789197176982E-12;
6,76193274950075E-13;
4,69381228069579E-13;
1,00230626053063E-12;
2,12932320107401E-13;
2,59457529996826E-13;
3,07666369897015E-13;
5,65527390235166E-14;
2,80014958943268E-13;
2,00780868233888E-13;
-2,00454048565679E-13;
-6,12268190065167E-13;
5,94785571760465E-13;
7,8642398843796E-13;
-6,57554987677852E-14;
8,17446131216767E-13;
7,74201560770652E-14;
-4,59087926661892E-13;
9,60388020083714E-14;
-2,63036191415069E-13;
5,849394766385E-13;
8,22635315657963E-13;
-6,16151885410195E-14;
-6,89833239337788E-14;
3,13357191796234E-13;
3,1998393012282E-13;
1,00960891993498E-12;
1,48428180557939E-12;
5,95254798342581E-13;
5,46389635916548E-13;
5,53882357650352E-13;
1,73324624667266E-13;
2,85230335716067E-13;
2,56357177975342E-13;
4,15547545036002E-13;
4,19857029643873E-13;
8,0694226291148E-13;
1,24195912485016E-12;
-1,69204253980855E-13;
-3,17611593526351E-13;
4,45642001799195E-13;
-2,77791819548274E-13;
8,14130278948816E-13;
8,90085608200777E-13;
-3,87624076959022E-13;
7,49505938616081E-13;
4,56750598444961E-13;
-9,03185133168205E-14;
1,03243318792427E-12;
7,92087188190203E-13;
5,73296776934391E-13;
3,7474037934626E-13;
2,96928211006656E-13;
9,61686833845609E-13;
-2,01669867821051E-14;
-1,23955430116251E-13;
1,12053839732756E-12;
3,50768708178005E-13;
1,32199853072037E-13;
8,89977819805148E-13;
4,35765589177429E-13;
4,19072963808344E-13;
4,03857621936123E-13;
1,93069102311383E-14;
6,92647109034417E-13;
1,14500607978488E-12;
3,56797073598994E-13;
-3,84708854878768E-13;
2,35488881824186E-13;
6,59952324837461E-13;
1,94483231927998E-13;
2,23035439171994E-13;
-2,3468684302818E-13;
-2,37061804181818E-13;
7,64096862331043E-13;
8,28256792095432E-13;
8,06955365047621E-13;
2,6108136403807E-13;
-4,68014254509511E-13;
3,05383644985815E-13;
8,27369464218471E-13;
9,10265568990155E-13;
3,41079088016822E-13;
-7,31222197690202E-13;
-7,52421925315848E-14;
6,61877680079037E-13;
2,5104636592604E-13;
-1,08709630912943E-13;
-2,48743317075529E-13;
5,4419657857622E-13;
1,00368551896712E-12;
3,99915457049359E-14;
4,38899742198832E-13;
1,12697900975792E-12;
1,9678573073612E-13;
1,51140177058313E-13;
4,28684246086841E-13;
9,71812631151986E-14;
1,86360473541251E-13;
5,2891596618457E-13;
7,25582149501941E-13;
4,96764980151178E-13;
2,17002424660169E-13;
-7,63752104817906E-14;
-2,59900316518621E-13;
-3,02198894188689E-13;
2,72420067237924E-13;
9,72521650748413E-13;
2,29079216649953E-13;
2,04346105743253E-13;
7,10891677024749E-13;
3,25184097429667E-13;
3,04895727526788E-13;
-8,00311181559641E-14;
-1,56367164413365E-13;
1,39913857207468E-13;
2,97675205281395E-13;
3,85351094183617E-13;
-4,09245127456878E-13;
-2,79042256719584E-13;
3,90278891766934E-13;
-2,2703533996917E-14;
-1,34314977990667E-13;
3,8787734144845E-13;
3,21412721735844E-13;
2,94679412327799E-13;
6,87904903577728E-13;
3,07996808813099E-13;
4,75771524468583E-13;
6,68309548108289E-13;
1,72476250613626E-13;
8,85065185756723E-14;
-2,65817989596004E-14;
9,4067085262719E-13;
7,70533418030126E-13;
3,45369279631187E-14;
1,13499081740133E-12;
4,82763658528836E-13;
5,42344542198178E-14;
1,09674336187113E-12;
1,14588270837983E-12;
7,88005364371728E-13;
2,95107808007603E-13;
2,86328044680404E-15;
1,70213865415565E-13;
6,92874373236627E-13;
6,42609238697335E-13;
5,31603498196712E-13;
4,85636897618384E-13;
-2,16355102051468E-13;
-3,77000804332357E-13;
-1,48572197626476E-13;
7,43438798138919E-13;
9,31176777660056E-13;
1,72152782947169E-13;
1,99481215103707E-13;
-1,02967016906548E-14;
5,12307084558959E-13;
5,13652471520462E-14;
-3,4664699936104E-13;
1,4097191323273E-12;
5,87896179019593E-13;
1,20786115534898E-13;
9,05394095641207E-13;
-1,541700040341E-13;
6,04937424028779E-14;
3,86273810973392E-13;
3,8510928151375E-14;
1,31524888613067E-13;
5,80944529943035E-14;
3,11611389784633E-13;
5,55241778320327E-13;
6,8161375201702E-13;
8,07148654508454E-13;
7,60957394523819E-13;
2,99125147014697E-13;
2,49949226355957E-13;
8,69003452442399E-13;
3,89588320252769E-13;
-1,83689785912572E-13;
4,64609218258022E-14;
6,78343026263383E-14;
1,03464788504305E-12;
1,21553530453006E-12;
2,12745979866867E-13;
4,71946267276118E-13;
2,48953280630114E-13;
2,34122360023324E-14;
4,60433032271192E-13;
6,50404480786798E-13;
6,80481755153987E-13;
9,75294810906444E-13;
1,73433027621607E-12;
1,05916816248648E-12;
1,59548747254278E-13;
1,31142667328444E-13;
1,91941740887019E-13;
6,11851784690098E-13;
4,45414906013397E-13;
1,77095662510485E-13;
3,29976443138784E-13;
8,43303798615561E-13;
1,52212089603874E-12;
7,8291786150394E-13;
-4,70483176087132E-14;
4,27363377885012E-13;
7,19018876867812E-13;
7,81381655107156E-13;
2,42829282946956E-13;
-2,21090303478036E-13;
4,76411260411169E-13;
6,63894370957645E-13;
4,08771320822912E-13;
-1,28601732677928E-13;
-2,33863307360304E-13;
3,59789820135456E-13;
3,11900099572762E-13;
3,81386929285857E-13;
3,99875504843724E-13;
5,02835595739514E-13;
5,11836812164286E-13;
1,93074278572962E-13;
4,26559399768353E-13;
1,24735461984969E-13;
2,33408321303685E-13;
7,12059916396592E-13;
2,29583062318241E-13;
5,02430875880889E-13;
1,3006040584199E-12;
1,05752370704435E-12;
-1,86106574622797E-13;
-4,65165758926769E-13;
-1,9099718559381E-13;
-3,25681112620075E-13;
5,91108094846696E-13;
7,05024210847718E-13;
7,26196720710572E-13;
1,01468732666203E-12;
8,99954617223585E-14;
8,53436512986964E-13;
8,38109928750269E-13;
-3,98389811455681E-13;
4,50558064028504E-13;
3,77691917595754E-13;
4,93612774387647E-13;
1,53973028287874E-12;
5,82895898073538E-13;
-4,39944617113832E-14;
3,41963005103034E-13;
4,05015072691058E-13;
4,30103561027163E-13;
2,7438404616977E-13;
3,94375758136416E-13;
1,07962134868702E-13;
-2,25830791941559E-13;
-5,95600705211491E-14;
-1,69436685826558E-13;
6,9119638538162E-13;
1,00231604517798E-12;
-4,26565860295512E-13;
-3,26063632173802E-13;
5,50489003042194E-13;
3,76554471089087E-13;
4,26713444519112E-13;
1,1438081248642E-13;
-9,22036944005525E-14;
2,29030790895844E-13;
1,43830677192787E-13;
-1,97220240699663E-13;
8,18535335318002E-14;
1,34056796887536E-12;
1,16177735096066E-12;
2,39483625939906E-13;
1,75907755575141E-13;
-1,27418146042644E-13;
4,12149050252967E-13;
1,52594860374023E-12;
9,54336414831684E-13;
3,66619268258075E-13;
8,26988499480481E-13;
3,95230869710946E-13;
9,06827552125665E-13;
1,52294729312683E-12;
6,45220221556348E-13;
4,15106518980922E-13;
1,94265938136473E-13;
2,51786507563925E-13;
8,69993954703003E-14;
-2,51183864520567E-13;
4,09204800573706E-13;
3,62975646662436E-13;
2,94643852343311E-13;
9,39889923388544E-13;
9,79092789937487E-13;
-3,82382041722718E-13;
-4,02692505553154E-13;
1,02052920713096E-12;
-2,94217422459816E-13;
-2,59385006283531E-13;
6,07441803905413E-13;
-7,7238300097097E-13;
7,15187030978584E-13;
1,39334948077017E-12;
3,41838519920922E-13;
6,47252935218502E-13;
4,02336710595723E-14;
4,5272095353894E-13;
6,10148953409391E-13;
4,13802905002131E-13;
1,21619541265988E-12;
8,80181963223449E-13;
7,38046184826684E-13;
6,22774623330492E-13;
6,4447253161084E-14;
3,15487131499668E-13;
9,93200579794153E-13;
5,23739978880255E-13;
-1,21341105328802E-14;
7,77130052287976E-13;
5,17348760228412E-13;
1,84706999826917E-13;
2,62593744900525E-13;
-3,24677544046605E-13;
-2,61957461166808E-14;
5,51365273884567E-13;
6,04887101525515E-13;
4,04252525011147E-13;
6,37825692238571E-13;
8,81167717298741E-13;
4,79469152370286E-15;
-5,08158539102071E-13;
-1,0932171822422E-13;
5,93842857613268E-13;
1,56991056991578E-12;
8,96653967833278E-13;
-1,71125276234563E-13;
6,31335273398932E-13;
7,06452500721348E-13;
6,96150739789419E-13;
9,18274143958968E-13;
1,89242895104723E-13;
3,19262906182606E-13;
4,98060583057879E-13;
6,54649466417172E-13;
9,80146602635277E-13;
7,86775268788442E-13;
7,5323389514271E-13;
6,2643418705719E-13;
5,51722262144408E-13;
5,22998666679375E-13;
8,36322571120207E-13;
2,99719559477209E-13;
-1,58634714127523E-13;
1,04830914248888E-12;
3,42245796558129E-13;
2,10721188862183E-13;
1,19928725088026E-12;
3,23699478025679E-13;
1,72070393927222E-13;
-1,89247908524711E-13;
9,33492043087156E-14;
1,02225639182845E-12;
-3,91981865214124E-13;
-4,06495935251948E-13;
1,17420151290043E-12;
5,99763061719396E-13;
5,56831986827795E-13;
1,1829206110805E-12;
1,56617302110245E-13;
5,58033750365129E-13;
1,17325192444057E-12;
1,94895293216638E-13;
6,57104093744785E-13;
7,13400920031067E-13;
-1,09909920275962E-13;
1,47805783132731E-13;
1,38134330906623E-14;
2,31607135572824E-14;
1,89363150355351E-13;
2,35963370255812E-13;
2,43315273484167E-13;
-2,38770754933585E-13;
4,81103171945697E-13;
3,52762666427759E-13;
-2,82851831823327E-13;
7,41334605185147E-13;
7,264964419787E-13;
8,3541605747599E-13;
1,21805504597066E-12;
5,13041243316646E-13;
4,98977788390849E-14;
-1,06468961480426E-13;
4,03573985357266E-13;
8,99429666253507E-13;
6,04398111021055E-13;
1,23859902994312E-13;
1,94176053390949E-13;
5,57725916670471E-13;
4,45064691501564E-13;
8,34533667604392E-14;
-1,61074791323686E-13;
3,05218430841193E-13;
4,90333845392962E-14;
-5,16045194024042E-13;
7,8619971231191E-13;
1,58696179103671E-12;
8,67932955390605E-13;
4,95593593811783E-13;
2,96819410018354E-13;
4,88553498945222E-13;
1,06832861804494E-12;
2,92536084883975E-13;
1,40791600872653E-13;
9,14087117962363E-13;
3,30001829969506E-13;
3,01059339800737E-13;
3,54089886580821E-13;
3,82600785081364E-13;
9,25302895999101E-13;
3,06528432038441E-13;
8,58908212143769E-13;
1,1998426743534E-12;
9,42936821536908E-15;
4,2689510971157E-13;
2,81543207447525E-13;
3,06812742495913E-13;
6,62550348759944E-13;
-9,37785199136168E-13;
-6,12343181923221E-13;
1,09404036766048E-13;
-2,0441105476274E-13;
7,15710989784988E-13;
7,241690302562E-13;
4,77051387269517E-13;
6,59356505681323E-13;
3,99513650715974E-13;
4,04601567042372E-13;
5,08253957579895E-13;
7,68491994005545E-13;
3,4882828501823E-13;
1,60357116862955E-13;
9,17389112419657E-13;
2,93990934768092E-13;
3,81360591152788E-13;
7,73676332882387E-13;
-5,02990228509813E-13;
3,29166186902714E-13;
1,10087718531141E-12;
-2,88029509934343E-14;
8,50837785329452E-14;
4,60042046890791E-13;
4,21112751065207E-13;
3,26646632351971E-13;
9,06144769137462E-13;
1,14423382243542E-12;
5,04444177689909E-13;
6,11521129763497E-13;
-7,32569131751326E-14;
4,55475262172001E-13;
1,17847399985698E-12;
-3,6862380069344E-13;
-2,68570037944581E-15;
3,94406441608744E-13;
1,97263889218481E-14;
6,47717031474521E-13;
4,19574996967535E-13;
6,37110979409858E-13;
2,9097437453731E-13;
-4,85079273625324E-13;
6,44579116301968E-13;
8,21451547998297E-13;
-1,65942394213244E-13;
2,2468461457855E-13;
7,8032666364476E-13;
3,67778146581791E-13;
6,04121374806181E-13;
7,16473087800669E-13;
2,57702331964561E-13;
8,757221878027E-13;
1,24121551531904E-12;
5,56752482356001E-13;
6,99601034363366E-13;
1,45815914673467E-12;
7,89259231330915E-13;
4,73727438962437E-13;
6,22603726555381E-13;
2,04971004217596E-13;
5,30879471908357E-13;
7,06560207063047E-14;
-1,10726310959499E-13;
5,48449698790819E-13;
5,92901832651663E-13;
3,86634434543315E-13;
1,3858236550242E-13;
7,20493079702773E-13;
3,0754926827005E-13;
2,42982701260004E-13;
1,02060094044354E-12;
-4,10605543364112E-13;
-2,41609724801635E-13;
4,60810220055359E-13;
3,94389441049267E-13;
1,7924609075674E-12;
6,67249480680919E-13;
-7,65021226585874E-13;
-1,84007746987103E-13;
6,07059276409358E-13;
1,46172109615114E-12;
1,89740735998517E-13;
-3,75289720569318E-13;
9,72611473403123E-13;
5,03963904703675E-13;
-1,76073629575929E-13;
-6,42305822240804E-14;
-1,38073994624736E-14;
1,03717966528151E-12;
9,14473403631547E-13;
-5,6586597809649E-13;
-3,82378355499378E-13;
7,16502690971048E-13;
8,16073842116574E-13;
-4,34083649357248E-13;
1,421171197632E-13;
1,03994201604221E-12;
-6,14850028824924E-13;
-1,18535830865335E-13;
7,67191597996284E-13;
1,87004518176773E-13;
7,15811481556318E-13;
2,85087230439598E-13;
2,00575355604836E-13;
5,94692901720356E-13;
4,66543228223266E-13;
1,16233873161688E-12;
9,54689423409634E-13;
7,23600174953748E-13;
9,00987961965298E-13;
7,11951809638614E-13;
-4,4724689012931E-14;
-5,86427020770555E-13;
5,57650209101442E-13;
5,52308827367769E-13;
2,85432944796151E-14;
6,92691842069606E-13;
7,99498768986209E-13;
3,55285841524738E-14;
1,82140961769366E-13;
1,13341677309734E-12;
4,66238266591002E-13;
2,88885921993755E-13;
6,73863518639541E-13;
8,04872646342654E-14;
2,3428140717902E-13;
5,53656964679949E-13;
8,62772873404313E-13;
1,0417855177385E-12;
3,98610130390866E-13;
2,73971005791189E-13;
9,09387539072778E-14;
-5,3241078971235E-13;
-7,06109099941486E-14;
1,91005812318151E-13;
5,18569515648344E-13;
9,94030989328375E-13;
3,79073560762585E-14;
-9,19256527743062E-14;
8,95875832127985E-13;
3,47909502937019E-13;
-4,95775782401108E-13;
6,69407121589298E-13;
1,03153814406649E-12;
2,09993360678607E-13;
4,6934969404593E-13;
5,82027305812611E-13;
2,99474207473935E-13;
-5,19012973409618E-15;
-5,71795352625203E-14;
-2,59044909419376E-13;
-1,11503831414694E-13;
3,68939647220117E-13;
-1,80291934707386E-14;
1,87061905680837E-13;
7,79504523531165E-14;
3,61307734187501E-13;
1,22527791426757E-12;
3,38611884838234E-13;
3,57022280842643E-13;
9,36271651735943E-13;
4,32347077075568E-13;
2,88894836468826E-13;
5,07084013190078E-13;
4,30685261905311E-13;
4,04941248055701E-13;
8,69650634600183E-13;
8,85786217603087E-13;
2,82954862188405E-13;
2,63560357942628E-13;
1,51296573867741E-12;
1,71339941392846E-12;
