7,71104656390513E-13;
6,83349651976002E-13;
-4,66376702718818E-13;
-1,98987218262653E-13;
7,77884696677497E-13;
8,467581657449E-13;
5,89473887795216E-13;
2,9692105401931E-13;
2,41411388738013E-13;
5,12126605212504E-13;
3,91029487648773E-13;
-7,72139986029242E-15;
3,72866892882024E-13;
7,11362533514677E-13;
4,37453137840653E-13;
5,1129141082788E-13;
6,07082935756019E-13;
7,38804625245508E-13;
4,97969396213523E-13;
2,87794198344087E-13;
6,50846784372863E-13;
2,2939784739694E-13;
9,00263347116585E-15;
1,74107971134167E-13;
3,25859766372576E-13;
5,30094735718859E-13;
4,3115521957209E-13;
7,46419348840571E-13;
2,67542971886103E-13;
1,31955858892606E-14;
6,33753965505692E-13;
6,24738021037901E-13;
7,09257953488504E-14;
-9,77854469894456E-14;
8,73406381794987E-13;
4,37500815030668E-13;
-7,78529822223294E-14;
8,45454683322072E-13;
1,00904844559845E-12;
3,77870342354697E-13;
-3,2965363350848E-13;
4,90159241070037E-13;
1,2101584366296E-12;
4,76054742497486E-13;
-2,69219896372167E-13;
-2,2546489414266E-13;
7,87787129161302E-13;
3,08690608200787E-13;
-7,0845500253871E-13;
5,07387549213061E-13;
1,22465572268068E-12;
4,67331361440727E-13;
6,40935910352648E-13;
6,80944404528179E-13;
-1,57880265909285E-13;
-5,96357362779563E-14;
3,30312447659024E-13;
4,52271546767994E-13;
4,09876956323988E-13;
-1,25534240567464E-13;
1,52254802482174E-13;
5,93707140950685E-13;
2,40374654607165E-13;
5,12656230085767E-13;
4,95723881619123E-13;
-2,95681087477917E-13;
-7,13338274589565E-16;
4,76907952728291E-13;
7,02266263488415E-13;
6,43256039062132E-13;
-3,60844145564649E-13;
-4,40302428080846E-13;
2,78698697339523E-13;
6,50503582536522E-13;
3,30657034001985E-13;
-4,15046773279164E-14;
5,00750613212226E-13;
5,92828394243848E-13;
5,27702432276041E-13;
4,55210901546106E-13;
3,56906597959838E-13;
1,13971363171966E-12;
1,08795624182408E-12;
1,85213620603911E-13;
4,91976684393632E-13;
1,18668422439714E-12;
9,32154186493155E-13;
9,72904389034459E-13;
8,35360676271845E-13;
1,49022652882572E-13;
8,41659341844104E-13;
7,39156696898E-13;
-1,42681682950987E-13;
4,88184502338151E-13;
1,8202462459807E-13;
-1,9821971449224E-13;
2,38807753892892E-13;
1,38589805340491E-13;
3,7000825193011E-13;
-1,46329637032707E-13;
-1,06040955918253E-13;
8,65139706784558E-13;
4,71526009500386E-13;
4,08374700737774E-14;
-4,07514405610856E-14;
2,63439845615929E-13;
2,12117073488996E-13;
1,26680536175659E-13;
1,27550074913842E-12;
8,54434478775465E-13;
2,79381148765946E-13;
4,86138780452848E-13;
-8,13088939257532E-13;
7,06642554070638E-14;
1,52474941592584E-12;
5,26739851836961E-13;
4,72878432361298E-13;
4,55723982407966E-13;
1,23093149523158E-15;
2,807662471395E-13;
9,39165076758167E-13;
8,91670864120693E-13;
-2,16477090044793E-13;
-2,36081289905412E-13;
-5,96161532188367E-14;
-1,63830083204361E-13;
7,5303281547512E-13;
1,06840869728134E-12;
8,78296676327088E-13;
8,36105493366446E-13;
1,50509445905044E-13;
1,54619757508202E-16;
2,36241653945141E-13;
5,03969273040842E-13;
6,62282209231586E-13;
-9,29356293345237E-14;
3,5184350936784E-13;
1,19650998090754E-12;
8,92136653520483E-13;
7,98917638812609E-13;
-9,51588222515683E-17;
-2,32800135430341E-13;
4,52363256988236E-13;
1,19617230380274E-13;
4,22311656125628E-13;
7,32742016242991E-13;
1,06482801875894E-13;
2,54058088240777E-13;
1,1560052030298E-12;
1,48072447512533E-12;
3,83407394991406E-13;
-1,58263004796607E-13;
5,61107501013602E-13;
3,79631234273778E-13;
3,14743343687437E-14;
3,39440100189315E-13;
9,03317984810588E-13;
1,05671079306649E-12;
2,00656357046125E-13;
4,91710462422343E-13;
6,0644683380742E-13;
-4,09908755348878E-13;
3,65803975174392E-13;
6,22315866154482E-13;
-4,64337923030472E-14;
6,23003424320375E-13;
5,49109361473402E-13;
-2,3465939764263E-13;
-4,95950964746127E-13;
-1,94122498992276E-13;
3,682605546713E-13;
3,94922376777834E-13;
6,33537565549874E-13;
2,39586449013356E-13;
-3,26880296910514E-13;
1,44516692345114E-13;
2,01006625321167E-13;
6,09268474270088E-13;
1,0113203445146E-12;
6,56495611392898E-13;
7,67246343392362E-13;
5,31917401373836E-13;
1,08346429344808E-13;
5,09593536717993E-13;
6,30717903496506E-13;
1,89901110493977E-13;
2,36658289325308E-13;
6,29015013275296E-13;
2,77301686394158E-13;
2,76234250250284E-13;
9,74065187898624E-13;
6,14331489488751E-13;
4,48051371270334E-13;
7,53374149860017E-13;
8,50099596128952E-13;
5,94641710471663E-13;
3,00661563224711E-15;
7,55202424584003E-13;
9,55444159473017E-13;
5,99085214173213E-13;
4,59526189968666E-13;
-7,69620550080845E-13;
-5,27053118339332E-15;
8,18921759051398E-13;
3,84695562110116E-13;
1,2248569083341E-12;
-9,39255398945116E-15;
-1,05851830702334E-12;
5,05543617855351E-13;
8,6609764315597E-13;
4,15256648646189E-13;
2,67296907394165E-13;
2,71625667237918E-13;
4,03391138089922E-13;
2,89536662835455E-13;
9,35290184405068E-14;
-3,89605813221656E-14;
-3,0135978872886E-13;
2,38677864533093E-14;
6,25965639405864E-13;
5,20003037447482E-13;
1,13815466509065E-12;
1,20283470764554E-12;
2,09882949069879E-13;
6,89292873117894E-13;
1,07777630063223E-12;
5,19110086995501E-14;
-5,06806944355286E-13;
3,54895378492049E-13;
5,47945822077021E-13;
1,56398581818788E-13;
6,98539018800486E-13;
2,3687608126195E-13;
-5,83736861270997E-14;
4,03124849186357E-13;
2,35933419716586E-13;
2,64837626510376E-13;
1,49463447818167E-13;
-5,47236351500223E-14;
-2,82086933880849E-14;
4,38276683474721E-13;
4,64074312432354E-13;
-3,29123941456165E-14;
2,75702839730091E-13;
3,7924199039652E-13;
4,42083616980336E-13;
6,57765340810166E-13;
5,41370486699735E-13;
3,32186922049575E-13;
3,04876464775794E-13;
5,89328284142828E-13;
-1,22487594635547E-13;
1,12321112585463E-13;
1,16666309774033E-12;
4,69777719246796E-13;
1,47663999142866E-13;
4,59081620259949E-13;
8,07380158178729E-13;
6,30749119732249E-13;
3,40265079849799E-13;
6,70545005639892E-13;
1,14636375510623E-14;
2,23250036832393E-13;
1,23752929996025E-12;
6,88824317762742E-13;
5,10326061960377E-13;
8,79939532602333E-13;
3,45814388855978E-13;
6,63526104535935E-13;
8,5465239077585E-13;
2,54773566453152E-13;
4,42733322768262E-13;
1,17442717333393E-13;
2,29791046754115E-13;
8,43161517738539E-13;
5,80602981126815E-13;
6,5705733840645E-13;
6,07503594131345E-13;
-1,03370289233927E-13;
-2,60145191650868E-13;
1,90047851744159E-13;
1,32478237474574E-13;
-6,06432680275096E-14;
5,37397642362941E-13;
5,5421913705204E-13;
9,92581825395532E-14;
3,78249972924157E-13;
3,35512508403919E-13;
5,94187228058861E-13;
1,1378385349721E-12;
1,13792096867328E-12;
5,96196486609364E-13;
-7,6675071914879E-14;
5,74652753845113E-13;
6,56010652139843E-13;
1,92006276925307E-13;
1,26058611855276E-13;
-6,05754511668802E-13;
-2,06277439499558E-13;
4,34002733736301E-13;
4,15106004082387E-13;
4,93767675113956E-13;
-2,17855834998349E-13;
-3,0118405125007E-13;
1,85425715943837E-13;
1,26333371606529E-13;
4,66342878392405E-13;
4,35261459818972E-13;
-1,13399428150537E-13;
-1,25349298772922E-13;
3,70477718863734E-13;
-3,38327486422414E-14;
-6,19049960781615E-14;
8,78503767988484E-13;
1,90006464369276E-13;
2,64235369790122E-13;
3,1687460758522E-13;
-3,22180020315073E-13;
6,0365883188576E-13;
5,85373447253176E-13;
9,56680605204688E-14;
3,80723566534305E-13;
8,19348545111524E-13;
5,62286298646749E-13;
5,12016373865438E-13;
6,72713883983621E-13;
-8,02156072691685E-14;
4,27658999376026E-13;
6,51967791398357E-13;
5,33622022707406E-13;
1,29337582768698E-12;
9,57920094143776E-13;
2,05433862382383E-13;
-3,09646584044818E-13;
2,26350664685781E-13;
9,98581090978022E-13;
5,14706396648616E-13;
7,17132983592477E-13;
6,44780210747679E-13;
-3,41287387558723E-15;
4,50893130168998E-13;
-2,17567526208096E-13;
-1,67832141496102E-13;
9,19833089273748E-13;
-3,78247071775228E-14;
3,57013356291098E-13;
1,09366414151083E-12;
1,16140602432847E-14;
-9,03199028501721E-15;
1,77786212371363E-13;
-7,2822159096103E-14;
-1,42262674111863E-13;
1,30951991825937E-13;
1,00792757980324E-12;
7,46085335965974E-13;
-1,46559045308435E-13;
2,230024783496E-13;
2,95182059812463E-13;
-1,75720711964823E-13;
2,36865664529074E-13;
5,42243396357827E-13;
7,49618613653805E-13;
5,04151128219953E-13;
-5,52396568941529E-13;
-5,83618603158248E-15;
8,55227665656923E-13;
8,82918797716496E-13;
5,1515358618511E-13;
-5,39717054368167E-13;
3,4711634177216E-13;
9,38311201419E-13;
1,03505195425394E-13;
4,63000804412436E-13;
1,74144091025545E-13;
-1,27059180918286E-13;
3,27760820805339E-13;
7,63203328538562E-13;
1,06909831734669E-12;
6,00953864897776E-13;
6,68676091747712E-13;
9,87981341516796E-13;
5,97346477118818E-13;
1,15275118368522E-12;
1,36163475152683E-12;
1,42472861439702E-13;
8,76348703296926E-14;
6,8899132328006E-13;
1,15832449903166E-13;
-8,68511828701711E-13;
-1,40765201475831E-13;
1,4153969359852E-12;
8,5743852146987E-13;
8,82042864421482E-14;
5,497831688016E-13;
5,89563634030095E-13;
6,23782995348184E-13;
8,85924295826411E-13;
8,67915476248404E-13;
7,41907614262101E-13;
2,50572835606966E-13;
-3,0285946910042E-13;
-2,31135191782869E-13;
3,75386941461084E-13;
9,99995738045278E-13;
3,7319157658395E-13;
-6,21506851859795E-13;
2,85953749919528E-13;
9,55743882932752E-13;
3,5359799227271E-13;
5,22030285408359E-13;
1,2162216778654E-13;
-2,70350761469482E-13;
2,65817070686026E-13;
8,19161131406517E-14;
8,81138223893545E-13;
1,56327382741444E-12;
6,02910494992285E-13;
1,58824689107726E-13;
2,70639149626697E-13;
4,65995431662506E-13;
3,99861238979562E-13;
4,55761990956037E-13;
1,38031205146821E-12;
8,52057422594574E-13;
-6,82522775898168E-13;
1,11294652285798E-13;
5,7273818517467E-13;
-2,84481962039993E-13;
-2,86101334094197E-13;
-3,56169983751367E-13;
3,76376901951002E-14;
5,42773457302041E-13;
2,06222586482748E-13;
8,77747456548857E-13;
1,34539780341042E-12;
5,73334101759355E-13;
6,30575268091873E-13;
6,50226201618034E-13;
7,99145221386905E-13;
7,22600522135265E-13;
1,09243057147714E-13;
7,18410568779936E-13;
8,18899673563228E-13;
2,94049444475817E-13;
2,07769869827908E-13;
4,15602071128991E-13;
3,62306126319776E-13;
-5,45682032659447E-13;
-2,06312327106971E-13;
7,21595334974973E-13;
3,31944114209777E-13;
4,95507012287741E-13;
9,19743805877451E-13;
6,72299173385921E-13;
4,131023053486E-13;
2,80365859240269E-14;
4,08082944880221E-13;
9,70064080962859E-13;
7,50704734869403E-13;
1,95533342882624E-13;
9,58349181540997E-15;
5,90034222606328E-13;
3,42298251665434E-13;
3,61498044019603E-13;
6,45729229469746E-13;
3,60030433112344E-13;
6,53285422705315E-13;
3,08476620506536E-14;
6,52747143203975E-13;
8,58164774912835E-13;
-9,26778649843472E-13;
-2,31466206783275E-13;
5,12183086879474E-13;
3,58365569700617E-13;
5,90212882125289E-13;
5,15249416335959E-13;
2,13671388423794E-13;
5,44674847603269E-14;
1,1712244346883E-12;
1,67617217402229E-12;
3,85453379906809E-13;
-4,51750337260561E-13;
6,42092095155026E-13;
1,60190073658642E-12;
8,94283209087761E-13;
1,47137021408842E-13;
-5,54082090668945E-14;
3,00920932951221E-13;
3,71675976546804E-14;
-4,44713888260473E-13;
4,97535329532391E-13;
8,90313976016643E-13;
7,51225238252191E-14;
-1,47044410136797E-13;
3,33289317781654E-13;
2,15409022521165E-13;
4,70455215836817E-13;
9,86626624779016E-13;
4,49401260452003E-13;
2,71539767312062E-13;
4,01418187142296E-13;
2,88960004075185E-13;
6,52911485230978E-14;
-4,8834071736379E-15;
-4,22785281888442E-14;
-1,35960774865957E-13;
5,05385092213511E-13;
1,10875947552491E-12;
7,92528222223832E-13;
1,8729220821294E-13;
5,90368831039415E-13;
6,43197995867581E-13;
3,20401884447788E-13;
1,17498322352332E-12;
1,18049424924892E-12;
4,03986709454746E-13;
7,17853370147477E-14;
1,67848354048847E-13;
-5,26022364690228E-14;
1,12017621347464E-13;
8,56855074915568E-13;
3,09980851024772E-13;
4,26846197036517E-13;
3,09316781818378E-13;
-5,27891319325001E-13;
3,53895309771192E-13;
1,15926514050306E-12;
1,21060800373697E-12;
8,8624030937779E-13;
5,64092308801844E-13;
5,94682460464201E-13;
8,37937176374128E-13;
9,77004675091243E-13;
2,84624082920944E-13;
2,29593475828011E-13;
2,55181088027732E-13;
-1,36559496816784E-13;
1,37600283696488E-13;
1,30954076304515E-13;
4,4265975381631E-13;
4,92340564501433E-13;
3,93774014828819E-13;
7,63233617055943E-13;
3,40801413691539E-13;
7,59990409003844E-13;
7,42964799846788E-13;
-3,90705623202199E-13;
2,25963975675802E-13;
5,71618748932464E-13;
-4,64333590527805E-13;
-2,48095907786458E-13;
4,9062691058512E-13;
8,9357971377873E-14;
1,85251985822309E-13;
3,83227045247003E-13;
-5,09788875391684E-15;
4,77094125083799E-13;
6,36959734537306E-13;
-1,06450845426073E-13;
-5,79256680926459E-13;
-5,33221152496211E-14;
6,68156083899114E-13;
2,49957916193373E-13;
4,32686252356625E-14;
4,78050393124729E-13;
1,75095226389467E-13;
-1,48420927259185E-13;
5,75932806092415E-13;
1,06412311715542E-12;
1,02724233201832E-12;
1,32979409390628E-12;
6,53503978219773E-13;
-2,68919077568819E-13;
2,99367035432372E-13;
7,14321163438941E-13;
9,6770151923636E-13;
7,93993345641993E-13;
-5,15724588758521E-13;
-4,48467314521608E-13;
-1,51864488894427E-13;
2,25355960433382E-13;
1,07413531182855E-12;
8,88165848728899E-14;
3,46917851191242E-13;
8,16745663821621E-13;
1,50887722604332E-13;
1,0225411720113E-12;
5,83665357761905E-13;
-2,73310648898171E-13;
4,99907726281777E-13;
7,54935683992154E-13;
-5,40778191870049E-14;
-6,00005647265489E-13;
5,79927993461684E-13;
7,42821438123689E-13;
-9,15843602126513E-13;
-8,9411084173399E-13;
5,0463577957035E-13;
1,25681667047228E-12;
6,78346496011599E-13;
-1,53673178090267E-13;
2,6636425533941E-13;
6,3019624074223E-13;
-1,44089173479349E-13;
-5,27950314021482E-14;
7,79513082984965E-13;
5,31626185187812E-13;
5,66627883548895E-13;
3,0259967161996E-13;
-7,73797538384659E-13;
-1,69996082571206E-13;
7,87488528391297E-13;
5,3384964810759E-13;
2,70422017086714E-13;
5,18487562016175E-13;
5,68697314770473E-13;
2,55236965348754E-13;
2,7411037376713E-13;
5,07327540546266E-13;
1,02032375497194E-12;
3,78555046856037E-13;
-3,97982264619206E-13;
6,12888959246226E-13;
9,83289984985895E-13;
4,76120226752064E-13;
-1,48312731314528E-13;
-2,36881044200696E-13;
5,24153973643272E-13;
2,78110092070856E-13;
-1,1073908743886E-13;
3,3235466429302E-13;
-1,14864721973037E-13;
-1,45632370409002E-13;
7,04724926687654E-13;
3,13128028462266E-13;
1,85341556840642E-13;
-6,59878069922707E-14;
-2,41612904171505E-13;
9,7195286616951E-13;
3,4550870474633E-13;
8,21239594313331E-14;
1,181793344274E-12;
5,5860628297755E-13;
1,25052339447613E-13;
-1,73729837171177E-13;
-1,66085090132104E-13;
3,85763599844275E-13;
2,72514355656022E-13;
1,61757568957961E-13;
2,81831689226197E-14;
6,99712978738329E-13;
1,06938099797247E-12;
1,38241112914824E-13;
-3,65244871129826E-13;
-4,68811906355127E-13;
-1,17781026039363E-13;
3,76865367847566E-13;
2,23764531155245E-13;
5,1631704971491E-13;
4,74088966998008E-13;
-4,56718665228837E-13;
-9,50177037041324E-14;
2,94548362266147E-13;
1,13050920851438E-13;
8,21581700740891E-13;
9,85067773465209E-13;
3,89454068810132E-13;
2,13237369383242E-13;
8,82889289608322E-13;
8,24524985868798E-13;
5,75715461244582E-13;
1,02427981052638E-12;
1,33322825371248E-13;
6,05117752679237E-13;
1,16688839727274E-12;
5,86826875343324E-14;
7,97750035015425E-13;
8,73848470456739E-13;
-2,63189369332103E-13;
-1,55207440378787E-13;
7,47506275486221E-13;
5,98738193389785E-13;
-2,98712884136826E-13;
3,59054860834875E-13;
8,04903709133883E-13;
6,15849521225738E-13;
5,75394145269513E-13;
3,31428071074512E-13;
4,79000561656543E-13;
4,43512005805305E-13;
5,95746245949364E-13;
5,28998029028243E-13;
3,04814778978914E-13;
8,67805553916531E-13;
6,20000328394892E-13;
3,65993314730481E-13;
1,10259624351702E-12;
1,37006969390222E-12;
7,07663357452995E-13;
-3,57009085383399E-13;
1,655589767434E-13;
9,09852480326464E-13;
6,20190591812139E-14;
6,91249487076164E-13;
7,55994192949614E-13;
-3,61894545124061E-13;
4,92611108242249E-13;
6,7283201540625E-13;
5,789208575482E-13;
6,53384361295273E-13;
6,56979048598515E-13;
1,19334719890266E-12;
6,06340556320584E-13;
7,22005445141461E-13;
6,70785941266477E-13;
4,12675503641316E-13;
8,88315181340504E-13;
-1,02841853570404E-13;
-5,99708951724229E-13;
-1,21463274250163E-14;
3,14328725796365E-13;
3,66936628292733E-13;
8,26781915003593E-13;
1,47793516517981E-12;
2,88843496806594E-13;
-2,30404902978822E-13;
6,55180800863228E-13;
2,60514017308822E-13;
4,99662662845091E-13;
6,91393666516219E-13;
5,28751809992105E-13;
1,42779366561326E-12;
6,0403147914625E-13;
-2,438552828047E-13;
3,96735512654049E-13;
2,65265937261338E-13;
-3,23979362492359E-15;
-1,83010176713418E-13;
-1,01175085280639E-14;
4,16996447884005E-13;
3,08815649533179E-13;
1,30115462030474E-13;
4,81782856630893E-14;
1,52577371816699E-13;
3,69767149196882E-13;
4,5489652006359E-13;
-4,7360694380318E-13;
-4,70750326426568E-13;
1,20005623507289E-12;
8,3466656888756E-13;
1,40123858973582E-13;
4,14845288294126E-13;
-8,16501756561403E-14;
7,82983789511348E-14;
3,48064478402744E-14;
-2,03626793588043E-13;
1,18856336149671E-13;
-1,94683242588589E-13;
7,35483784930837E-13;
1,58827671701864E-12;
7,49209780737886E-13;
4,3666636962785E-13;
4,5088641965886E-13;
4,84997518094313E-13;
2,11218562437306E-13;
-7,78306066285099E-14;
4,05592758799973E-14;
-1,77120068706455E-14;
1,09799666311821E-13;
4,88442549290641E-13;
6,58871420408171E-13;
-1,54652998052511E-13;
-1,70095884412311E-13;
9,53035153119784E-13;
4,03825176863202E-13;
-5,51682247134554E-13;
3,43813224837284E-13;
1,15763327243263E-12;
4,27938066711783E-13;
7,01639886164188E-13;
8,84458537180091E-13;
2,65418021688009E-13;
4,21256688295808E-13;
-3,05903172076186E-13;
2,15587382410064E-13;
5,92359263317183E-13;
-5,72627764828928E-13;
3,96764986279496E-13;
4,22131552729683E-13;
-3,94698765014214E-13;
6,01474332815965E-13;
7,74597913456282E-13;
5,11470989704151E-13;
7,21490573271304E-13;
7,09395787608484E-13;
6,55495403326348E-13;
4,17029143857066E-13;
1,78088389995818E-13;
4,41777917818897E-13;
8,64495431043452E-15;
-5,67063910967099E-13;
6,18684560051408E-13;
6,2476730219465E-13;
3,36247248904577E-14;
5,87692926582899E-13;
5,73676358794865E-13;
1,10711691040861E-12;
8,38791800727398E-13;
-1,59542362781094E-13;
3,49768436072118E-13;
7,50053514385233E-13;
5,38858643906752E-13;
8,2272310026553E-14;
1,41792740920099E-13;
7,63338768104499E-13;
3,8524050691383E-13;
3,08595610168977E-13;
4,57893607443506E-13;
6,77382662131212E-13;
1,38154356513486E-12;
6,89808088370262E-13;
1,52157778388475E-13;
5,28175151410272E-13;
7,83112614415997E-13;
9,98800753480091E-13;
5,48924044343675E-13;
4,13486237473751E-13;
9,54061501448684E-13;
7,96934536194446E-13;
9,3192382756495E-13;
1,38275739361735E-12;
2,72776694862639E-13;
-5,25635112211569E-13;
3,9010267071133E-13;
5,1752502767669E-13;
-3,16938046902996E-14;
5,07813211593385E-13;
4,0763401959606E-13;
3,7288017672498E-14;
6,44438801427782E-13;
5,99927043656665E-13;
4,38958337350508E-13;
1,0653428492447E-13;
-6,18676652318175E-13;
9,85430120000927E-14;
1,04940555417693E-12;
7,41127914157582E-13;
6,95196703658985E-13;
9,45665454087468E-13;
8,38630081800729E-13;
5,57079779490115E-13;
-5,17802445045813E-14;
-5,48444429004456E-14;
1,77202522525044E-13;
2,21947482882604E-13;
3,89605978420897E-13;
-1,73582814695985E-13;
2,53123581609998E-14;
6,70095505173132E-13;
2,85234039845512E-13;
1,14709842031344E-13;
1,00783117067859E-13;
4,98171638810211E-13;
9,84668240455849E-13;
9,96997974963795E-13;
5,10632082755889E-13;
-1,94285126797449E-13;
5,16633799831949E-13;
9,02293618420154E-13;
-4,79410518220384E-13;
-7,98775920348662E-13;
4,12164700978846E-13;
4,04945609994318E-13;
1,46162093900634E-13;
7,58651195878058E-13;
7,02964416270274E-13;
7,98014244914773E-13;
2,88966258439442E-13;
-2,59844114078432E-13;
1,03550682791402E-12;
1,3288184254036E-12;
1,59291331012182E-13;
-2,89093177584553E-13;
-7,07886935764086E-14;
3,60896938357777E-13;
7,89950847041983E-13;
5,98932826650835E-13;
-2,03794115513724E-13;
-3,73994247862947E-13;
2,01830227777078E-13;
6,55520730617404E-13;
7,44183807072729E-13;
1,66633386767969E-13;
8,36967370888651E-14;
3,38048408705345E-13;
3,02531466783535E-13;
5,47957083511309E-13;
5,41283323756853E-13;
5,39027561283382E-13;
2,90846175728072E-13;
8,62394814173264E-13;
7,17259208680469E-13;
-1,01724733251736E-14;
7,37270883338747E-13;
3,59324221756971E-13;
4,52133226215767E-13;
4,25092531447593E-13;
-1,2620574614415E-13;
2,63175500445813E-14;
-2,8615287747677E-13;
1,9801885896749E-13;
4,10363735519477E-13;
1,4552801908848E-13;
2,79342478610343E-13;
4,16969086686325E-13;
3,69316466806065E-13;
3,63121683226498E-13;
1,76312141997414E-13;
4,32179520086513E-13;
8,4925366931429E-13;
-1,76849327573672E-13;
4,68769775348614E-13;
1,13306320332816E-12;
1,10558402617354E-13;
3,86971763026806E-13;
3,3140835314712E-13;
5,45878861725099E-13;
4,26956969684717E-13;
-8,00073805071932E-14;
9,57158381262078E-13;
-1,01870860916073E-13;
-1,34262702354249E-12;
5,78897115679313E-14;
8,33692097821821E-13;
9,24270941091327E-13;
6,06183566215579E-13;
-2,03556364199037E-13;
3,31266732631261E-13;
7,92680429786857E-13;
3,28552579952899E-13;
1,23810055196696E-13;
-3,23702798477104E-13;
5,32376183697214E-13;
1,32764520553892E-12;
4,43698082914007E-13;
2,63715187881177E-13;
-8,48390213181834E-15;
-6,79586094084668E-14;
-6,61781585264257E-16;
-8,08226321642972E-14;
7,29977371416521E-13;
5,2639947726319E-13;
3,50835272929183E-13;
9,8759356702045E-13;
1,28922229945829E-12;
1,24760146992166E-12;
4,88373120132785E-13;
4,02455718141317E-13;
9,91187694510741E-13;
7,91672612881263E-13;
6,32208389291149E-13;
8,92438231035074E-13;
1,9922305457772E-13;
-1,25742174654394E-13;
8,57133899193956E-13;
6,63647349842378E-13;
2,03387863259253E-13;
8,26493711636558E-13;
7,2090668674451E-13;
-1,47012840331476E-13;
-4,17025100208893E-13;
3,7325771404996E-13;
9,66783206477696E-13;
-7,33760106975276E-14;
-2,29241537879826E-13;
4,77084618690263E-13;
-1,28992401231237E-13;
2,25247168947908E-14;
1,04412637859002E-13;
1,27482228765129E-14;
5,93134882352086E-13;
3,31427398233783E-13;
2,00100602699215E-13;
-1,23428647095027E-13;
-1,66705631620411E-13;
7,19982812419643E-13;
3,49063567404635E-13;
3,57147025716732E-13;
1,28494382177918E-12;
5,13303785288372E-13;
5,71126786329506E-13;
1,25726274879358E-12;
1,08167000436332E-13;
-5,60058881563718E-14;
4,4270234622583E-13;
4,63795467804298E-13;
4,37385678729558E-13;
-3,41120293965961E-13;
-1,50622131012397E-13;
5,36268972143162E-13;
1,66378236622978E-13;
7,14048544264544E-13;
5,73139579264759E-13;
-7,95512330587678E-13;
1,94423810610508E-13;
1,11262220704372E-12;
3,24927779110712E-13;
4,43004283548187E-14;
1,6055288577175E-13;
1,78425790108782E-14;
-8,49673156585423E-15;
5,81901258149942E-13;
3,41731968560338E-13;
2,14455742329503E-13;
4,81342736032208E-13;
-2,97012452304418E-14;
5,72374441993677E-13;
5,77327915167448E-13;
-1,21891851032163E-13;
2,34562009277907E-13;
-1,30358639305735E-14;
-1,6329283463552E-13;
5,45148079261273E-13;
1,63878520418543E-12;
1,61730080156246E-12;
4,86674274198252E-13;
2,75811243189129E-13;
1,8493389029577E-13;
3,91274764594959E-13;
4,13042191343995E-13;
-1,33405846134092E-13;
-4,31455889181311E-14;
-6,57887914647809E-14;
4,48888798849914E-13;
1,05073854088896E-12;
5,353198678633E-13;
-2,41532866882324E-13;
-1,36837167296036E-14;
8,24542686529437E-13;
1,81526904034223E-13;
-3,91116816919383E-13;
-2,08682829820454E-13;
4,09755064704861E-14;
9,21652457067202E-13;
1,66023541675273E-13;
-5,82560433007736E-13;
4,35626549756938E-13;
6,42296557294942E-13;
1,18533978116097E-13;
2,66898971240224E-13;
6,26437606004267E-13;
3,10957875425225E-13;
9,72712438240771E-13;
8,09123104843643E-13;
2,73527349013349E-13;
1,02821456264711E-12;
-5,43035548233192E-14;
-6,31745548364863E-14;
-4,51888918466466E-14;
-3,64766836019296E-13;
8,02568065090523E-13;
-1,11629155849031E-13;
7,26310096894829E-14;
6,12629919791987E-13;
5,23889340048626E-14;
4,06418716417165E-13;
6,52080533208279E-14;
4,7312422428927E-13;
2,34761046961805E-13;
2,91793746370678E-13;
1,5496183421638E-12;
6,55736015517213E-13;
4,61031600063125E-13;
5,65015681728335E-13;
-1,92724654522424E-13;
-3,13217605207601E-14;
1,66668474353029E-13;
1,01251828535968E-12;
1,21532041210091E-12;
2,53846275885171E-13;
7,42676400814246E-13;
9,09399666530328E-13;
-5,34762063746056E-14;
2,33404458209199E-13;
-7,56953090383017E-15;
-3,3542876006404E-13;
7,53625969314882E-13;
5,40297407047025E-13;
3,82638893260824E-13;
1,10844418698694E-12;
3,15974233542961E-13;
-4,65604130042233E-13;
-2,81333415714023E-13;
9,20270638887799E-14;
3,13984883807145E-13;
8,20146627826246E-14;
2,5370002299102E-13;
1,58126130344039E-13;
-3,53930532683093E-14;
1,49184781232645E-13;
-1,19853877038148E-13;
5,44871129929464E-13;
5,8159681461281E-13;
-1,84588607692554E-13;
6,75323759375586E-13;
5,48563548936417E-13;
-1,52643551139585E-13;
2,76451964012545E-13;
1,93159640509689E-13;
2,79889642842714E-14;
5,5653341254608E-14;
-1,55381369803497E-13;
-4,52315460812399E-14;
2,40111891697421E-14;
-9,70585487661924E-14;
3,27929130756162E-13;
6,15949294555977E-13;
1,01025336119174E-12;
1,55094147606125E-12;
3,81333179621021E-13;
-7,960524812861E-13;
5,06959063836068E-14;
6,02979013008394E-13;
-3,47895205798986E-14;
1,01016896063081E-13;
6,97752822220764E-13;
4,64392390084506E-13;
3,68634814259474E-13;
3,18689656409156E-13;
-1,9953509993066E-14;
4,73780350891603E-13;
3,19596685990076E-13;
-2,55016332500032E-13;
5,82698492927511E-13;
9,78580242383629E-13;
9,57990594338158E-13;
5,11454597298893E-13;
-1,07253753017263E-13;
1,19119372075748E-12;
9,27584047403496E-13;
-2,99144982253579E-13;
1,05846645146127E-12;
8,46890527474989E-13;
-1,8016351786864E-13;
4,06349690812067E-13;
2,91661476008714E-13;
9,08977552861252E-13;
1,00754811696926E-12;
1,34163138651777E-13;
9,55318427423633E-13;
6,70260735702262E-13;
-1,41603058510949E-13;
3,61365482306258E-13;
6,91814858996697E-13;
1,09369690465363E-12;
2,9013431968411E-13;
-5,3511054422652E-13;
2,72711494793483E-13;
2,59623212036539E-13;
1,42920196357873E-13;
3,95279486761144E-13;
2,73284035669983E-13;
1,01300989690301E-12;
5,41511255220299E-13;
-5,71598024585519E-13;
6,55351077312658E-13;
1,29644623775833E-12;
4,39718166958543E-13;
3,53650878540431E-13;
6,79454205174161E-13;
4,28346915576696E-13;
5,0687963615231E-13;
8,80043781905098E-13;
1,57984238066346E-13;
7,18507479747613E-14;
1,57026731348917E-13;
-1,76980107333316E-13;
3,93130348020768E-13;
3,37731997817071E-13;
3,40920016919087E-13;
1,92402116119351E-13;
-8,80182189837772E-14;
7,9918301133881E-13;
4,97184769735471E-13;
1,77017230621351E-13;
5,09166802676735E-13;
-1,65072938925699E-13;
-7,91607026716839E-14;
4,12511898433785E-13;
2,77861359734853E-13;
4,77424758679687E-14;
1,16248702023737E-13;
5,50686623627181E-13;
5,94098471240505E-13;
8,73692468132475E-13;
1,13016897152561E-12;
4,60513238664147E-15;
-4,07900483546092E-13;
8,92386273905514E-13;
1,20157315094298E-12;
4,48902377393785E-13;
-2,24864277698315E-13;
-3,96958750001413E-13;
3,23164541952295E-13;
2,84624043421943E-13;
5,75667537667322E-14;
5,48183752473332E-14;
2,38551679061984E-13;
1,4340463168575E-12;
7,93618858790271E-13;
-4,02288079334026E-13;
1,18061286055857E-13;
6,4795921852552E-13;
1,48232749306049E-13;
-3,28524519306588E-13;
6,93992195556529E-13;
1,07808654110803E-12;
4,58844565856928E-13;
-2,43907264973369E-13;
4,47957489285165E-13;
1,30813423978445E-12;
-3,33910431168611E-13;
2,48697714859769E-13;
1,5789750362018E-12;
2,8887522021983E-13;
3,3209926994079E-13;
9,01858709230662E-13;
2,70621073688622E-13;
-4,69516530014466E-13;
-3,59874614011053E-13;
4,94093061414593E-13;
1,17508243801542E-13;
-5,04369690777716E-14;
9,2285746706725E-13;
7,41247501817466E-13;
2,90594127959659E-13;
2,51143800748652E-13;
7,28318435058096E-13;
1,30465592867698E-12;
6,45281024456551E-13;
1,62258231458168E-13;
3,09322079701573E-13;
7,01019830160781E-13;
5,86947399670582E-13;
7,81158449540708E-14;
5,76630342064123E-13;
5,86241296348466E-13;
-1,81735230933826E-13;
-7,02025809252111E-14;
2,85590079892033E-13;
5,34938498384844E-13;
8,96078502454422E-13;
4,89019769930078E-13;
1,80348925061597E-13;
3,93432550128055E-13;
2,33093657557594E-13;
2,47216834532194E-13;
1,82924928155768E-13;
3,09858129528061E-15;
3,04825616959472E-13;
3,53127754543949E-13;
5,85820672906966E-13;
3,91343228778246E-13;
-3,43216722262052E-13;
1,31102880022302E-13;
3,90193307318418E-13;
2,35923122566476E-13;
-7,11868741564389E-14;
-2,13757984291474E-13;
9,262552910054E-13;
1,20300027910371E-12;
4,5205831049117E-13;
2,54682552463867E-13;
6,32036287721801E-13;
1,18599886962122E-12;
2,47717259589591E-13;
-5,83865130137315E-13;
6,60874304165195E-13;
4,73724821615838E-13;
-1,19949166693726E-14;
7,03164051025538E-13;
5,46203940844031E-13;
8,61921888031816E-13;
4,59834099017842E-13;
-3,57422860112128E-13;
3,06817629032426E-13;
3,06337979141348E-13;
-6,68783256070882E-14;
2,09900811403422E-13;
1,66187444339444E-13;
9,36656377609415E-13;
1,20841963006417E-12;
-3,52614715193459E-13;
-2,12158492618214E-15;
9,45378431360299E-13;
3,70021561629901E-13;
3,48505125324836E-13;
3,59510962410333E-13;
8,09682193616186E-13;
7,49838828620796E-13;
-5,4982861601903E-13;
2,55927962237036E-13;
1,17217331600366E-12;
7,98068936006343E-13;
6,65645082683878E-13;
3,79023007987313E-13;
5,28601436882275E-13;
-1,14095873585079E-13;
-1,19926595344104E-13;
6,27022081842503E-13;
2,57360453664974E-13;
4,79588753939645E-13;
6,51243295786861E-13;
2,44391839571687E-13;
-1,46404660000927E-13;
8,27495025175054E-14;
1,52606365487631E-13;
-1,90333044055566E-13;
5,69967793003309E-13;
6,48733380851213E-13;
-1,32162735417523E-13;
5,5974461126627E-13;
1,21970344863335E-12;
3,20795399510576E-13;
2,66634952123764E-13;
6,68278519336397E-13;
1,43090882500162E-13;
1,45329501681898E-13;
3,14798114711024E-13;
4,53094767200146E-13;
2,84139890834935E-13;
1,70038624472529E-13;
1,28733677038627E-12;
1,62844290643416E-12;
1,00969907096905E-12;
5,53340263825331E-13;
3,16552659347625E-13;
5,30242589391351E-13;
5,65424537147632E-13;
2,99760148464566E-13;
5,34756857282197E-14;
7,82390453319595E-13;
6,87748576855795E-13;
-3,13998941910846E-13;
3,22638984530581E-13;
3,74276946536757E-13;
-1,36639656815104E-13;
1,03160623485783E-13;
4,05802304267987E-13;
3,39691022156204E-14;
-2,04470846871131E-14;
1,73814460390523E-13;
-7,32831300333346E-13;
5,17511946920271E-13;
1,0466060583267E-12;
-5,07953581824199E-13;
5,27919915824513E-13;
1,17914438573162E-12;
1,29170731163355E-13;
2,61846933055094E-13;
4,92227450955289E-13;
-3,95819619576802E-13;
-9,7648623107561E-14;
5,97063902966639E-13;
1,17316182635308E-13;
3,43705450953847E-13;
7,56756448932138E-13;
3,67807545490398E-13;
2,41707268083962E-14;
2,0022542707803E-13;
5,06388683882136E-13;
6,54209080508994E-13;
6,0013072741685E-13;
2,63284577273358E-13;
7,64118076711405E-14;
5,91369334441857E-13;
1,30066398700058E-12;
1,03808648304741E-12;
2,29963944170566E-13;
-2,34300833636931E-13;
2,68466254449337E-13;
7,70011509079537E-13;
-5,25436407895079E-14;
3,18539743591178E-13;
1,3106238361899E-12;
6,44219940667235E-13;
3,58995574350368E-13;
2,62976826709737E-13;
-2,47769006584109E-14;
5,78444398401249E-13;
9,3578266063225E-13;
3,30557659063535E-13;
2,78003490143844E-13;
3,31321431283636E-13;
-7,23789726344297E-13;
-5,06448082254354E-13;
4,70196689291285E-13;
9,71732256354944E-13;
8,91987872603823E-13;
-1,97021641477235E-13;
2,98469701448043E-13;
1,30755512342324E-12;
2,75420509420127E-13;
-5,33099850869596E-13;
1,71583267638813E-13;
4,362974006444E-13;
9,53407137387218E-13;
1,36176275185245E-12;
2,45375581006187E-13;
2,91843651658783E-13;
1,10385854032168E-14;
-2,0414880059752E-13;
1,17269535780287E-12;
5,63334134047548E-13;
1,52962811864751E-13;
3,68700720933688E-13;
-2,32057418029368E-13;
2,30729183913477E-13;
4,7840257871872E-13;
3,1435690717208E-13;
-1,03382679829874E-14;
-1,7342348704041E-13;
2,66057055594518E-13;
2,49662587589613E-13;
5,69211195566264E-14;
-2,60101796853868E-13;
2,03566447532571E-13;
9,95854580170503E-13;
2,7783968178075E-13;
1,43382780543229E-13;
5,70396177708489E-13;
3,07944030374591E-13;
2,50227507885919E-13;
-2,23891484928523E-13;
9,89970669964321E-14;
8,58885600123167E-13;
9,11643836862816E-14;
-5,24361553628459E-13;
3,59369841236078E-13;
1,02377450075944E-12;
6,07287798510749E-13;
5,75149300782616E-13;
3,77604845769535E-13;
2,47633569001344E-13;
4,44903657918885E-13;
2,43171612166866E-13;
7,94099052268129E-13;
7,90442450047021E-13;
2,25492469611332E-13;
7,5305156303019E-13;
8,9533939682708E-13;
8,03356726655917E-13;
7,06865350172499E-13;
3,49351560136559E-13;
3,24848461561152E-13;
-2,00491321786046E-13;
1,21501980738703E-13;
1,13910466325993E-12;
7,55174009407282E-13;
-1,83857247778435E-13;
-2,22013188202154E-13;
9,6199225041033E-13;
1,00234240858945E-12;
-8,20715546007606E-14;
-5,71641657098082E-14;
2,36878531951557E-13;
2,42443831074143E-13;
3,01673867491989E-13;
1,02729989664794E-12;
1,11544849325903E-12;
-2,04289182353718E-13;
-1,78020419845387E-13;
5,31766173558184E-13;
6,73376839753076E-13;
5,76386696219394E-13;
-7,75304952834876E-15;
6,18316550403593E-13;
1,222150194384E-12;
7,08937401192796E-13;
5,19671884227831E-13;
4,89068362529738E-13;
7,3806940358902E-13;
3,26697242917794E-13;
2,50115067165053E-13;
1,23154774330293E-12;
8,98670541103567E-13;
1,89412988330993E-13;
2,39342630660415E-13;
1,96645909840593E-13;
5,2982809824289E-13;
6,04845788076588E-13;
-1,02900931515978E-13;
1,53900398687541E-15;
-4,63987556466163E-14;
2,16879766017795E-13;
1,20503410804479E-12;
4,82611426359991E-13;
8,97160885426536E-14;
6,15593484717953E-13;
2,36603010894725E-13;
3,23653877679352E-14;
6,43490076015368E-13;
2,37622833060887E-13;
-2,27921322240336E-13;
6,80139939720423E-13;
5,94752596949821E-13;
7,76732933198226E-13;
9,01954431876687E-13;
-1,13146489740432E-14;
-1,80518118398968E-14;
3,97321380278341E-13;
7,32168332486634E-13;
2,43489588365685E-13;
6,56980624644528E-14;
6,32721146351577E-13;
5,90152690649233E-13;
6,31577829490705E-13;
1,79804085720369E-13;
-4,77941917879421E-13;
-1,31362450625488E-13;
2,25191805696708E-13;
3,73673642331856E-14;
-7,19694899408953E-14;
4,68472878879564E-13;
5,48560924463956E-13;
1,97732671004918E-13;
2,5868920838604E-13;
-1,25792528416943E-14;
6,34617939481854E-13;
1,21072659017218E-12;
3,5053527991869E-13;
-1,25854544769683E-14;
-2,02066305662021E-13;
-1,61196586663887E-13;
9,15620911275391E-13;
4,00636403631282E-13;
-6,42542581845764E-13;
4,33967591642255E-13;
4,16395893369478E-13;
3,06676402022468E-13;
9,39496443600862E-13;
6,12157200520656E-13;
8,10813382389662E-13;
5,97314052692375E-13;
4,10286812202707E-13;
3,52160060915389E-13;
1,68570719290212E-13;
3,45219938414862E-13;
1,30854573109191E-13;
2,62632308599104E-13;
1,14532615779372E-13;
3,23073864203788E-13;
5,44006585505254E-13;
-2,50531614392625E-13;
-1,36969546451245E-14;
5,39773001157176E-13;
1,99770432823609E-13;
-3,96325402296382E-13;
-7,1114061868983E-13;
1,05342234258158E-13;
1,16730388593572E-12;
3,72434743562162E-13;
-3,12435665402076E-13;
3,51954784721682E-13;
4,1076773185186E-13;
3,84103639601857E-13;
5,95110650079075E-13;
7,1624839351761E-13;
3,90904807404629E-13;
5,44352717469136E-13;
9,00620442367281E-13;
-3,2215090606367E-13;
-2,82361822979782E-13;
8,45409510489303E-13;
2,35094997651069E-13;
1,20945690819648E-13;
1,10341110746078E-12;
8,26203624322047E-13;
4,45614598229037E-13;
8,69619060034098E-13;
6,08434456936866E-13;
3,58237115162146E-13;
3,18225980516401E-13;
-1,89713895930934E-13;
-1,57400856507997E-13;
1,68436043128794E-13;
6,77820281043346E-14;
4,70284204629454E-14;
2,38547454122211E-13;
6,39660795087051E-13;
1,01454949026516E-12;
1,25079998610237E-12;
1,10980509008547E-12;
9,34012708744903E-13;
1,10478713775888E-12;
9,04532177628057E-13;
5,26850302301079E-13;
9,6080689002111E-14;
2,72749787138438E-13;
7,42818499331029E-13;
4,11081585717827E-13;
3,57560324469198E-13;
1,82483053714299E-14;
8,65030266133867E-14;
8,5099651627822E-13;
-9,33386869643025E-14;
3,53084767610921E-13;
1,63610482664191E-12;
3,66095529068348E-13;
-2,92459461531747E-13;
-1,38189925478361E-13;
-2,83232449521869E-14;
6,57722209279209E-13;
5,72266584575411E-13;
-5,27881688302114E-14;
1,82830462986177E-13;
7,77612040284985E-13;
6,2953575806924E-13;
8,45053581973161E-13;
1,1735893531903E-12;
3,25322285476413E-13;
-6,47549167718764E-14;
2,65663831764415E-13;
6,64096265946108E-13;
6,32279596226095E-13;
2,56176313087059E-13;
7,35856696926293E-13;
3,30728994188198E-13;
-4,84750534758117E-13;
5,36436646492639E-13;
1,35491847799618E-12;
5,87310346247032E-13;
6,79459341472235E-13;
5,50804182644271E-13;
-7,64572602080654E-13;
-3,75817818908923E-13;
1,14059872608204E-13;
7,43152574659235E-13;
6,31901858439676E-13;
-5,82997094174005E-13;
5,55883547759663E-13;
7,48740566152779E-13;
3,6384368349542E-14;
3,14011319961316E-13;
4,42535292013143E-13;
8,98885730641425E-13;
6,24885028663996E-13;
1,96302853403082E-13;
5,57219546680676E-13;
1,32836579206156E-12;
7,98520524782614E-13;
-4,96275636386738E-13;
3,19476396897893E-13;
1,2385594015069E-12;
4,96238062365337E-13;
-2,52275950738336E-13;
6,01645500627698E-13;
1,3340004682515E-12;
7,54295640043118E-13;
8,83353162031167E-13;
4,50278739818631E-13;
3,460444930771E-13;
6,88405714523807E-13;
-9,15693833058968E-14;
4,30296703657841E-13;
2,07506063622349E-13;
-5,44601024495508E-13;
4,79085686554786E-13;
8,20756765422119E-13;
2,49145586334034E-13;
2,75563206434727E-13;
6,56229180820655E-13;
3,25741786060031E-13;
3,49312511065896E-14;
8,49386260569037E-14;
4,23914162042769E-13;
9,47718634355392E-13;
4,50751456125357E-13;
1,14598581703373E-13;
5,7779579932674E-13;
2,76473598588878E-13;
-2,65834619785031E-13;
2,29889647092164E-13;
5,93282051152406E-13;
6,04940172262601E-13;
5,88075009019611E-13;
-1,35958042635577E-13;
-8,5787022514829E-14;
8,75607924929154E-13;
1,25630836714656E-12;
9,57505816990247E-13;
4,96937036560601E-13;
9,10336008820143E-13;
5,60946406260053E-13;
-7,45745772450863E-14;
1,1569378565525E-12;
6,25295885260975E-13;
-5,26537010760078E-13;
7,58516127382157E-13;
9,03317671407928E-13;
2,29747183153742E-14;
6,36908628460866E-14;
-3,23808832501987E-13;
-1,05198299668481E-13;
9,71906804829165E-13;
1,1936784174163E-13;
-6,00795445100782E-13;
7,4256908013898E-13;
1,34149870245128E-12;
6,06084429040307E-13;
-2,41189471734865E-13;
3,88551983247992E-13;
1,37462447938806E-12;
1,00781852812566E-12;
8,95566808386322E-13;
7,11625217238318E-13;
4,45972518679397E-13;
2,53345456888628E-13;
-3,53423291435021E-13;
-6,56919085959906E-14;
3,36678133842861E-13;
4,40298415542713E-13;
1,08222897203722E-12;
9,01285696117363E-13;
1,44890452091751E-13;
4,01133747231998E-13;
2,41257430510679E-13;
-3,28073222846706E-13;
4,78331333921954E-13;
2,85306733564928E-13;
-3,77669720973935E-13;
6,12639439388273E-13;
1,38691469999856E-13;
-1,6840185444167E-13;
1,09205110875653E-12;
5,37961860717434E-13;
-4,95317164786464E-13;
-7,91061802515036E-14;
6,50135833704557E-13;
3,23355073901646E-13;
-3,49067875491984E-13;
-1,92012372255534E-13;
4,77313941414132E-13;
8,86184563910291E-13;
8,00155193402035E-14;
-1,82151267880319E-13;
8,77728676219597E-13;
1,30806538933848E-12;
7,3508032995752E-13;
-2,274949647727E-13;
5,99109712094383E-14;
2,01859599505893E-13;
-4,88836024706366E-13;
-4,37704997355291E-14;
-3,49149565158737E-13;
-2,05630957695019E-13;
7,47673062079165E-13;
4,31712742028238E-13;
9,98662869248048E-13;
9,9046801939529E-13;
2,14621924812053E-13;
1,37657298716325E-12;
1,29883356116062E-12;
4,21616131447238E-13;
1,31552900779574E-12;
9,37506574640092E-13;
1,78046720029663E-13;
4,79877031802516E-13;
5,92605332709165E-13;
9,15573639433235E-13;
3,86715631226906E-13;
1,58991924171644E-13;
1,00549811472619E-12;
9,7857161239316E-13;
5,48656419732416E-13;
4,46091339859223E-13;
4,70264479970991E-13;
3,88744525736109E-13;
8,57568369499928E-13;
5,63854122186103E-13;
-1,92092496148103E-13;
6,68189146364145E-13;
6,650472465158E-13;
3,49566184042587E-13;
5,83948914775196E-13;
5,46311388953214E-13;
6,51161709523971E-13;
-1,41784364201352E-13;
-3,51136186915245E-14;
8,16748213503921E-13;
5,5865566196545E-13;
3,34583146791146E-13;
-2,46255415466287E-13;
-4,5007550814746E-13;
8,16219366910342E-13;
8,84544556804205E-13;
3,08537357430932E-13;
7,93210079181243E-13;
6,67903227584547E-13;
7,3854642861497E-13;
8,39798547016583E-13;
9,74011587768892E-14;
-4,45675236814877E-13;
-4,84630403914931E-13;
4,20380328572535E-13;
1,15117681569569E-12;
2,83105644283829E-13;
-3,48111179296447E-14;
7,24157614779927E-13;
2,73042711431586E-13;
4,24327882784683E-13;
1,10280165405571E-12;
8,63890165472567E-13;
9,74142651968473E-13;
1,12103773846109E-13;
-2,84052262300034E-13;
1,08129714377338E-12;
1,02479018215183E-12;
-7,9265774234687E-14;
-4,86733212961483E-14;
8,05020259075768E-13;
1,13715523688076E-12;
7,57883027975289E-13;
9,54593505676637E-13;
1,56185651600287E-12;
1,11032952501466E-12;
1,89224697750775E-13;
3,81887279109314E-13;
4,04777997479229E-13;
2,13668693494264E-14;
3,63658902279242E-13;
-3,04125196673391E-13;
-1,18128292626233E-12;
9,16137661625549E-14;
1,14159734152314E-12;
2,83162211711505E-13;
-6,08656986805521E-14;
1,40163275499753E-13;
9,58835069643782E-14;
7,12434362883237E-13;
7,7516565857142E-13;
1,60326446685709E-13;
4,76065415080862E-13;
8,07776933536273E-13;
2,06200825527313E-13;
-9,77905872531516E-14;
-2,48424656084057E-13;
-1,45750316462606E-13;
5,21102466713579E-13;
1,19869383747574E-13;
-5,24806922048067E-14;
2,38845860686744E-13;
-8,23813649132205E-14;
1,84703184388604E-13;
2,4300431263355E-13;
2,65112987250867E-13;
-4,01647124641282E-14;
-1,04725166222E-13;
1,13754960925324E-12;
7,37981951033231E-13;
3,25012001484306E-13;
7,89137725355603E-13;
1,03842990200813E-13;
5,49039818238396E-13;
1,07847989567279E-12;
3,13334363756311E-13;
5,30467358017531E-13;
7,76864379010956E-13;
1,68925565867321E-13;
3,52105885602861E-13;
5,4675941627361E-13;
-7,21070094871034E-14;
2,3014206437386E-13;
4,43031107188786E-13;
9,88299769101455E-14;
7,50361023562373E-13;
8,80401178242719E-13;
2,74454365357876E-13;
-3,30303257141345E-14;
5,14885521094232E-13;
7,23562142405529E-13;
3,00534144442995E-13;
5,59651917697436E-13;
-1,93286734496496E-13;
3,30764478170936E-13;
1,3253915004918E-12;
6,40347867260513E-13;
9,5427671929774E-13;
1,56264846155792E-13;
-3,19165049300026E-14;
8,55065337218475E-13;
1,55047136066199E-13;
1,48408216214703E-14;
-8,90239506948269E-16;
-1,43028668585229E-14;
-4,09058252108734E-13;
-2,67312038809792E-13;
7,107130021509E-13;
-2,87160014947027E-14;
8,26549432580695E-14;
4,53950465132937E-13;
4,89307619270748E-13;
1,02887690037499E-12;
-2,47903728556546E-13;
2,9745042128299E-13;
7,61286488580929E-13;
-8,17074746233497E-13;
4,28866256590013E-13;
4,57128605255385E-13;
-9,31772079698783E-14;
6,91875927952114E-13;
-2,32431686865478E-13;
3,95067780101459E-13;
5,08383711552428E-13;
-2,84409302692937E-13;
9,2683714444841E-13;
4,3770053222258E-13;
-5,65470872181444E-13;
-2,91387521284738E-13;
4,0533145608903E-14;
5,79889304130577E-13;
7,21554493703355E-13;
7,80713381149107E-13;
3,01290742756663E-13;
-4,57022321123406E-14;
6,27899663659169E-13;
6,33808199487382E-13;
-1,4380460010286E-13;
-2,5396244945779E-13;
3,5089881538384E-13;
7,15952024202691E-13;
8,52880841166601E-13;
6,11054354370639E-13;
3,35499082567237E-13;
-9,65505532673639E-14;
-2,93085951703679E-14;
6,4056567476943E-13;
2,64951660618649E-13;
4,514888941185E-13;
7,68895814422282E-13;
4,24854559511666E-13;
3,98405174873525E-13;
3,42958710617871E-13;
2,93889589718304E-13;
-1,04796422235455E-13;
1,36584919134456E-13;
1,03727432000364E-12;
1,36563912959276E-12;
6,8170444423057E-13;
3,05706002691068E-14;
5,64418657768481E-13;
-5,20379201548535E-14;
-5,27032259915646E-13;
9,51161787318672E-13;
1,44524102212516E-12;
6,19587623116168E-13;
-4,10248180642013E-13;
-3,62583100130779E-14;
8,59943641163372E-13;
4,24373504859589E-13;
4,85715605520167E-13;
-2,71719356393355E-13;
-6,7825131393822E-13;
1,26832840973329E-12;
9,2747542835794E-13;
-6,5770329262382E-13;
4,00747594163363E-13;
1,34988004820014E-12;
4,02545329849285E-13;
2,63985548457379E-14;
4,91159898705635E-13;
4,37609555159082E-13;
1,04668985613754E-12;
1,25107835740844E-12;
3,79146657453149E-13;
7,78529851993186E-13;
9,87623830983706E-13;
5,31062928841121E-13;
7,50670177926028E-13;
4,50453511483712E-13;
-1,41004957111085E-13;
2,18019580011308E-13;
5,96891894758012E-13;
-1,7454401483442E-13;
-2,09692789915449E-13;
3,3945822944083E-13;
5,45567301615824E-13;
8,57978417122955E-13;
2,99703990972506E-13;
2,52316911248286E-13;
4,43681824255011E-13;
4,29555305587235E-13;
5,46360930949755E-13;
-2,021319413749E-14;
3,48487801577418E-13;
8,18585635901561E-13;
7,74792742106112E-13;
9,35133400089974E-13;
5,54241705684325E-13;
2,82181315642427E-13;
2,62723093235157E-13;
6,86241309583927E-13;
1,21090165311973E-12;
1,05939782872021E-12;
7,00328587446772E-13;
3,51237785422485E-14;
-3,31491436395615E-13;
4,29714532026682E-14;
4,47861467802806E-13;
3,39810989023698E-13;
5,14395079863222E-13;
4,76095984308468E-13;
-5,78337352797159E-13;
1,22716779690334E-13;
9,66351351129425E-13;
2,71106351892604E-13;
3,18169371353144E-13;
-1,26556750875722E-13;
-5,1493986634905E-13;
-2,13524237183349E-14;
1,98363471732477E-13;
7,61840171534959E-13;
9,12410155542385E-13;
4,3908444874066E-13;
1,87671825281609E-13;
-1,0256863020361E-13;
6,99912056942153E-13;
1,55396695907536E-12;
4,22028940657222E-13;
1,55760177756913E-13;
9,55260616478907E-13;
3,92359852374746E-13;
3,96429243380763E-13;
1,15992235266846E-12;
7,46032313899002E-13;
5,15355386113264E-13;
9,30494361149008E-13;
5,96093539294189E-13;
1,96232940703449E-14;
-3,40416172744294E-13;
2,16404097244642E-13;
5,68974928063742E-13;
-1,50647821820626E-13;
4,60653120235497E-13;
5,26319739806234E-13;
2,57904980220732E-13;
8,68318877903111E-13;
3,94697145870842E-13;
6,84577070463523E-13;
4,64943830177886E-13;
4,41334362565521E-14;
1,23778592210595E-12;
1,18462183370458E-12;
1,08414365409701E-12;
6,125463201994E-13;
-7,79575097583896E-13;
6,29933104212229E-14;
9,28693643838076E-13;
1,29013204161294E-13;
2,2336735950522E-13;
2,05662686057517E-13;
1,44784035292494E-13;
1,26224445934615E-12;
3,58444111899057E-13;
-4,65472340115048E-13;
5,27481908841137E-13;
6,44495909267764E-13;
6,60840011661464E-15;
-1,24990047053395E-12;
-5,19991021767545E-13;
5,49520995581677E-13;
-5,13733432750445E-13;
1,34931816402231E-13;
1,04035983881324E-12;
8,35533047732837E-13;
1,20251797473092E-12;
2,08692667997391E-13;
-7,18510433756382E-14;
8,3462760217857E-13;
1,20898185565225E-13;
4,81018806888712E-13;
4,9663549490002E-13;
-1,51827531208056E-13;
5,80641267123695E-13;
7,64063163878826E-13;
8,58472163237048E-13;
1,44899603872624E-13;
1,36463927583982E-13;
6,98151935700123E-13;
1,70553892660272E-13;
7,61659816198594E-13;
7,1937033344614E-13;
3,26637798546881E-13;
6,29544258768591E-14;
2,99687062832745E-13;
1,47730748625375E-12;
3,51286621102965E-13;
-5,31757935810877E-13;
5,45266784048665E-13;
5,61058483375943E-13;
4,03936734182525E-14;
6,19134211086576E-13;
8,15432877396337E-13;
6,08881375142787E-13;
6,8484782204416E-13;
2,58959142288257E-14;
1,27790715568906E-13;
8,11158037701286E-13;
8,88573826356105E-13;
9,32783372374936E-13;
6,90718191958951E-13;
4,33547317733822E-13;
4,99920921595757E-13;
2,65565936149999E-13;
7,81918944551085E-14;
-1,93011092945823E-13;
-5,45829748490571E-13;
2,55731970698327E-13;
8,07093851077564E-13;
5,72058539453919E-13;
1,57847835990923E-13;
1,48732373547993E-13;
1,16432810222421E-13;
-5,64004344496897E-13;
3,06224277403732E-13;
3,5858681726173E-13;
-8,46670092127156E-13;
-2,10340604376452E-13;
4,21683703757949E-13;
1,67877261457791E-13;
1,65943663959201E-13;
2,81189235277144E-13;
1,43534954641354E-13;
-1,72384703091069E-13;
1,4957607925909E-13;
1,07729634333195E-12;
-9,64219575234955E-14;
-7,85056938479974E-13;
7,38637713152994E-13;
4,8915570956841E-13;
1,18452049862903E-13;
-9,67246502970502E-15;
2,82747835397925E-13;
7,08434077031293E-13;
-5,9441507519822E-13;
2,23023596222823E-13;
1,16752659014602E-12;
1,29621461085447E-13;
3,35020756671052E-13;
1,20234737819533E-12;
1,22619098573198E-12;
4,066599824905E-13;
5,02328573968866E-13;
5,69776746148559E-13;
-2,18932609591623E-13;
4,02444200900931E-14;
5,23864662550849E-13;
3,14418398297468E-13;
6,86617242225895E-14;
5,00108015778591E-13;
5,80124605428975E-13;
9,26541097580278E-14;
-1,35314741927008E-13;
1,96929267113512E-13;
1,07722111101641E-12;
7,96044306295298E-13;
3,3034977179282E-13;
-2,44297005727311E-13;
-5,3441816143366E-13;
7,60090315222098E-13;
5,84749509619208E-13;
3,57464881467045E-13;
8,51728814387802E-13;
3,26329254872574E-13;
-8,57544421642527E-14;
-2,98400685922445E-13;
2,38287541936145E-13;
6,25372253926683E-14;
4,34223208395826E-13;
1,37068232935335E-12;
1,68045976866376E-13;
5,76220149902165E-13;
7,21424442194022E-13;
-5,51284343553174E-13;
5,24926151469388E-13;
8,98311430350608E-13;
-9,50421989366688E-14;
4,93539493972586E-13;
1,07642690744666E-12;
3,55284520950494E-14;
-4,36249564829437E-13;
-2,41625052674529E-15;
4,89159050099953E-13;
9,15196964460882E-13;
1,13492658477131E-16;
-1,9156785273175E-13;
6,87920249201494E-13;
-4,08051130620693E-13;
-5,83146267665351E-13;
6,80111367728132E-14;
7,47235956502886E-14;
1,57841995401382E-12;
1,11649903861807E-12;
2,03381585955514E-13;
9,03770221578248E-13;
9,39764617033155E-14;
9,38102678703792E-14;
6,9796070136359E-13;
5,27228052135607E-13;
8,63884131468708E-13;
8,13340627665358E-13;
1,4231639892413E-13;
1,10331920101469E-13;
7,25959510289455E-13;
1,45351280690358E-13;
-1,27109093894455E-13;
1,04844178877124E-12;
9,90861528850992E-13;
6,37173770352391E-13;
6,0102554607321E-13;
-9,67568680531045E-14;
-1,31671849540872E-13;
3,08790795012441E-13;
6,70100314234307E-13;
6,08747042170489E-13;
-7,85026639507441E-14;
3,19673728255632E-13;
7,97013907211865E-13;
-3,24816365881996E-14;
-5,44485975728472E-14;
5,27295809530184E-13;
5,3208224691175E-13;
2,90952097398228E-13;
1,36392750093894E-13;
5,42169919019576E-13;
4,44745538524942E-13;
3,18632522372332E-13;
3,10478534194532E-13;
-5,5003090300755E-13;
1,21328344957112E-13;
5,69800192109575E-13;
-5,83060841141079E-13;
-1,65154821647654E-13;
2,40342876365312E-13;
-1,34212764867745E-14;
3,72427367757687E-13;
6,84207370749448E-13;
5,35420899630333E-13;
2,78327273576769E-14;
3,85133487024013E-13;
7,05447188186588E-13;
1,42498439374295E-13;
4,12227544331351E-13;
5,8066237046161E-13;
-1,45710630841859E-13;
5,50279458408913E-13;
1,01907943292661E-12;
-6,8296400200913E-14;
4,10247740638037E-13;
4,62777465827241E-13;
-1,51830428859355E-13;
6,86382485496186E-13;
6,42752686358595E-13;
3,36408419412624E-13;
4,34562976722118E-13;
3,91701236869181E-13;
5,5245067580856E-13;
5,47061058674896E-13;
3,80725013040343E-13;
4,48901893310893E-14;
4,59820723670764E-13;
1,00994179899648E-12;
2,18379399080317E-13;
-1,85866642629565E-13;
7,08899830243742E-13;
5,45244513995474E-13;
-3,23875216470188E-13;
1,98343392089757E-13;
7,88909495548184E-13;
8,16989776822444E-13;
1,47037296915478E-13;
-6,826480065145E-13;
-2,10661844243824E-13;
4,05734121171911E-13;
4,66117142626812E-13;
-3,67212931450587E-14;
-3,94986235669754E-13;
4,61214122755263E-13;
1,22858169439495E-12;
7,53845633291778E-13;
3,59798930466921E-13;
5,37179744325273E-13;
2,72185478698821E-13;
4,10106890493681E-13;
9,787350310756E-13;
9,46946335334398E-13;
1,06417220676846E-12;
6,71223518108913E-13;
-1,42122998836351E-14;
4,00775908031626E-13;
2,51548008088644E-13;
-8,35195997557807E-14;
2,41966249792454E-13;
2,62820010291409E-13;
5,03864330550179E-13;
7,85628868159381E-13;
2,46135021695746E-13;
2,01309690662328E-13;
1,18661382702817E-12;
2,75094922128323E-13;
-9,04088911439549E-14;
1,12022379317343E-12;
-2,83410182952938E-13;
-4,08183485805882E-13;
7,76078631067738E-13;
-4,97141717236506E-14;
1,45501385596506E-13;
4,81023167572274E-13;
3,04685435930177E-13;
9,47844557789816E-14;
2,0838412272857E-13;
1,2055751229476E-12;
5,11784439210983E-13;
-4,78469899037345E-14;
4,28948594358367E-13;
3,96856567975539E-13;
4,41126109697259E-13;
-4,24676896264443E-14;
1,64530864325118E-13;
9,82730182055092E-13;
5,46723726133133E-13;
3,34403462317981E-13;
1,05193588102693E-12;
6,5551614782501E-13;
3,26167840836471E-13;
1,20642500691518E-12;
9,80151613939386E-13;
1,0248162546974E-13;
3,29577760189436E-14;
7,44275420365108E-13;
5,89048555147355E-13;
-2,60019781233871E-13;
8,01078017537221E-13;
7,90278749528297E-13;
-4,98130731701405E-13;
5,56608941633612E-13;
8,85858368491239E-13;
-2,20327016364178E-13;
8,69538242624178E-14;
4,53853180019009E-13;
2,03945156910169E-13;
5,42273475169027E-13;
1,57052516837076E-13;
-2,85737578632647E-13;
7,77589161240597E-13;
7,69645294499363E-13;
1,35931548021653E-13;
1,99268348856099E-13;
5,41036788660809E-13;
1,01841173147632E-12;
7,47137926636031E-14;
-9,29266245757554E-14;
9,59881130363459E-13;
5,44790844368066E-13;
5,67455688266897E-13;
9,69268772058507E-13;
2,09951870608445E-13;
1,27571401648705E-13;
2,0946250166553E-13;
-4,37707219577129E-13;
-6,09649826055634E-14;
8,38382141454773E-13;
6,73756270553937E-13;
6,25916520577964E-13;
7,1057681949706E-13;
2,73842972878694E-14;
5,315263601412E-14;
1,96131369511811E-13;
3,53288213744645E-13;
1,05634320775332E-12;
1,14872221807652E-12;
8,88329690470512E-13;
1,32150739183105E-13;
-3,46906088014908E-13;
1,99296630483839E-14;
5,80978377963569E-13;
6,03627243381455E-13;
5,86078610277623E-14;
2,44813847745262E-13;
6,87784500979409E-14;
-1,61684234458128E-13;
2,32758754006061E-13;
1,99485169090449E-14;
2,15445815653455E-13;
3,401829548054E-13;
2,28992470297398E-13;
6,29278158063226E-13;
1,74326092936176E-13;
8,32110217046771E-14;
9,31928910973667E-13;
8,06021970224546E-13;
5,97455143104685E-13;
6,18222756079915E-13;
3,98957164727198E-14;
-5,46662606955417E-14;
2,60165497729021E-13;
5,01737118883308E-13;
7,57714772260646E-13;
9,52294661523662E-13;
6,72980518613183E-13;
-2,30950460691562E-13;
-2,15813231357876E-13;
-7,03479740410428E-14;
1,38741977004012E-13;
1,22700817209844E-12;
1,04236114761988E-12;
3,1211483410965E-13;
2,1876807503533E-13;
2,13806094549181E-13;
2,27780878520919E-13;
-3,49721126350263E-13;
-3,72164737167525E-13;
5,43859646221377E-13;
4,27490440995849E-13;
-1,75754667663022E-13;
-8,88599670095804E-16;
1,97889514558561E-13;
-1,54826833368707E-14;
2,84185716150473E-13;
3,42872844390552E-13;
3,70671136458034E-13;
1,23827903350051E-12;
6,00695115046384E-13;
-1,60383734270574E-13;
1,80120880548721E-13;
5,16325013051632E-13;
4,63587318826841E-13;
5,56216078499044E-13;
1,27548517485772E-12;
3,51083121351799E-13;
4,91818288557724E-13;
1,06325321674017E-12;
-6,84211054768039E-14;
3,13086215570389E-13;
1,1595259265497E-13;
1,39022246641724E-13;
5,76036988436378E-13;
8,77262620241173E-14;
8,39635166202357E-13;
-1,24361170505184E-13;
-6,20712467012801E-13;
8,73535235530529E-13;
3,35478397897637E-13;
1,31683987927457E-13;
4,21071668157597E-13;
7,14996835499981E-13;
7,1569382304914E-13;
-8,28617046254664E-14;
8,03866737777975E-13;
8,48033556646568E-13;
1,12330645941907E-13;
8,44896744238547E-13;
1,35277182839199E-12;
5,21541616167775E-13;
-2,30150923642514E-13;
6,87405438168339E-13;
1,2247706151679E-12;
9,26433690236956E-13;
1,62201881122435E-13;
2,00921407323618E-13;
3,74581376094542E-13;
-5,15029600910373E-13;
8,11845301905391E-13;
6,33140400229286E-13;
-6,72938544884223E-13;
7,63588489746778E-13;
5,2511893877863E-13;
2,68190249853212E-13;
9,76491708496665E-13;
6,61416947583344E-14;
4,17558240940117E-13;
1,09483692271357E-12;
2,62189975078039E-13;
5,47391207419342E-13;
9,1369085763331E-13;
7,65337847623149E-13;
1,10525205485098E-12;
4,9967641209169E-13;
6,9422995966579E-14;
1,86134584313317E-13;
7,4931639985097E-13;
6,8349578603649E-13;
-5,79884257761355E-13;
-1,20736028080931E-16;
1,41237839960083E-13;
2,04159360756986E-13;
1,46897325039508E-12;
6,67994556154324E-13;
3,52532335178401E-13;
6,40813286595747E-13;
-2,35664737720593E-13;
2,57779497105034E-13;
7,13841473144832E-13;
2,25968046097235E-13;
1,33718125055658E-12;
1,06106917815879E-12;
2,59963111429281E-14;
1,33287738577985E-12;
5,92448490469521E-13;
2,09374313695589E-13;
9,14711785510214E-13;
1,78612609855389E-13;
1,30276586310151E-12;
1,00122015313164E-12;
1,64530117636443E-14;
3,91425525875469E-13;
-5,98719242766672E-13;
-5,87234441506883E-13;
-2,46688522718434E-13;
-1,80498698971038E-13;
2,42049477784123E-13;
-2,49244813200355E-13;
-6,30984232380384E-13;
-3,20940642199852E-15;
7,42929891608112E-13;
2,31515183510523E-13;
-1,24266130189667E-13;
1,08411058813853E-13;
3,91781450426339E-13;
4,32819264725035E-13;
-3,77094511314336E-13;
5,66940535912738E-13;
1,18698322400446E-12;
-4,21117895654716E-13;
-3,42373561148125E-13;
2,9322047121714E-13;
-2,96004814225368E-13;
-3,98674376932981E-13;
2,95092087432317E-13;
5,82747744104808E-13;
4,09915231640871E-13;
5,96078312778585E-13;
2,60612202346439E-13;
2,2399013891287E-13;
7,33332757359207E-13;
3,8780667317199E-13;
4,95006384737521E-13;
4,45535166348436E-13;
-2,7374823184939E-14;
7,66244433126821E-13;
1,04268612437854E-12;
4,27710060862966E-13;
4,88059125782129E-13;
6,71786819474191E-13;
5,59985791186421E-13;
2,02971617613579E-13;
6,46672354481729E-13;
1,12508449895694E-12;
4,40573247963361E-13;
4,09074151010698E-13;
5,52318617151145E-13;
6,09741013572237E-13;
4,85053005722842E-13;
-3,24498332337555E-14;
8,14185780391621E-13;
9,71764738980509E-13;
1,46658685547511E-14;
-1,71257082443905E-13;
-9,06394270714652E-14;
6,59206570526775E-13;
5,04409112442695E-13;
-4,50740982164241E-14;
7,74299284355242E-13;
6,02873948345117E-13;
3,24596851199411E-13;
5,93539939753978E-13;
2,97792419933008E-13;
5,80084453452139E-13;
8,00058571793651E-13;
4,9065327399941E-13;
3,54392391608051E-13;
-1,96668720701352E-13;
-4,29635999736535E-14;
1,27857545708079E-12;
7,57693195385836E-13;
-4,70897200488594E-13;
-1,59723643524484E-14;
1,3422006817579E-13;
3,75682074617203E-13;
6,19971917407722E-13;
8,82154297924017E-15;
6,59157541578265E-13;
5,24718437232252E-13;
1,75929487488741E-14;
9,04494621007146E-13;
2,30129052872053E-13;
-1,69403208834515E-13;
-2,94278298066546E-14;
-1,25470464821617E-13;
7,24891033869961E-13;
3,25235828630727E-13;
-2,24373370534343E-13;
3,03996637566014E-13;
7,68365237503791E-13;
4,32080898232462E-13;
-3,11132961764592E-13;
-1,84101239098338E-13;
-5,42093998717062E-13;
-5,36980616434729E-13;
3,15044770064878E-13;
5,61091353657297E-13;
7,92924344948579E-13;
7,36710587888764E-13;
4,08221391738553E-13;
3,62677717072871E-13;
8,99750337738197E-13;
7,39027266789497E-13;
-7,733601475838E-14;
4,57673288320572E-13;
1,26166521608764E-12;
8,57983206264369E-13;
2,27266799150646E-13;
3,65032016269865E-13;
2,70912711887533E-13;
-5,92771548164866E-14;
-3,10834969641261E-13;
-1,98536884444725E-13;
9,4164908529238E-14;
-3,07412311814049E-13;
6,51449114498981E-13;
1,5745472785852E-12;
6,39305570374466E-13;
9,03104942325419E-13;
1,32317774845805E-12;
1,38879209662508E-13;
8,65439224804191E-14;
5,40875978370413E-13;
1,19947187503541E-13;
8,32022676668767E-13;
9,07484534417071E-13;
1,28497884763578E-13;
4,71036511829453E-13;
2,91080528460888E-13;
7,09902200025048E-13;
6,83545533364267E-13;
3,37742574541754E-14;
7,29687744080425E-13;
1,09695569258438E-13;
2,25361276467318E-13;
8,43018164648682E-13;
4,60190143417943E-13;
9,66613206796223E-13;
-2,43114406546933E-14;
-8,18275066376014E-13;
5,14220352116131E-13;
1,07927988235667E-12;
1,03191973964036E-12;
9,34598966753166E-13;
3,61001428005714E-13;
4,95365085005641E-13;
6,20923449834512E-13;
5,71854672129546E-13;
2,90556578577489E-13;
-5,43267301778508E-13;
3,362185712019E-13;
5,66507243976013E-13;
2,87661146546539E-13;
1,28152936941707E-12;
2,71172090295285E-13;
-9,64248748178193E-14;
4,00082217560827E-13;
-4,73287693975681E-13;
1,00416833091538E-14;
1,17442600426017E-13;
-3,05419627996575E-13;
7,1083224973549E-13;
7,43192267694995E-13;
7,83047351558114E-14;
7,85312603873612E-13;
1,34077735975149E-12;
6,49322626279665E-13;
4,07893259606021E-13;
4,92868272521817E-13;
3,25530064180358E-14;
2,67511065805937E-13;
5,04831818106162E-13;
4,32155694857957E-13;
7,48755752619047E-13;
6,43964768026685E-13;
7,48026572693265E-13;
4,36634780267107E-13;
-6,97111855832254E-15;
4,58875394337583E-13;
3,67595351854554E-13;
2,99709376166086E-13;
7,51448389155402E-13;
3,86299303475828E-13;
-8,25531042971582E-13;
-4,44339041913224E-13;
1,04266763516195E-12;
5,76455566225489E-13;
-8,50773521753595E-14;
2,66125849080563E-13;
5,99226554609613E-13;
1,06750862191908E-12;
7,07725492195209E-13;
4,24612595681311E-13;
4,38437428637565E-13;
6,19467359084577E-14;
6,02784048472102E-13;
1,46443911521261E-14;
-9,06587674591153E-13;
-7,74816602696531E-14;
7,23820968822033E-13;
8,31761109386536E-13;
2,03652673814483E-13;
1,23808398857245E-13;
-7,52583831586088E-14;
-2,59271715620472E-13;
3,82990056243455E-13;
4,66595497242348E-14;
2,31146539252686E-13;
5,53358194779929E-13;
-2,7458302365997E-14;
4,86160249514169E-13;
1,01856150767109E-12;
5,99397509272042E-13;
1,69191434512494E-13;
6,90504545857703E-13;
1,02496996468353E-12;
-3,18652414655995E-13;
-3,57108146488698E-13;
5,22090865815286E-13;
7,5049582786521E-14;
-1,8150956732946E-13;
4,14301654147921E-13;
8,63096918902506E-13;
-4,00011481082039E-13;
-5,09276611105852E-13;
5,25347864302212E-13;
-1,0613191465641E-13;
1,95846642903087E-13;
2,72627883370872E-13;
-3,88361236626292E-15;
6,18407846644742E-13;
6,87350844446779E-13;
1,13097199243351E-12;
1,33552369828156E-12;
6,76171289030321E-13;
1,15265773498576E-13;
2,70541920758247E-13;
4,03466247935531E-13;
6,06391832442418E-13;
6,82604777726272E-13;
3,60452689228178E-13;
1,27064121377555E-12;
9,16017526416473E-13;
5,63117981517656E-15;
6,69601195135842E-13;
2,67871788525193E-13;
-2,36637923291755E-13;
2,40446906145011E-13;
5,36149701714393E-13;
3,6033559697814E-13;
4,20128956824112E-13;
2,93002259429152E-13;
-4,53027113152868E-14;
8,33731599878373E-13;
3,39652145313819E-13;
-3,54076011762793E-13;
1,09494904137792E-12;
3,64442663119782E-13;
-4,79800615978956E-13;
7,75478330225095E-13;
5,54783650772112E-13;
5,45849873809847E-13;
8,84066198683873E-13;
3,36715181831768E-13;
4,23898650082455E-13;
3,47900137491076E-13;
7,80557303998881E-13;
1,02917347269369E-12;
6,51691291049094E-13;
1,12830384811615E-12;
3,93321929452417E-13;
9,36935081240539E-14;
6,44156197118549E-13;
-2,4603880353447E-13;
3,24712586104529E-13;
1,0179459722286E-12;
1,7124936661424E-13;
4,22281756819979E-13;
5,4107921928789E-13;
-1,44188373875964E-13;
-2,15560607547855E-13;
7,70777830738686E-13;
8,49583238547654E-13;
-3,16220048568379E-13;
5,83831242554877E-13;
8,525254946371E-13;
0,00933343404607493;
0,0226297298258881;
0,0163727372765005;
0,00943309617725569;
0,0121693917861588;
0,00702616733143111;
0,00563481713059167;
0,00458271005396465;
0,000840500090221447;
0,00103239237214435;
-0,0011904394948939;
-0,00199195265693077;
-0,00280713693457282;
-0,00455368131937501;
-0,00488732499953511;
-0,00585590070868534;
-0,00594121727297532;
-0,00618248832229533;
-0,00699357666755138;
-0,00792070354730917;
-0,00934888799440076;
-0,0102428887113563;
-0,0105184993939155;
-0,0101085231423742;
-0,00920766466695276;
-0,00843029680231919;
-0,00783043416782611;
-0,00745747149695302;
-0,00704805327932527;
-0,00641867706881499;
-0,0056754536326279;
-0,00495848727226592;
-0,00445308141412825;
-0,00409076741167652;
-0,00366382586825064;
-0,00302656743742207;
-0,0022282325438571;
-0,00157282907343287;
-0,00136107645986036;
-0,00166524557384595;
-0,00222572542180786;
-0,00258706177274352;
-0,00240676232091462;
-0,00165718471562051;
-0,000624734015067116;
0,000316669697481606;
0,000963663523659127;
0,00137586886899063;
0,00176513174823057;
0,0022784619320845;
0,00287371183696838;
0,00337820905250845;
0,00366494227475214;
0,00378442559172342;
0,00392474763682436;
0,00423344806264012;
0,00465410314821059;
0,00492912948568157;
0,00478539611590199;
0,00416205590826342;
0,00329839411611801;
0,00260120493701055;
0,00238404675905042;
0,00267133447161982;
0,00320917063064335;
0,00366539555847071;
0,00385876826776893;
0,00384594464799678;
0,00381730502365588;
0,0039061888742259;
0,00407638930724325;
0,0041746199573226;
0,00408914816322483;
0,00386593851132533;
0,00367395077459157;
0,00364551935652362;
0,00373088376159226;
0,00370125625892039;
0,00331394893920925;
0,00251555483976421;
0,00151956437357997;
0,000688088782646068;
0,000299921507102964;
0,000376496335300225;
0,000692035009923458;
0,000951432382391469;
0,000993755270816363;
0,000869183490237961;
0,000746304649825129;
0,000742935836234552;
0,000826535917757848;
0,000860914881411504;
0,000746775454432831;
0,00052437674698747;
0,000342641814860896;
0,000317918804680249;
0,000405552501725417;
0,000402860404518512;
9,51196663358392E-5;
-0,000565180948869633;
-0,0107236164877828;
-0,0246910037827343;
-0,018706354487556;
-0,0116223592943022;
-0,0139972387360139;
-0,00853592289756305;
-0,00701192127237167;
-0,00596902286080299;
-0,00223033989627092;
-0,0023172717943106;
8,97661343694563E-5;
0,00103463609694288;
0,00186474291525273;
0,00353260259832565;
0,00382392664441194;
0,00488786326939573;
0,00516656254279471;
0,00552145619951688;
0,00617835279684473;
0,00664177265174236;
0,00746064874641347;
0,00787759597665192;
0,00802158625569826;
0,00784053012510808;
0,00735462448652762;
0,00695105593290794;
0,0065599179047567;
0,00626843174527063;
0,00594145075918798;
0,00548465812331185;
0,00497855075645842;
0,00445879659199245;
0,00403463682787934;
0,00366783364148802;
0,00326335428955321;
0,00276323493131631;
0,00218226985164564;
0,0016705499619075;
0,00136622431356928;
0,00130576063870609;
0,00137147127014257;
0,00134804346786322;
0,00107699073161449;
0,000543583800801391;
-0,000116334502213858;
-0,000724583160853907;
-0,00118434704076877;
-0,00152244936095652;
-0,00184024513562973;
-0,00220794459612252;
-0,00260531817117134;
-0,00294924153607094;
-0,00317776862285252;
-0,00331523397791874;
-0,00345292230491617;
-0,00366309226926603;
-0,00391872199548364;
-0,00409377840144841;
-0,004053873589572;
-0,0037683832992884;
-0,00335502044656346;
-0,00301538525402445;
-0,00290602835834857;
-0,00304040644811778;
-0,0032929096340072;
-0,00349792677213007;
-0,00356466125044986;
-0,00352164921112622;
-0,00346521642020713;
-0,00346340006597174;
-0,0034985299797894;
-0,00349315078213176;
-0,00339050036330864;
-0,00321419526748258;
-0,0030511566150023;
-0,00297002122016792;
-0,00294586743908784;
-0,0028609245937214;
-0,00258939496344458;
-0,00210309155250854;
-0,00151283612731972;
-0,00100788060552817;
-0,000734996238969795;
-0,000706570813850991;
-0,000804732263007741;
-0,000874202719002094;
-0,000829829987325977;
-0,00069812280480044;
-0,000568858968489038;
-0,000505246883479753;
-0,000490307440577999;
-0,000451225008053286;
-0,000334548729533495;
-0,000161839330434907;
-1,36443021009848E-5;
4,66544130956309E-5;
4,29415642037042E-5;
8,55694756274113E-5;
0,000292250952439988;
0,00068973046419423;
0,00117541312245441;
0,00157388875868606;
0,00174942933578731;
0,00169131748021467;
0,00150982607106072;
0,00134983223881998;
0,0012909728396621;
0,00130920953784563;
0,00132185063197061;
0,00127090372545358;
0,00117271456948411;
0,00109530365368767;
0,00108867139053488;
0,00113332918313215;
0,00115522383530691;
0,00109623070306031;
0,000978922468875629;
0,000905712284126061;
0,000985677448292724;
0,00124377308557717;
0,0015855430319348;
0,00184943190401577;
0,0019106145863793;
0,00175959518949906;
0,00149834145300588;
0,00126056786988874;
0,0011197716018193;
0,00105394594266472;
0,000987128154098061;
0,000866119300668856;
0,000706078703005819;
0,000569606170545956;
0,000502666784788741;
0,000487363045689512;
0,000455721296029394;
0,000354429511796347;
0,00020421037370353;
9,89339121844016E-5;
0,000138466950464666;
0,000345511935304337;
0,000633403625993852;
0,000854135512428314;
0,000893432898339631;
0,000742587387514635;
0,0004947835431067;
0,000272121620015726;
0,000141579695588052;
8,28694878573674E-5;
2,6472244098173E-5;
-7,63033802952994E-5;
-0,000211769230904687;
-0,000323008905311283;
-0,000368321705735406;
-0,000364219263693923;
-0,000372793466162996;
-0,00044273297710679;
-0,000555323120389442;
-0,000625342765759206;
-0,000562198637696818;
-0,000345503530318271;
-5,42358161408293E-5;
0,000177000839748377;
0,00024434528997875;
0,000139815373298638;
-5,21469021572358E-5;
-0,000220953273589093;
-0,000306058213218209;
-0,000326011717131012;
-0,000343916847585654;
-0,000403962757733248;
-0,000493856149642193;
-0,000562215373306526;
-0,000571455608775843;
-0,000536624096372861;
-0,00051391967682826;
-0,000547380097812579;
-0,000620159082807547;
-0,000655416110909797;
-0,000571530062143134;
-0,000350239367750859;
-6,28363677438356E-5;
0,000169348863539394;
0,000252779558871091;
0,000180302398555613;
2,79291270564426E-5;
-0,000104873118974184;
-0,000163699952937257;
-0,000165257795243419;
-0,000166248195967884;
-0,000206336749696153;
-0,000274461381037921;
-0,000324502689538263;
-0,000322751228929476;
-0,000282699343130367;
-0,000254692679408946;
-0,000278135969198679;
-0,000337890839651096;
-0,000365144786228901;
-0,000286869560446617;
-8,67513113161127E-5;
0,000171472697744488;
0,000379420173887646;
0,000453623037382829;
0,000387792735919855;
0,000249849503361132;
0,000128576257191791;
7,25119563432475E-5;
6,6793264888996E-5;
6,09497579934446E-5;
1,97224793737493E-5;
-4,69756480590035E-5;
-9,80592007954585E-5;
-0,000103515484230226;
-7,53095232506216E-5;
-5,81340124718199E-5;
-8,69258274482766E-5;
-0,000148179527834762;
-0,000180784471059658;
-0,00011994945334812;
4,87826874598538E-5;
0,000268925662535708;
0,000444501443918523;
0,000501669408633568;
0,000434943444816584;
0,000304474203458524;
0,000188803012340445;
0,000130842821443264;
0,000117472224703011;
0,000104147791272844;
5,97871298669082E-5;
-6,82634117587751E-6;
-5,94403396326414E-5;
-7,15963129844823E-5;
-5,38344744197314E-5;
-4,54978417240636E-5;
-7,73087018824871E-5;
-0,000137355360686996;
-0,000171888970617633;
-0,000123980005645537;
1,90364526532385E-5;
0,000207530674260672;
0,000357263612900543;
0,000403486629761336;
0,000341428865146613;
0,000223832623324014;
0,000119498071918323;
6,59781533075695E-5;
5,1770529652663E-5;
3,79085637457785E-5;
-2,77342393889166E-6;
-6,25929170094259E-5;
-0,000109894617160666;
-0,000121603014451774;
-0,000106937319463236;
-0,000100217081477629;
-0,000128215598033859;
-0,000180549766295082;
-0,000210430677918939;
-0,000168350685478902;
-4,33440266299996E-5;
0,00012140174024916;
0,000252676818330615;
0,000294263639848083;
0,000242043414070343;
0,000141780416862002;
5,31144175822307E-5;
8,5597290463251E-6;
-1,8715118825102E-6;
-1,19206160443613E-5;
-4,50877483882788E-5;
-9,47281472770034E-5;
-0,000133496090871397;
-0,000141483881301722;
-0,000126672695647083;
-0,000118681201891608;
-0,000140589989911805;
-0,000183445044483099;
-0,000206958179838779;
-0,000168546841170782;
-5,88213443018469E-5;
8,5053166990641E-5;
0,00020016282763832;
0,000238248481875357;
0,000195800878185431;
0,000112086185317864;
3,82199092805035E-5;
2,03588973625036E-6;
-5,03339504093585E-6;
-1,18590256061522E-5;
-3,85248949105349E-5;
-7,93429332227897E-5;
-0,000110961930987281;
-0,000116404944656267;
-0,000102492316142057;
-9,44703964488472E-5;
-0,000111986229571176;
-0,000147403040445811;
-0,000166448210244935;
-0,000132942785410629;
-3,8942867377459E-5;
8,39742138902302E-5;
0,000182431370753927;
0,000215536755966296;
0,000180349058455806;
0,000110133941776326;
4,81391689553708E-5;
1,78853145320854E-5;
1,21248598284846E-5;
6,48783073015006E-6;
-1,59532405306398E-5;
-5,03875607325664E-5;
-7,71398438312747E-5;
-8,19266226739043E-5;
-7,04927851587796E-5;
-6,40548448440075E-5;
-7,90972846565421E-5;
-0,000109192600030201;
-0,000125595874068432;
-9,80084366934711E-5;
-1,98084051996493E-5;
8,25638677167906E-5;
0,000164488748325745;
0,000191834748868534;
0,000162179936156287;
0,00010328701541888;
5,11931606650946E-5;
2,54689052399684E-5;
2,00770569491659E-5;
1,47682427225517E-5;
-4,49794656060169E-6;
-3,37149175065151E-5;
-5,65695564150876E-5;
-6,12404115273503E-5;
-5,24899387987151E-5;
-4,7855489558443E-5;
-6,09369577444353E-5;
-8,64134532024854E-5;
-0,000100584653286786;
-7,85143776667672E-5;
-1,47852619590564E-5;
6,88427900742249E-5;
0,000135724334243133;
0,000157878768082403;
0,000133352137852559;
8,48971094009884E-5;
4,19914145938393E-5;
2,06134812680187E-5;
1,58240541095051E-5;
1,11135351962689E-5;
-4,94097424960588E-6;
-2,906632020028E-5;
-4,80022097031864E-5;
-5,2161626302743E-5;
-4,54182275720346E-5;
-4,19781824072425E-5;
-5,28320721911115E-5;
-7,36643554549529E-5;
-8,53425751824071E-5;
-6,77827023507989E-5;
-1,66566987337328E-5;
5,05058592254442E-5;
0,000104262943541163;
0,00012218639356732;
0,000102741417674216;
6,41567175594558E-5;
2,99913870347429E-5;
1,29840934160894E-5;
9,1844033225771E-6;
5,45067519943605E-6;
-7,28471093940681E-6;
-2,64108245003141E-5;
-4,14156909281423E-5;
-4,47225461181374E-5;
-3,94060739652163E-5;
-3,66791582096302E-5;
-4,51895249695023E-5;
-6,15259203063639E-5;
-7,06569799035103E-5;
-5,68519829999282E-5;
-1,67586437472732E-5;
3,58873204679408E-5;
7,80996803470948E-5;
9,24234699303044E-5;
7,76982314693871E-5;
4,81030010792249E-5;
2,19019772178486E-5;
8,93740014288905E-6;
6,14346793712157E-6;
3,38802435098424E-6;
-6,29330243810874E-6;
-2,08810962966054E-5;
-3,23156646411049E-5;
-3,4812489852376E-5;
-3,07328083330015E-5;
-2,86211411916384E-5;
-3,50380475796895E-5;
-4,73776981617185E-5;
-5,42587713996312E-5;
-4,38225217182148E-5;
-1,3582567401114E-5;
2,60996727411767E-5;
5,79753776595865E-5;
6,90069240020909E-5;
5,83662087296419E-5;
3,66390164577243E-5;
1,73939534295691E-5;
7,90649488557031E-6;
5,89574287760542E-6;
3,8957151127864E-6;
-3,19581397525113E-6;
-1,38829357934845E-5;
-2,22748043688571E-5;
-2,41706980282383E-5;
-2,13003344232411E-5;
-1,9850457168031E-5;
-2,45386680769071E-5;
-3,34701933106746E-5;
-3,84835496035335E-5;
-3,11333582984946E-5;
-9,69508181374823E-6;
1,84437696202725E-5;
4,10871973026662E-5;
4,90855947192147E-5;
4,19031799409277E-5;
2,69663420495104E-5;
1,37173353682088E-5;
7,17750115630038E-6;
5,75551158403349E-6;
4,32514272114291E-6;
-5,82855860780781E-7;
-7,93201336947143E-6;
-1,37321660857769E-5;
-1,51694960963294E-5;
-1,34204442193871E-5;
-1,26085459782849E-5;
-1,58399563887637E-5;
-2,18421048483143E-5;
-2,52671464703064E-5;
-2,06503770090262E-5;
-6,93156674588468E-6;
1,10969618953636E-5;
2,56454597273146E-5;
3,09527237114027E-5;
2,67373078250789E-5;
1,76748017702092E-5;
9,61695636799422E-6;
5,62486238604647E-6;
4,70657243966337E-6;
3,76817192430927E-6;
7,5761337701199E-7;
-3,68806677000571E-6;
-7,22771543471464E-6;
-8,24984572762201E-6;
-7,45140384692986E-6;
-7,16938475072679E-6;
-9,11578532656545E-6;
-1,25570352803621E-5;
-1,45783993966086E-5;
-1,22907611536064E-5;
-5,20719939326629E-6;
4,12039486508104E-6;
1,17034624628312E-5;
1,47019577650348E-5;
1,30533368937034E-5;
9,06423721334746E-6;
5,49636309278035E-6;
3,72486710406949E-6;
3,27295086863401E-6;
2,79223142130653E-6;
1,44676891083865E-6;
-4,69800589465177E-7;
-2,03076848895051E-6;
-2,65507052911291E-6;
-2,62882326278549E-6;
-2,7598509199293E-6;
-3,56796648386325E-6;
-4,78104517361969E-6;
-5,56365894756008E-6;
-5,22588460221434E-6;
-3,76958617587104E-6;
-1,83553146893776E-6;
-1,72448720460824E-7;
8,67566453425185E-7;
1,4082296980675E-6;
1,74130695981863E-6;
2,00221845560586E-6;
2,13429175814963E-6;
2,09803349570392E-6;
2,02540029009184E-6;
2,11076331587102E-6;
2,35637339235058E-6;
2,49142267338682E-6;
2,22548396213368E-6;
1,61995914334651E-6;
1,15875076761189E-6;
1,32804527656079E-6;
2,01022599365074E-6;
2,2877799382137E-6;
9,98413759712534E-7;
-2,27063327312951E-6;
-6,5522104098167E-6;
-9,8718914638778E-6;
-1,04923375953615E-5;
-8,13347408695044E-6;
-4,19276685583621E-6;
-7,34791101270736E-7;
9,85455928183301E-7;
1,29435427657709E-6;
1,56086000574665E-6;
2,839284523924E-6;
4,88830338813327E-6;
6,43855351757479E-6;
6,47380520328143E-6;
5,34499452601555E-6;
4,61033225105695E-6;
5,59163230431467E-6;
7,84723200671998E-6;
9,00523633599557E-6;
6,36840181606426E-6;
-8,15755287790696E-7;
-1,02492372051223E-5;
-1,77063510314602E-5;
-1,97241434816321E-5;
-1,58934910819784E-5;
-9,00407585896104E-6;
-2,93181540971262E-6;
8,27556959589652E-8;
6,66794742911424E-7;
1,20465568527615E-6;
3,45551239670425E-6;
6,97797790158765E-6;
9,68511081640431E-6;
9,96730975424941E-6;
8,41229531540955E-6;
7,45502373456508E-6;
9,09818725662382E-6;
1,26357164238013E-5;
1,45122761786509E-5;
1,07834432032257E-5;
4,21491264952161E-7;
-1,31959298622872E-5;
-2,40194798600734E-5;
-2,71901665936292E-5;
-2,21946210427216E-5;
-1,29460423031288E-5;
-4,78018957813881E-6;
-7,30776719752739E-7;
7,12776079947854E-8;
8,25501803968657E-7;
3,855883344853E-6;
8,56026249832673E-6;
1,21974029818529E-5;
1,26837554665625E-5;
1,07962288943735E-5;
9,66843568822648E-6;
1,18445237110534E-5;
1,64077248253664E-5;
1,88631677494109E-5;
1,42781920522498E-5;
1,40781439997624E-6;
-1,55165349090194E-5;
-2,90062330119208E-5;
-3,31024021513063E-5;
-2,72097745256682E-5;
-1,61239487113017E-5;
-6,32519539479812E-6;
-1,4679057454518E-6;
-4,93827748609832E-7;
4,32353719761948E-7;
4,07401648625475E-6;
9,70341759184565E-6;
1,40711787359643E-5;
1,47266388923925E-5;
1,25933302333548E-5;
1,13443367081766E-5;
1,39406977474912E-5;
1,93029392022634E-5;
2,22144235386198E-5;
1,69853610089761E-5;
2,20526533869691E-6;
-1,72420415507398E-5;
-3,27712272262872E-5;
-3,75873992753332E-5;
-3,10333653168857E-5;
-1,857257734042E-5;
-7,54930664125414E-6;
-2,08520867316617E-6;
-9,79718876341625E-7;
7,89200908469618E-8;
4,18213387660537E-6;
1,05078675143979E-5;
1,54283007852723E-5;
1,62204374609528E-5;
1,39167157891386E-5;
1,25886427899489E-5;
1,55038354719075E-5;
2,14626316524175E-5;
2,47193867127295E-5;
1,90316582115039E-5;
2,86925926223758E-6;
-1,8409552483009E-5;
-3,54253629380943E-5;
-4,07803081701665E-5;
-3,37729832341961E-5;
-2,03454972884845E-5;
-8,45882093157713E-6;
-2,56665889699883E-6;
-1,36736409750601E-6;
-2,12994208112885E-7;
4,21796908933496E-6;
1,10366894286322E-5;
1,63509664001171E-5;
1,72487772715696E-5;
1,48383409286075E-5;
1,3465766683217E-5;
1,66084548874955E-5;
2,29838632201271E-5;
2,64863706011995E-5;
2,05001127825693E-5;
3,41536703917432E-6;
-1,90909344899675E-5;
-3,71101286562451E-5;
-4,28452676227731E-5;
-3,55662965565351E-5;
-2,15287659218697E-5;
-9,09442706339677E-6;
-2,93100769364847E-6;
-1,67171541996175E-6;
-4,54672591585264E-7;
4,18639290538698E-6;
1,13198621665713E-5;
1,68884589825969E-5;
1,78636294881386E-5;
1,54005860740664E-5;
1,40124147218449E-5;
1,73022075507613E-5;
2,39369510533001E-5;
2,75977629851756E-5;
2,14508598840933E-5;
3,84184986809293E-6;
-1,93686003841397E-5;
-3,79719357643975E-5;
-4,39486576265434E-5;
-3,65536325537439E-5;
-2,22131039342146E-5;
-9,50307939818179E-6;
-3,20338367681583E-6;
-1,91306212720536E-6;
-6,6171952265572E-7;
4,08812503348262E-6;
1,13827608008409E-5;
1,70853516029954E-5;
1,81132136098133E-5;
1,56438001641487E-5;
1,42646605024382E-5;
1,76323424744324E-5;
2,43911924024274E-5;
2,81349826198052E-5;
2,19454050034584E-5;
4,15332339663632E-6;
-1,93124059146874E-5;
-3,81396871106123E-5;
-4,42375652405465E-5;
-3,68575243616021E-5;
-2,24746303863625E-5;
-9,71993447931379E-6;
-3,39838150671577E-6;
-2,10124136122784E-6;
-8,3939219453275E-7;
3,93324844274829E-6;
1,12584872161397E-5;
1,69926732881768E-5;
1,80520416135194E-5;
1,56152681469714E-5;
1,42658576260263E-5;
1,76525380667173E-5;
2,44206113542339E-5;
2,81831883937553E-5;
2,20503973246111E-5;
4,36373214431904E-6;
-1,89774139269091E-5;
-3,77232813048954E-5;
-4,38390619107012E-5;
-3,65828302838084E-5;
-2,23758357017863E-5;
-9,77012217167718E-6;
-3,52254983577013E-6;
-2,23876098046536E-6;
-9,86330177724754E-7;
3,73687857915012E-6;
1,09829863570967E-5;
1,66625245409375E-5;
1,77350965239541E-5;
1,53630220434004E-5;
1,40601012780392E-5;
1,74160359720546E-5;
2,40967967110298E-5;
2,78238785493306E-5;
2,18300726550704E-5;
4,48868188287311E-6;
-1,84116106166518E-5;
-3,68213400718187E-5;
-4,28679489683773E-5;
-3,58244790526966E-5;
-2,197331637057E-5;
-9,67644571532222E-6;
-3,58201698012391E-6;
-2,32833803851737E-6;
-1,10197274241335E-6;
3,51190934995619E-6;
1,05879558936013E-5;
1,61411597736271E-5;
1,72111135007953E-5;
1,49293345559916E-5;
1,3685956962992E-5;
1,69696217976174E-5;
2,34831494673382E-5;
2,71294031758785E-5;
2,13410127308796E-5;
4,54047084447226E-6;
-1,76605892679909E-5;
-3,5525615702263E-5;
-4,14308619290986E-5;
-3,46712490057157E-5;
-2,13212095453884E-5;
-9,46247458932088E-6;
-3,58527649534761E-6;
-2,37537795498351E-6;
-1,18873768820067E-6;
3,2671143430951E-6;
1,00992427551088E-5;
1,54676870200158E-5;
1,65215432185614E-5;
1,43499119156082E-5;
1,31758902245891E-5;
1,63533021054491E-5;
2,2634799701396E-5;
2,61631096263705E-5;
2,06324918382197E-5;
4,5285509689719E-6;
-1,67670372280136E-5;
-3,39203780023366E-5;
-3,96254964550444E-5;
-3,32047836186391E-5;
-2,04699750162329E-5;
-9,1511255344071E-6;
-3,54160296620566E-6;
-2,38628100885823E-6;
-1,25023680583999E-6;
3,00906172861631E-6;
9,53887250561963E-6;
1,46761627575457E-5;
1,57026982482808E-5;
1,36560757127329E-5;
1,25584607539403E-5;
1,56025291975492E-5;
2,16008927516939E-5;
2,49816515075287E-5;
1,97486995281282E-5;
4,46160171650331E-6;
-1,57688250081406E-5;
-3,20806662121301E-5;
-3,753892802909E-5;
-3,14978765268363E-5;
-1,94646043577526E-5;
-8,76280598676277E-6;
-3,45920687405996E-6;
-2,36663976936249E-6;
-1,28951860790834E-6;
2,74381466565284E-6;
8,92673821665484E-6;
1,37972766501862E-5;
1,47873570081944E-5;
1,28762395048751E-5;
1,18597003788117E-5;
1,47495333753383E-5;
2,04258881255505E-5;
2,36362234881088E-5;
1,87298488431528E-5;
4,3483834737659E-6;
-1,46984746992834E-5;
-3,00720015021571E-5;
-3,52474516695029E-5;
-2,96142961011175E-5;
-1,83443595934623E-5;
-8,3151012551562E-6;
-3,34491713438353E-6;
-2,32098954825267E-6;
-1,30888396058022E-6;
2,47712275749329E-6;
8,28080205837634E-6;
1,28585289452819E-5;
1,38048886025585E-5;
1,20359633532324E-5;
1,11031001751306E-5;
1,38232756755285E-5;
1,91495340693605E-5;
2,21725374561082E-5;
1,76120218574757E-5;
4,19734332325772E-6;
-1,35838400764076E-5;
-2,79513108640537E-5;
-3,28175757372833E-5;
-2,7609699720934E-5;
-1,71435340298258E-5;
-7,82338437009856E-6;
-3,20473311702595E-6;
-2,25335144988708E-6;
-1,31041602662299E-6;
2,21392902633324E-6;
7,61667583292147E-6;
1,18838788674547E-5;
1,27809160434299E-5;
1,11575689104038E-5;
1,03091956613378E-5;
1,28490911111125E-5;
1,78065948754158E-5;
2,06305846451532E-5;
1,64268687932677E-5;
4,01610138441084E-6;
-1,24488984059194E-5;
-2,57679112965717E-5;
-3,03070601359834E-5;
-2,55325524660819E-5;
-1,58921459509763E-5;
-7,30133147688477E-6;
-3,04423893639738E-6;
-2,16759822064567E-6;
-1,29631388794754E-6;
1,95811567675287E-6;
6,94749402697116E-6;
1,08937106434869E-5;
1,17372997516346E-5;
1,02601138844268E-5;
9,4955454900423E-6;
1,18487147781928E-5;
1,64269850800602E-5;
1,90448444777272E-5;
1,52017375215548E-5;
3,81135773281813E-6;
-1,13141341457047E-5;
-2,35641356439501E-5;
-2,77655840576804E-5;
-2,3424648761518E-5;
-1,46162468859527E-5;
-6,76102110701978E-6;
-2,86858758475492E-6;
-2,06742367070335E-6;
-1,26882841260893E-6;
1,7126548821465E-6;
6,28416037047987E-6;
9,90516437005383E-6;
1,06924972106327E-5;
9,35971613555026E-6;
8,67704026848523E-6;
1,08406484338774E-5;
1,50362223569463E-5;
1,7444777350452E-5;
1,39600879806812E-5;
3,58906236102615E-6;
-1,01966965355544E-5;
-2,13757273662176E-5;
-2,52352114051028E-5;
-2,13214723766358E-5;
-1,33380582061573E-5;
-6,21289417366847E-6;
-2,68238370643017E-6;
-1,95618912073321E-6;
-1,23008765827143E-6;
1,47984006980197E-6;
5,63568746014472E-6;
8,93254784950434E-6;
9,6619667244279E-6;
8,46991909367883E-6;
7,86624261404628E-6;
9,84053032618186E-6;
1,36558878044723E-5;
1,5855330609523E-5;
1,27218889951273E-5;
3,35454877376653E-6;
-9,11059530067522E-6;
-1,92323080254448E-5;
-2,27509379169667E-5;
-1,92526235077793E-5;
-1,2076202281504E-5;
-5,66579901230135E-6;
-2,48962520888894E-6;
-1,83686342954475E-6;
-1,1820361949916E-6;
1,26141372663405E-6;
5,00941469975979E-6;
7,98762534279298E-6;
8,65847935620952E-6;
7,60195132336291E-6;
7,07360706280851E-6;
8,86139864196036E-6;
1,23039694586556E-5;
1,42973255320082E-5;
1,15039089354871E-5;
3,11256376001161E-6;
-8,06700296818144E-6;
-1,71579453919136E-5;
-2,03413454536863E-5;
-1,72423606012652E-5;
-1,08460213385469E-5;
-5,12713009572207E-6;
-2,29376782852561E-6;
-1,71206372518239E-6;
-1,12645064608522E-6;
1,05860814695504E-6;
4,41115469551881E-6;
7,07984576836091E-6;
7,69233944284342E-6;
6,76491025316549E-6;
6,3076437336386E-6;
7,91389590425059E-6;
1,09951609293857E-5;
1,27877925938361E-5;
1,03199616734802E-5;
2,86726142731292E-6;
-7,07459765784923E-6;
-1,51717438793898E-5;
-1,80292576469706E-5;
-1,53101476728472E-5;
-9,65992844182897E-6;
-4,60299229390082E-6;
-2,09778974439943E-6;
-1,58410919820115E-6;
-1,06497665809156E-6;
8,72186223638736E-7;
3,84532591167522E-6;
6,21654223669294E-6;
6,77160548443796E-6;
5,96594836407374E-6;
5,57508621932892E-6;
7,00647826283239E-6;
9,74115408172795E-6;
1,13403192029624E-5;
9,18116488336913E-6;
2,62221754606361E-6;
-6,13986477443237E-6;
-1,32883999504593E-5;
-1,58323738211758E-5;
-1,34711756080444E-5;
-8,52771438176475E-6;
-4,09833805596118E-6;
-1,90424251051402E-6;
-1,45503846244875E-6;
-9,99129604355335E-7;
7,02495200584254E-7;
3,31510888796541E-6;
5,40317423482357E-6;
5,90234134585561E-6;
5,2104845586244E-6;
4,88107950414904E-6;
6,14564694984395E-6;
8,55095999693532E-6;
9,96541423474498E-6;
8,09621275887344E-6;
2,38046807491426E-6;
-5,26735018755067E-6;
-1,1518698201545E-5;
-1,37638353738704E-5;
-1,17368263851275E-5;
-7,45683040981508E-6;
-3,61706652137728E-6;
-1,7152645544163E-6;
-1,32661779691773E-6;
-9,30285071039459E-7;
5,49544740235366E-7;
2,8226217484023E-6;
4,6435653270629E-6;
5,08885878291691E-6;
4,50241946425292E-6;
4,22937636157478E-6;
5,33618203077089E-6;
7,4312254444758E-6;
8,67086296740552E-6;
7,07165850678184E-6;
2,14456678028005E-6;
-4,45991265094631E-6;
-9,8699892312707E-6;
-1,1832773250478E-5;
-1,01151165133077E-5;
-6,45264041289504E-6;
-3,16213499302027E-6;
-1,53261862777573E-6;
-1,20035374474513E-6;
-8,5967472899634E-7;
4,13065455996394E-7;
2,36905843451982E-6;
3,94011433038698E-6;
4,33395202433099E-6;
3,84432772309239E-6;
3,62250984584575E-6;
4,58136133491316E-6;
6,38652303880149E-6;
7,46206464468718E-6;
6,11216495115423E-6;
1,91661807607587E-6;
-3,71894898183416E-6;
-8,34663743484094E-6;
-1,00448270113929E-5;
-8,61113477239756E-6;
-5,51869428892231E-6;
-2,73566211469447E-6;
-1,35771245373468E-6;
-1,0775053411554E-6;
-7,88383545898986E-7;
2,92564422848794E-7;
1,95482975567309E-6;
3,29400027287742E-6;
3,63910049676527E-6;
3,23764313677309E-6;
3,06195950569536E-6;
3,88314600096739E-6;
5,4196169050336E-6;
6,34233215459915E-6;
5,22074262851304E-6;
1,69832640204515E-6;
-3,04462447064622E-6;
-6,95045683412651E-6;
-8,40263296598413E-6;
-7,2274401704982E-6;
-4,65696023881027E-6;
-2,33903635631384E-6;
-1,19164700530103E-6;
-9,59108308979543E-7;
-7,17364472172149E-7;
1,87368425582995E-7;
1,57968673838187E-6;
2,7053600911237E-6;
3,004662873512E-6;
2,6828112513166E-6;
2,54829304227538E-6;
3,24237636964623E-6;
4,53171773596123E-6;
5,31317990931912E-6;
4,39896602500388E-6;
1,49101625681519E-6;
-2,43607327131451E-6;
-5,68109203225854E-6;
-6,90628099918721E-6;
-5,96444329811572E-6;
-3,86806326637988E-6;
-1,9730147274394E-6;
-1,03524211979021E-6;
-8,45997468003264E-7;
-6,47439813883315E-7;
9,66626625550545E-8;
1,24282825382778E-6;
2,17345698191497E-6;
2,43005060414549E-6;
2,17945583147068E-6;
2,081310114444E-6;
2,65892588453136E-6;
3,72271687568426E-6;
4,37460172519254E-6;
3,64718627343283E-6;
1,29568434305886E-6;
-1,89158099486597E-6;
-4,53639042569843E-6;
-5,55372505822258E-6;
-4,82074499379873E-6;
-3,15148616900547E-6;
-1,63780820390383E-6;
-8,89070717972269E-7;
-7,38821357048993E-7;
-5,79313524359771E-7;
1,95269523566999E-8;
9,43008700587759E-7;
1,69683550832323E-6;
1,91389360567015E-6;
1,72650745311392E-6;
1,66016874356281E-6;
2,13187267968155E-6;
2,99139214236347E-6;
3,52529848743172E-6;
2,96471783810351E-6;
1,1130281389014E-6;
-1,4087533921909E-6;
-3,51272406267133E-6;
-4,34116515207628E-6;
-3,79345308460347E-6;
-2,50576618568208E-6;
-1,33316890288613E-6;
-7,53488874753773E-7;
-6,38063622706932E-7;
-5,13568920687453E-7;
-4,50273924228522E-8;
6,78624572378529E-7;
1,27346191827939E-6;
1,45418838911696E-6;
1,32233558466718E-6;
1,28350162452273E-6;
1,65963250741889E-6;
2,33561775906174E-6;
2,76292498369855E-6;
2,35001381977915E-6;
9,4348243951107E-7;
-9,84660709407069E-7;
-2,60528027561733E-6;
-3,26338368817532E-6;
-2,87846777342832E-6;
-1,92866540264849E-6;
-1,05846658969137E-6;
-6,28660907599505E-7;
-5,44053561905402E-7;
-4,50685259228982E-7;
-9,80317475548928E-8;
4,47805573935388E-7;
9,00848943623989E-7;
1,04843777174065E-6;
9,64870820036853E-7;
9,49519387747545E-7;
1,24009743169497E-6;
1,75253272645412E-6;
2,0842734710314E-6;
1,80083054516661E-6;
7,87251473542876E-7;
-6,15974455387223E-7;
-1,80832991931937E-6;
-2,31405786887752E-6;
-2,07073100429285E-6;
-1,41732697727971E-6;
-8,12754434298391E-7;
-5,14585901949465E-7;
-4,56991640406779E-7;
-3,91040368242484E-7;
-1,40534639486567E-7;
2,48483487338837E-7;
5,76169176107741E-7;
6,9375923832666E-7;
6,51698735026007E-7;
6,56111563206882E-7;
8,70742368205758E-7;
1,23870190304537E-6;
1,48547317514773E-6;
1,31436468364255E-6;
6,44342506544011E-7;
-2,99081893297652E-7;
-1,11546301968239E-6;
-1,4860250864276E-6;
-1,36446183097278E-6;
-9,68421122081896E-7;
-5,94834194911543E-7;
-4,11122588828718E-7;
-3,76961387183245E-7;
-3,3492315528247E-7;
-1,73586059800095E-7;
7,8454907083455E-8;
2,96347301147254E-7;
3,86987340006261E-7;
3,80150988039671E-7;
4,0092139746744E-7;
5,48732875133818E-7;
7,90259055541975E-7;
9,62142617350853E-7;
8,87386281049705E-7;
5,14593761226728E-7;
-3,01862030181097E-8;
-5,19790773894014E-7;
-7,71531778394076E-7;
-7,53356928570261E-7;
-5,78263478720531E-7;
-4,03313280374394E-7;
-3,18017595151019E-7;
-3,03948170985569E-7;
-2,8253757698766E-7;
-1,98211247836674E-7;
-6,45603129898277E-8;
5,81511169325425E-8;
1,2478283410456E-7;
1,47396090318003E-7;
1,81425120459859E-7;
2,71016513306235E-7;
4,0303178338108E-7;
5,09537907528728E-7;
5,16350063674448E-7;
3,97700186695272E-7;
1,94602359205536E-7;
-1,41290889196593E-8;
-1,62437637515505E-7;
-2,30761608904872E-7;
-2,42926465893189E-7;
-2,36655105439265E-7;
-2,3491830577146E-7;
-2,37848061623477E-7;
-2,34015594632555E-7;
-2,15408187369983E-7;
-1,8287402883058E-7;
-1,41734830949843E-7;
-9,63069031393661E-8;
-4,95093704766898E-8;
-5,00675447018343E-9;
3,44021129638073E-8;
7,26459728833015E-8;
1,22673847585081E-7;
1,97493885958473E-7;
2,93237156733536E-7;
3,79197322519249E-7;
4,08852441407388E-7;
3,49600352521731E-7;
2,10174392966569E-7;
4,16645174875393E-8;
-9,32223209241854E-8;
-1,61394566254459E-7;
-1,78487307908694E-7;
-1,89423592093063E-7;
-2,26127915627962E-7;
-2,78785751966355E-7;
-3,06650080852784E-7;
-2,79771320771316E-7;
-2,13545752030042E-7;
-1,61058489168262E-7;
-1,64378912466921E-7;
-2,05371179806377E-7;
-2,03558332207127E-7;
-7,30704179381973E-8;
2,00687750248152E-7;
5,27466478166976E-7;
7,56492707900471E-7;
7,72977481272687E-7;
5,76363854394792E-7;
2,79648775011638E-7;
2,86867573847929E-8;
-9,69565436867088E-8;
-1,25630851561172E-7;
-1,48766431009703E-7;
-2,31272266728841E-7;
-3,5455975903911E-7;
-4,39900481168696E-7;
-4,29079391861565E-7;
-3,47686978917693E-7;
-2,8940770086495E-7;
-3,28602872765296E-7;
-4,3551972444743E-7;
-4,74306522769143E-7;
-2,99288270436289E-7;
1,19456845917865E-7;
6,43190411062867E-7;
1,03603876847455E-6;
1,11600471263404E-6;
8,74673923508602E-7;
4,75163211536588E-7;
1,30799704934135E-7;
-4,10703173902396E-8;
-7,89959701163984E-8;
-1,12004194174744E-7;
-2,31682548542344E-7;
-4,12382610012775E-7;
-5,44719859291871E-7;
-5,47633872926516E-7;
-4,54857223520477E-7;
-3,92704301237588E-7;
-4,61511630637286E-7;
-6,22253800650293E-7;
-6,94674905527332E-7;
-4,85088410401775E-7;
4,88972975636135E-8;
7,30011386304165E-7;
1,25454530545738E-6;
1,38680838491102E-6;
1,11183815082583E-6;
6,3228004495898E-7;
2,14844258646303E-7;
6,82873511468088E-9;
-3,82641026111721E-8;
-7,90506922881742E-8;
-2,28138344188073E-7;
-4,54354637104013E-7;
-6,24227886536875E-7;
-6,38728000117521E-7;
-5,37896292108096E-7;
-4,73528592591629E-7;
-5,66273263695699E-7;
-7,6992768542867E-7;
-8,69659510175029E-7;
-6,34340191324415E-7;
-1,16824296333896E-8;
7,91403549742087E-7;
1,41880994222422E-6;
1,59323850461697E-6;
1,29437555563815E-6;
7,54963135055133E-7;
2,82525076410034E-7;
4,73250939833051E-8;
-3,08480587783981E-9;
-4,97844907362133E-8;
-2,2135637989002E-7;
-4,82467066732333E-7;
-6,81410566755603E-7;
-7,05525959520371E-7;
-5,99531848625712E-7;
-5,34360401946432E-7;
-6,45943131735932E-7;
-8,82747642063236E-7;
-1,00409373469924E-6;
-7,5080565321955E-7;
-6,29928419365138E-8;
8,30654332871324E-7;
1,53530727211475E-6;
1,74279517292717E-6;
1,42853214058674E-6;
8,47027100631837E-7;
3,35503998249792E-7;
8,10100011919808E-8;
2,69087356021533E-8;
-2,40555022603337E-8;
-2,11986366538434E-7;
-4,98589310185817E-7;
-7,19089896310162E-7;
-7,51023492061537E-7;
-6,42359460500853E-7;
-5,77576377134255E-7;
-7,03443503200742E-7;
-9,64736144265745E-7;
-1,10260699552283E-6;
-8,38099124425133E-7;
-1,05765437812453E-7;
8,50833024156678E-7;
1,61015899361338E-6;
1,84258830380995E-6;
1,52024108101083E-6;
9,12107191944839E-7;
3,75381534171274E-7;
1,08478353204553E-7;
5,2097509670652E-8;
-1,68878532678383E-9;
-2,00611858268486E-7;
-5,04466602235405E-7;
-7,39914050047537E-7;
-7,78040550150822E-7;
-6,6882427287787E-7;
-6,05410823676634E-7;
-7,41540292692316E-7;
-1,01970806481382E-6;
-10637,9307903081;
-22987,2557071975;
-3455,35799420357;
14528,0177410971;
3647,25884500354;
4054,09791804531;
6542,71408266225;
2672,83247754452;
5359,59030281278;
3062,22170918225;
2279,52944660123;
2700,60912334395;
1389,77895663085;
2420,27143341664;
1549,4641072402;
989,683418493257;
507,563498538175;
-102,741366637974;
686,285164194799;
1295,59651278399;
1928,06354138092;
1697,72241141171;
473,275506376587;
-863,525568567275;
-1995,81534232182;
-2222,58350789322;
-1843,53148976555;
-1372,67641706922;
-1173,35264745338;
-1419,63708293959;
-1697,82944681013;
-1714,93023687962;
-1397,79741336015;
-1006,47006691273;
-923,858948956694;
-1191,5099953824;
-1522,15891123074;
-1453,01539548603;
-777,438248467676;
222,591103413865;
959,003116281548;
926,481684661136;
106,34487712056;
-1019,42162236987;
-1808,10024445266;
-1895,746116752;
-1421,94027757498;
-852,903636831912;
-595,076344891307;
-698,013593869576;
-878,256692009005;
-819,307783861184;
-466,405802463692;
-70,920599251962;
53,7709008895727;
-158,002680143519;
-427,97572109887;
-346,666133807728;
268,715605731355;
1173,21712106143;
1830,22979357535;
1794,0281197931;
1045,83893059908;
18,7732740106792;
-708,505547395705;
-812,648068082136;
-416,552030452747;
61,1940716292614;
257,635110014242;
129,533598078108;
-69,916500633746;
-56,8341042135558;
217,246920836552;
528,158240860831;
596,658213633552;
364,500766075049;
80,5096774528402;
109,564969976679;
614,414359296704;
1376,71500132187;
1918,80544065226;
1844,74836999587;
1138,55620449608;
185,981791336897;
-498,518336713943;
-628,087260490297;
-312,147886305699;
77,5506851443704;
219,148530915284;
74,6980898579558;
-131,251003248072;
-147,141525179891;
69,7364397702655;
320,832665257519;
359,248145412607;
133,611350165063;
-135,886811614327;
-126,976901379818;
303,603719901214;
962,817984621724;
1429,06000364326;
1353,43755061473;
722,524050069316;
-123,459204866612;
-731,4369108522;
-849,224585895506;
-573,73028760554;
-232,132403027454;
-107,36166577194;
-232,676880829716;
-410,649457953502;
-420,684881430714;
-225,597182771245;
0,408118915594287;
40,8065689792105;
-149,20019887376;
-376,679699436849;
-359,850757703219;
26,2583751410904;
612,424460548711;
1030,08110589082;
974,814004446448;
435,301096912294;
-291,168950795393;
-809,470330664585;
-900,202351044811;
-648,222511317136;
-338,791340328862;
-218,13001414925;
-314,967803717651;
-457,602130796793;
-454,399433977829;
-273,282802637161;
-65,704073830422;
-19,4149937886873;
-173,081860953014;
-359,460386976659;
-334,509442373922;
9,55611726686749;
525,941172982529;
895,895691416003;
856,591451036583;
398,809102436152;
-220,45314008922;
-660,241114779433;
-731,670707794367;
-508,292019567431;
-236,01635027305;
-126,79109480775;
-205,085121063808;
-323,143820938159;
-316,326475575443;
-157,24542638201;
23,9701526854742;
66,3669198272415;
-63,022917920725;
-220,729795472619;
-197,887972896704;
97,4096520640375;
539,333181515267;
855,450205307748;
821,624313367046;
430,453598847138;
-98,4244390246099;
-474,284585970846;
-536,511181965316;
-348,105433520881;
-118,466457863031;
-27,7349174681022;
-96,4903331906646;
-199,074786771964;
-195,857726672046;
-63,7764755623116;
86,8167184470283;
119,70290694003;
7,22493877992667;
-129,150884021322;
-113,053882592972;
132,828467805819;
502,096138685053;
764,964097028457;
732,886093295644;
400,193801737551;
-47,9605153858461;
-367,179272439416;
-422,817349745756;
-268,070031601971;
-78,8204931136265;
-5,97055864004608;
-66,5175884207142;
-155,201537940151;
-155,294217160672;
-47,7287841739512;
75,2879482691428;
100,221754048033;
4,2303555070539;
-111,427867299;
-100,151379011764;
102,104336576787;
406,634033981956;
622,704487055433;
594,305681252467;
317,195136500718;
-54,9904788346387;
-320,121426493158;
-367,246542488675;
-240,73006143567;
-85,7537344794058;
-26,542324685309;
-76,9855362339331;
-150,344032729524;
-150,803312422745;
-62,8710447667949;
37,7410229057261;
58,0482726939698;
-20,371171361562;
-114,639019151632;
-105,179646875552;
59,9146527187106;
308,059897842576;
484,007963093786;
461,212528753776;
236,723028751195;
-64,4796527803151;
-278,597784065975;
-316,120398097953;
-213,26794946179;
-87,5286409066351;
-39,071179669303;
-78,8145682399481;
-136,891438469823;
-136,347643512319;
-64,9055464977697;
16,566666457614;
33,7539038692148;
-27,8800032070029;
-102,053580540663;
-93,5207478963841;
38,7364041188905;
236,667318431643;
376,936324464219;
359,558263909419;
182,657578492396;
-54,5418237348422;
-222,67294550462;
-251,513320026436;
-169,956750127758;
-70,5848069342179;
-31,9255836468705;
-62,3051234362761;
-106,960813930166;
-105,870697828712;
-49,625828118918;
14,2850517572483;
28,2138917860791;
-18,9463931643837;
-75,7617004120343;
-68,616630786849;
33,6800141645897;
186,087667791061;
293,900493517837;
280,647520222495;
145,474124627461;
-35,3496269001619;
-163,207075806859;
-185,00614677524;
-123,131258291359;
-47,8960478168015;
-18,6310901047494;
-41,4335044782298;
-74,8738105570524;
-73,9487597568899;
-31,8382983318569;
15,8390355964619;
26,1915263580387;
-8,75954179307257;
-50,7221286621782;
-45,4325596749771;
29,7862283344494;
141,422685358943;
219,934449782815;
209,854869823802;
111,156783195202;
-20,2837879371161;
-112,958839304139;
-128,886087555266;
-84,6675854219098;
-31,0689033669347;
-10,4003701216824;
-26,7410312030025;
-50,5321316349332;
-49,9574330933319;
-20,4820838053701;
12,7503266984911;
19,8549338209365;
-4,49638216063738;
-33,5121205105223;
-29,8991161979695;
21,4777364038162;
97,3185000399141;
150,183872636059;
142,906450515897;
76,17420064357;
-11,9890619690702;
-73,8110408511818;
-84,5109940198475;
-55,6269907733852;
-20,7862992479311;
-7,4837771172655;
-18,0566557840179;
-33,2686106739376;
-32,8680517009323;
-14,2450371551871;
6,56951225393539;
10,9934831059211;
-3,92863931210229;
-21,5221791528995;
-19,2008289675814;
11,6929840234866;
56,6414199638939;
87,4142680396146;
82,7321119520762;
43,8775317245165;
-6,60608987677085;
-41,5267304692275;
-47,5196883792249;
-31,6893681264457;
-12,8570912760021;
-5,75577307299415;
-11,1935755432906;
-18,8513535652909;
-18,4459063605198;
-9,01943955597824;
1,25087359017812;
3,51733794824182;
-3,19101038193611;
-10,8552251838607;
-9,51920299493202;
3,8628187247935;
22,368174397249;
34,2619949616583;
31,8854307087359;
16,99973960801;
-1,14648292537981;
-12,9440787111611;
-14,8113619034095;
-10,0911675813805;
-4,89982217561038;
-3,04121091647153;
-4,06668191850542;
-5,26243116619742;
-4,82905429865855;
-3,22398318705314;
-1,92798712064314;
-1,51109386164993;
-1,24530354979396;
-0,483116030740803;
-0,00208711589397126;
-1,48530701066332;
-5,39749010984701;
-9,50103249179949;
-9,97389730811409;
-4,64209758822119;
4,51263020693648;
12,1975680499744;
13,7741644303464;
9,10382623238934;
2,76673440262226;
0,16972078261773;
2,81226955909892;
7,00287289358687;
7,41249315332316;
2,39388634502905;
-3,90312856277092;
-5,08446677504634;
0,974359183692911;
8,73156495130581;
8,45039794640365;
-5,50502054395992;
-28,1951241560522;
-45,7091493634214;
-44,6482245609786;
-22,5232818004037;
9,30521762926617;
33,1616523832253;
37,5772641059602;
25,0904768990913;
9,17034397376591;
2,85036966438099;
8,49828172386776;
17,1132540212565;
17,4753952975304;
6,98046060251431;
-5,58231867639654;
-8,12064935686854;
2,66492449693783;
16,1528566305835;
15,2129033038407;
-9,00381174151391;
-47,1156774016792;
-75,6465326525152;
-73,3546160879195;
-37,5245528832555;
12,8098434419882;
49,8594727780268;
56,5949181399128;
37,7550888933067;
14,0473665656573;
4,70521998742024;
12,7911358756909;
24,9915748994781;
25,3172025435908;
10,3884512781893;
-7,24438553759114;
-10,8724608536468;
3,72736717536014;
21,8275307963385;
20,367154215221;
-12,0802349146743;
-62,5523415062942;
-99,9013922148591;
-96,6253712871154;
-49,8437977671048;
15,2642069920064;
62,8453309744076;
71,4555566016311;
47,5978098216426;
17,7372728515772;
6,01926978881602;
16,047790898936;
31,0937431232129;
31,4047370677036;
12,9986353096738;
-8,60917585739588;
-13,0848244696863;
4,51041117199804;
26,2260592426789;
24,3673124261582;
-14,490984006652;
-74,5810971519143;
-118,782705464602;
-114,743789208552;
-59,4777925560753;
17,0619402473105;
72,7890915186997;
82,8677038073201;
55,1759398223507;
20,6125256669123;
7,08661049109699;
18,6069146876923;
35,8291019102033;
36,1351596065889;
15,0933247058613;
-9,52457275512461;
-14,6423437023999;
5,2096881909755;
29,6441147600473;
27,4847026757922;
-16,1784165666683;
-83,4614550749648;
-132,780198090846;
-128,183557544107;
-66,6302895359598;
18,3686359606485;
80,1169931779183;
91,2923592639955;
60,8031667277198;
22,8092037503483;
7,96796222680908;
20,5723847162976;
39,3705874841912;
39,6717012412919;
16,7290221681935;
-10,0549437269362;
-15,6403572615833;
5,81102327926385;
32,1679733583727;
29,7881082218126;
-17,2711268562384;
-89,6173453331539;
-142,52995497309;
-137,558388601532;
-71,6510116935818;
19,1931399399999;
85,0933506739263;
97,0350079446376;
64,6535210613752;
24,3412682036823;
8,61419023448171;
21,9442616003643;
41,7919365370611;
42,0871530692232;
17,88571012993;
-10,3265705465972;
-16,2265430600313;
6,25112944053078;
33,836750246548;
31,3074932252784;
-17,9182340715671;
-93,4695306994747;
-148,646133813799;
-143,455039653734;
-74,8720021479621;
19,5468445667788;
87,9756156860493;
100,397233889572;
66,9100902937621;
25,2461164721677;
9,00779941531808;
22,7552809475628;
43,1987564895334;
43,489648119945;
18,5875808886092;
-10,4121103259402;
-16,4911743485349;
6,52089870573587;
34,739050966336;
32,1244713028444;
-18,2043589493661;
-95,355653026802;
-151,646467692749;
-146,365253243542;
-76,5469494142262;
19,4966894526099;
89,060235935954;
101,716407125951;
67,7993268078279;
25,6137529613472;
9,18675709578952;
23,0890911601165;
43,741281800146;
44,0303980102467;
18,9062721117721;
-10,3316089121903;
-16,4724443961717;
6,65565660089933;
34,9989900813993;
32,3546744050838;
-18,1701598165309;
-95,5531791520772;
-151,977624718636;
-146,713918041609;
-76,8825223962393;
19,1306771450782;
88,6455356114165;
101,326687795902;
67,5508068888527;
25,5455862222727;
9,20233122318848;
23,0371095844426;
43,5704105297251;
43,8592624962223;
18,9163371370455;
-10,0969260452496;
-16,2007675141486;
6,69097131859863;
34,7322455238088;
32,1043852394745;
-17,8547245025808;
-94,3205637474255;
-150,05514854146;
-144,897984204829;
-76,0764482892386;
18,5206317006767;
86,9955259411104;
99,5241985192649;
66,3640025147202;
25,1228796380675;
9,08918104552554;
22,6702037624322;
42,8109945093586;
43,0997280208375;
18,671986085037;
-9,73321864949716;
-15,718531830589;
6,64457925053824;
34,0296490916127;
31,4558182372711;
-17,3085747461041;
-91,9085557792519;
-146,273127242671;
-141,294568367469;
-74,3241101633762;
17,7170711551338;
84,3362063494423;
96,5646900827574;
64,4072328044675;
24,406922443087;
8,86670925211479;
22,041197371088;
41,5654477098101;
41,853526743249;
18,2126081850382;
-9,27259085657167;
-15,0729431814075;
6,52434572100522;
32,9659009748224;
30,4764462184757;
-16,5839226993907;
-88,5501840286226;
-140,9939133659;
-136,250276496546;
-71,8073160031816;
16,7610284583236;
80,8678235516776;
92,6759663845285;
61,8300159037477;
23,4512239699739;
8,55116287931789;
21,1969695935956;
39,9258338422198;
40,2125751865242;
17,5743978599646;
-8,7428375348594;
-14,3050509369055;
6,33908378697608;
31,6102345207011;
29,2293108225381;
-15,7250151573421;
-84,4519359532946;
-134,540028461234;
-130,073467906561;
-68,6865285432004;
15,6920099504811;
76,7728292080378;
88,0654475016019;
58,7699126608003;
22,3075799186832;
8,16110824546218;
20,1835619477388;
37,978658374138;
38,263303416781;
16,7940343227772;
-8,16443711244369;
-13,447221637028;
6,10084339320513;
30,0285208791769;
27,7747007687664;
-14,7672641846263;
-79,7939045764611;
-127,195127482392;
-123,035486602761;
-65,1017863510787;
14,5476239254872;
72,2158269772244;
82,9199299101574;
55,3516904155344;
21,0245855171179;
7,71555795554588;
19,0442268664968;
35,8029211156177;
36,0845322945416;
15,9061545066924;
-7,55350308124015;
-12,526265758479;
5,82191971053543;
28,2804796287851;
26,167263455931;
-13,7407086325569;
-74,7340789264533;
-119,208875318322;
-115,375455102961;
-61,1767200170379;
13,3606221196428;
67,341382023746;
77,4035462825449;
51,6849327043269;
19,6448196871952;
7,2310315211624;
17,8167153507722;
33,4677138649351;
33,7451563481;
14,9408394424603;
-6,92453152942868;
-11,5661441548145;
5,5125318568746;
26,4178043608716;
24,4542151460763;
-12,6722778433453;
-69,4113877922986;
-110,800506865631;
-107,30360395073;
-57,0208777679043;
12,157879220199;
62,2739632671872;
71,6579607185801;
47,8639122873457;
18,2042987499828;
6,7209145983428;
16,5329200173356;
31,0322273100836;
31,3042537318974;
13,9235048618053;
-6,29078097066092;
-10,5883246709387;
5,18085858344445;
24,4846493856734;
22,6758736918814;
-11,5858303605497;
-63,9466496926682;
-102,160406249699;
-99,0026735798823;
-52,7301164211746;
10,9613335122959;
57,1198406393923;
65,8044527555595;
43,9692393316287;
16,7335819204448;
6,19636840835057;
15,2199918562243;
28,5471591838123;
28,8125061895396;
12,8759888639258;
-5,66357111322155;
-9,61115466370387;
4,83398435908067;
22,5189573862274;
20,8669403289402;
-10,5015686315812;
-58,4430400901266;
-93,4513263726041;
-90,6290344396673;
-48,3867434770852;
9,78916180834097;
51,9691864653078;
59,9461422080998;
40,0695621074908;
15,2588397613785;
5,66713083625596;
13,9012974732799;
26,0559184030873;
26,3133631349841;
11,8173225775094;
-5,0519578943619;
-8,64965426853191;
4,47839714083353;
20,5533166679327;
19,0572788801133;
-9,43600469579583;
-52,9871645691321;
-84,8102570055094;
-82,314471391536;
-44,0603129705439;
8,65632255296069;
46,8975603533542;
54,1695971657984;
36,2226390545714;
13,8022826324375;
5,14167585693325;
12,596743201082;
23,595208314662;
23,8435942199357;
10,7638950598335;
-4,46300738147458;
-7,71589529936302;
4,11992059939393;
18,615275067743;
17,2721700765476;
-8,40243799772414;
-47,6506335696859;
-76,3507799691243;
-74,1684329107771;
-39,8088568707394;
7,57469525379371;
41,9670205676148;
48,5460953212235;
32,4760888753742;
12,3822916023862;
4,6271004397334;
11,3228518975283;
21,1953875037584;
21,4336441198717;
9,72944515545014;
-3,90221828270385;
-6,81950578349496;
3,76354155630985;
16,7275688828959;
15,5325021966401;
-7,4114723883731;
-42,4916500946042;
-68,1654140302648;
-66,2802545241004;
-35,6800839203867;
6,55325515228821;
37,227276520214;
43,1329403017972;
28,8682161644843;
11,0136457109545;
4,12912270188374;
10,0929589287838;
18,8809553300798;
19,1081209085463;
8,72520040390995;
-3,37378402921463;
-5,96800719094897;
3,41340345677991;
14,9085144045757;
13,8551282464143;
-6,47135051796889;
-37,5563922557371;
-60,3277392368414;
-58,7211655112952;
-31,7123857541079;
5,59840834722618;
32,7169781306891;
37,9749100203327;
25,4289794865835;
9,70790417050333;
3,65223750904982;
8,91755646125757;
16,6711737343395;
16,8864160350849;
7,7601522726939;
-2,88071267649828;
-5,16701329296143;
3,07292225695221;
13,1725036972409;
12,2533221839905;
-5,58817422585037;
-32,8802557840039;
-52,8943650960733;
-51,5461512898371;
-27,9357395960578;
4,71437829323855;
28,4650180419412;
33,105707153122;
22,1809734259441;
8,473818110354;
3,19990413247285;
7,8046571008158;
14,5806924742787;
14,7833224964867;
6,84133762333197;
-2,42493044780125;
-4,4204147858347;
2,7448989842764;
11,5304770880765;
10,7372091848155;
-4,76612714539866;
-28,4890605201631;
-45,9068368505008;
-44,7957631908387;
-24,372603971424;
3,9035398750834;
24,4917390291243;
28,5493070228923;
19,1403282233666;
7,31768481200402;
2,77468545577928;
6,76009970345574;
12,6201033219527;
12,809581682384;
5,97406445443015;
-2,00742292816469;
-3,73059813889601;
2,43158309948343;
9,99032859822946;
9,31413124389009;
-4,00772875031794;
-24,4002382970853;
-39,3934876867963;
-38,4978797471143;
-21,0388138248084;
3,16669008321971;
20,8100333926317;
24,3211923241216;
16,3175228982615;
6,24364725725708;
2,37834614008266;
5,78780667049704;
10,7964337741929;
10,9723721031052;
5,16209959020581;
-1,62839171063469;
-3,09867390608851;
2,13471165654994;
8,55726898214677;
7,98897452023563;
-3,31408848460312;
-20,6239643500276;
-33,371194203657;
-32,6693764307953;
-17,9444359841803;
2,50328855480692;
17,4263634618541;
20,4295031734737;
13,7181424515875;
5,25397203946492;
2,01194350938638;
4,89002537729836;
9,11361128490257;
9,27577044672759;
4,40784949014305;
-1,28739448915594;
-2,52468298458373;
1,85555366472411;
7,23417338110172;
6,76448455068753;
-2,68513251120829;
-17,1642022376228;
-27,847003709569;
-27,3176738748947;
-15,094559407098;
1,91168802476903;
14,3417189035783;
16,8761162595372;
11,343592893662;
4,34931965093616;
1,67592451130534;
4,06756520150258;
7,57290742335976;
7,721193067838;
3,71254187605781;
-0,983461125299868;
-2,00777433986776;
1,59496424818449;
6,0219161801089;
5,64157087649872;
-2,11980106264874;
-14,0196590271074;
-22,8196294041305;
-22,442161638698;
-12,4900199390067;
1,38935168751959;
11,5525053078403;
13,6576464342494;
9,19176745299816;
3,52900077098153;
1,37022206717569;
3,32002267615876;
6,17335359401129;
6,30780909554882;
3,07639945450616;
-0,715194241422715;
-1,54636289443049;
1,353439338019;
4,91968320474958;
4,61959116306507;
-1,61622574005051;
-11,1846590999112;
-18,2808210836005;
-18,0355050705457;
-10,1280676974262;
0,933048533783627;
9,05135453497624;
10,7663611702764;
7,25765470110579;
2,79120968788126;
1,09434227513349;
2,64598637392479;
4,91212008092165;
5,03291717908406;
2,49879810749889;
-0,480861556038931;
-1,13827443635219;
1,13116437700544;
3,92525508318963;
3,6966089498987;
-1,1718922598518;
-8,64994176541713;
-14,2166161415138;
-14,0848394963516;
-8,00298062974481;
0,539023870036836;
6,82785463324763;
8,19100597327999;
5,53388672001761;
2,13323298230421;
0,847440759365696;
2,04322022345693;
3,78485755151181;
3,8922852814874;
1,97840898958833;
-0,278480531322316;
-0,780877885093211;
0,92805721730765;
3,03526250169028;
2,86962597072675;
-0,783788121405523;
-6,40338283195107;
-10,6084714372886;
-10,5728518982383;
-6,10662309621927;
0,203147760560036;
4,86920317563413;
5,91754477903977;
4,01123075257915;
1,5516361988449;
0,628390636994576;
1,50882801353104;
2,7860041703069;
2,88045665348038;
1,51332719701932;
-0,105893229686032;
-0,471202916688581;
0,743807694082214;
2,24541641600643;
2,13479199520186;
-0,448533345087231;
-4,43063999032486;
-7,43427703620948;
-7,47875080117834;
-4,4289484757527;
-0,0789553263017524;
3,16078884997567;
3,92982025310088;
2,67902817171987;
1,04243108384119;
0,435844130961772;
1,03940133749863;
1,90906099445991;
1,99102453308406;
1,10118870577068;
0,0391694061954055;
-0,206042410629063;
0,57791498733916;
1,55071503749438;
1,48759380849503;
-0,162494253105542;
-2,71572426886961;
-4,66925571520185;
-4,77912799298151;
-2,95844718059387;
-0,311794101014648;
1,68670489047556;
2,21013775605113;
1,52558321826565;
0,601224306610057;
0,268288063834003;
0,631151599104534;
1,14683683438691;
1,21687663492586;
0,739275709135619;
0,159032912851821;
0,0179590946739339;
0,429722356589775;
0,945628102842107;
0,923023692081454;
0,0781182519746508;
-1,24150174229149;
-2,28675427716459;
-2,44871772865689;
-1,68254304080412;
-0,499914656574383;
0,430197450287157;
0,739776390406664;
0,538503501131757;
0,223347946286861;
0,124092869778575;
0,280026177153104;
0,491663445000285;
0,550410262562216;
0,424610169092009;
0,256032984255206;
0,204229406072576;
0,298448640773859;
0,424258957333663;
0,435727808784815;
0,277164320258661;
0,00986993106315737;
-0,258933340469486;
-0,461059630795125;
-0,58794122155259;
-0,647820444844093;
-0,625947418451949;
-0,500568804786045;
-0,295005197954659;
-0,0960275123182832;
0,00155513060165369;
-0,0181906335583655;
-0,0644175070307895;
-0,0162805315710025;
0,154035927011961;
0,332476582303002;
0,356204027504708;
0,183216448634322;
-0,0195144134624528;
0,0201355118658704;
0,438503571572534;
1,05656576036209;
1,44263776860717;
1,21092854269076;
0,339069402497543;
-0,759906657216888;
-1,49907379773772;
-1,53040868378398;
-0,987886606092495;
-0,361796434766688;
-0,101065861480825;
-0,267790830469249;
-0,529493718437806;
-0,491243793572783;
-0,0757098363442594;
0,390609956312797;
0,477272079690696;
0,0830773025978786;
-0,39191786145139;
-0,329429020089808;
0,56593540375507;
1,9167741564938;
2,84647431841826;
2,59446202532129;
1,11235651559839;
-0,840407469944893;
-2,20637828991528;
-2,36914074912484;
-1,55302071250653;
-0,578836133500275;
-0,185516924606846;
-0,47306885492398;
-0,911645674941642;
-0,882532468851299;
-0,267934949993972;
0,43259304563307;
0,570731983622864;
-0,00296599344415682;
-0,699177519529986;
-0,618651450199648;
0,663150240513753;
2,60842967543596;
3,98075073770384;
3,7164775513904;
1,74572416811389;
-0,893354744791147;
-2,76468017546811;
-3,03578377945942;
-2,00304625028059;
-0,751938524438682;
-0,253524714745635;
-0,638259604921739;
-1,21883222307843;
-1,19808920648242;
-0,42593967139765;
0,460479624599312;
0,639755978739056;
-0,0759396214167491;
-0,947432767216295;
-0,85314694976887;
0,733690642700062;
3,14899316814136;
4,87294935340865;
4,60329259440721;
2,25272885389329;
-0,922546929780388;
-3,19023490140181;
-3,54876142109469;
-2,35021568268788;
-0,885754156720274;
-0,306773975733509;
-0,767487312184464;
-1,45879638464456;
-1,44565129178559;
-0,552972506091493;
0,476202491664182;
0,687362503378663;
-0,13688155248586;
-1,14266433472236;
-1,03839364499959;
0,780921199158715;
3,55527474829477;
5,549576265706;
5,28032870558255;
2,64652858447627;
-0,931526977112089;
-3,49858657363735;
-3,92572993204907;
-2,60627953855198;
-0,984747444702467;
-0,346889932967589;
-0,864724292819542;
-1,63898950948203;
-1,63267384310294;
-0,652193735342113;
0,48156306333173;
0,716395524149542;
-0,186826753014781;
-1,2906361474347;
-1,17967857922718;
0,808006167026181;
