-2,95280207078779E-13;
-4,89911094998532E-13;
7,51968680691645E-13;
5,59824326620329E-15;
1,10502587009351E-13;
9,78158544158553E-13;
2,82076672664239E-13;
-4,28999419396028E-13;
4,34359226688236E-13;
5,97133063011307E-13;
1,70779334438817E-13;
8,06222611085064E-13;
2,2588645314946E-13;
4,85341443440476E-14;
1,84049211985299E-13;
-1,96131576035332E-13;
7,79238576711575E-13;
5,78612306461767E-13;
6,54825027933494E-13;
1,38394247212217E-12;
5,27645917292895E-13;
3,95890134776043E-13;
3,42271187053751E-13;
5,50559340421397E-13;
7,64094834932712E-13;
-1,41452739961631E-13;
8,66849117083928E-14;
6,51900231723577E-13;
7,43085903523063E-13;
2,71007507844994E-13;
-4,28715440191211E-13;
1,10230559262037E-13;
3,50123891672412E-13;
2,46926252537999E-13;
8,01297598584229E-13;
1,00942367007275E-12;
7,10232658339318E-13;
8,16511426449613E-13;
7,97469565476302E-13;
4,3240229731425E-14;
2,70902459515214E-13;
4,76255040867522E-13;
-3,66283853549922E-13;
-3,74788111119697E-13;
6,63188135186089E-13;
6,97987437538112E-13;
-5,57573338271972E-13;
-4,49957831534476E-13;
3,1359681070678E-13;
5,44962411264435E-13;
5,35798672302312E-13;
3,6443243193862E-13;
8,49982817173117E-13;
9,38374794952157E-13;
4,84325799699587E-13;
6,14736262899137E-13;
7,65326777477349E-13;
1,99606204437949E-13;
3,53829352655369E-13;
1,43853653645094E-12;
9,01721008914488E-13;
-4,11338663456473E-14;
5,81334976131456E-13;
6,67146923690906E-13;
-1,08675713556941E-13;
-2,41425070792429E-13;
-9,7734574307232E-15;
2,15547545803507E-13;
-2,97384600076245E-13;
-8,86105361694814E-13;
4,90678558566618E-13;
1,09016646337743E-12;
-1,72817609506701E-13;
6,33077762010154E-13;
1,29631325821851E-12;
1,47910986591099E-13;
2,35030324569508E-13;
6,19458947367532E-13;
6,97041910869356E-13;
5,09454950298259E-13;
6,55714394495222E-14;
4,80541390694682E-13;
1,4866924495682E-12;
1,64201067673331E-12;
7,19166497251299E-14;
-6,17748353344496E-13;
-3,387671954824E-14;
-2,57252388581327E-13;
5,49143742205832E-14;
6,45921084063522E-13;
6,44141864362585E-13;
1,2720851828425E-12;
9,87701147970563E-13;
8,29283194354143E-14;
5,43847540243782E-13;
6,2752439812539E-13;
2,17691580924654E-13;
4,4452352326112E-13;
8,32379450634719E-13;
7,77259246423404E-13;
1,8164083067695E-13;
1,84221443510847E-14;
-3,63697399572713E-14;
-4,29352865120864E-14;
5,37496383162502E-13;
-4,97777459116583E-14;
3,41095686885793E-14;
1,38896124686348E-12;
5,52415853190726E-13;
5,44513204267884E-13;
1,31167637394338E-12;
5,18707437129937E-13;
4,26513718885544E-13;
9,43117023517785E-14;
2,14916788328464E-13;
5,68354045520511E-13;
7,45219346472292E-14;
3,56974426858234E-13;
2,61080713231114E-13;
4,93193694347082E-14;
3,76709127582763E-13;
4,0859187475047E-13;
4,88950573989927E-13;
6,02081715888021E-13;
6,8174140987318E-13;
3,46475430322611E-13;
3,99339596698728E-13;
1,18395160945695E-12;
9,22791857492234E-13;
7,24301347302389E-13;
1,15978098356463E-12;
8,41745748639305E-13;
1,88155720073705E-13;
-3,88315482929132E-14;
6,06247474391272E-13;
8,36605802254583E-13;
4,73506492186519E-13;
8,96371407134048E-13;
3,81679563395688E-13;
-4,0072309519841E-13;
4,62442155080151E-13;
5,36756640595807E-13;
4,9208703017227E-14;
5,08488530887093E-13;
8,85311036008009E-13;
9,14924830545832E-13;
8,05661793420605E-13;
3,17271302525838E-13;
1,79273734903013E-13;
6,42256405335201E-13;
1,07852596061979E-13;
7,46941563949735E-15;
2,03987222650583E-13;
-4,28544864401019E-13;
5,46036965439913E-13;
6,4433407448186E-13;
-4,87589569113306E-13;
2,5160328620616E-13;
1,54506698744829E-13;
-3,66812875937496E-13;
2,26269539191503E-13;
1,25095817839444E-13;
1,77867221417352E-13;
4,38289398983028E-13;
4,83845831086599E-13;
6,45014188997754E-13;
2,3038947477682E-13;
7,80600669404898E-14;
5,00241256734837E-13;
6,65782093077816E-13;
2,42492329674874E-13;
2,13232316234894E-14;
5,91754391797256E-13;
9,01171519625377E-14;
1,62684460000102E-13;
1,02302660736735E-12;
3,43378396191857E-14;
2,06164823174953E-13;
1,17389737161933E-12;
5,63652098847196E-13;
9,37424244501218E-13;
1,48644944115986E-12;
3,44074016458075E-13;
3,82501529605976E-13;
5,24756841692055E-13;
-5,61280626107526E-13;
4,91205382757708E-13;
9,61869854200726E-13;
-5,5831937496439E-13;
-7,53989110629029E-14;
8,82321312235832E-13;
7,81966400344214E-13;
4,65410942556651E-13;
-3,09424315681982E-14;
5,04754190770704E-13;
5,94457128407815E-13;
2,46495904445396E-13;
1,59043945812401E-13;
-7,81116147196122E-13;
2,32175027800153E-13;
1,15492866591707E-12;
2,30478577688738E-13;
5,8215422538684E-13;
9,52076633051021E-13;
1,03969422538091E-12;
4,35802681793929E-13;
-2,67867672959506E-13;
5,56900776777214E-13;
3,90862356991325E-13;
3,90376248158191E-13;
9,00599465487467E-13;
-3,37206729373665E-13;
-3,08502782815353E-13;
7,3925512035099E-13;
7,97071163448174E-14;
2,54335080528946E-13;
9,30618110539247E-13;
2,15828890659478E-13;
3,69499309852766E-13;
2,18709243731995E-13;
-7,32416782508499E-13;
5,81402328921889E-13;
1,4985960929353E-12;
2,55893578759615E-13;
2,00480805583127E-13;
5,28174762155555E-13;
-2,61164205517905E-13;
4,86436889564665E-13;
8,34561870017442E-13;
-5,98296055699455E-13;
-1,3257568727648E-13;
5,21105956845501E-13;
9,22390261324414E-14;
4,86469325334125E-13;
9,1711768844717E-13;
3,50132095516452E-13;
2,66092080163614E-13;
8,24006027105549E-13;
4,62793893238714E-13;
2,96787305274964E-13;
7,20540763056818E-13;
1,11688962742529E-12;
5,84629531816713E-13;
1,83997046376284E-13;
7,13699214991249E-13;
3,66915116834854E-13;
3,41331071102221E-13;
7,66237577568099E-13;
6,27889367135349E-13;
3,06771399485754E-13;
2,39272757807016E-13;
9,05490810281048E-13;
7,55504294582737E-13;
5,32637587344264E-14;
2,45445662514055E-13;
5,71261932606509E-13;
7,04586517146777E-13;
4,59458973361758E-13;
1,57053407625245E-13;
-2,03289738256036E-13;
1,09232792241014E-13;
1,05030951918367E-12;
6,27707331921194E-13;
7,23970519968799E-13;
1,14065166581762E-12;
4,34317357643854E-13;
8,30309642331478E-13;
8,02448958717243E-13;
8,94079771008365E-14;
2,46964013263705E-13;
3,12386079414276E-13;
6,76032148389662E-13;
2,86114729193146E-13;
3,17873665257565E-15;
3,22388602421965E-13;
2,67374602229328E-13;
1,07296619458642E-12;
5,86931046891613E-13;
6,53571779462118E-14;
7,79678072827006E-13;
6,87272824914534E-13;
6,93107989270543E-13;
1,60482011277883E-13;
-2,0969294454936E-13;
5,91858858609824E-13;
7,29766516081582E-13;
4,88647255488361E-13;
1,31417983139056E-12;
9,35424321140859E-13;
-5,24280731764328E-13;
2,29761215089244E-13;
1,07963099446795E-12;
7,59047695638394E-13;
3,21512814148398E-13;
1,35001712755772E-13;
1,87287989712993E-13;
2,7113143947062E-14;
4,45162589733441E-13;
1,00079043930029E-12;
1,33333296808785E-12;
3,32510450008441E-13;
-5,38566412660267E-13;
2,2705878820983E-13;
7,91923954270749E-14;
3,70327746536116E-13;
9,47623059718532E-13;
6,55117854163224E-13;
4,64344944387235E-13;
-9,14463633122686E-14;
-2,71754220565681E-13;
2,52820525634921E-13;
5,72288164679137E-13;
5,68843543465904E-13;
8,23790414238582E-13;
1,04698287876091E-12;
8,2601888041884E-13;
3,47006061276799E-13;
3,88027653763456E-13;
5,63268399961529E-13;
4,64353302384716E-14;
3,45474275067561E-13;
4,45399925829716E-13;
-4,91631811431825E-13;
-1,87209103008077E-14;
5,56779576945394E-13;
2,93217858638803E-13;
8,05874882306403E-13;
9,89799465560565E-13;
4,70806329593311E-13;
2,61124445125615E-13;
6,70826767484178E-13;
6,55116445571426E-13;
4,90088632207977E-13;
5,77487619042954E-13;
-1,35476397607407E-13;
3,47338856607394E-13;
1,23037073173908E-12;
7,6858911485868E-13;
4,69329173828728E-13;
7,24770501441888E-13;
1,06493826089898E-12;
8,28294950918767E-13;
3,0442165508189E-13;
8,47260408478802E-14;
4,4007014095591E-13;
7,20425810903073E-13;
6,95186454564052E-13;
7,48756671058197E-13;
1,04654382594311E-12;
5,86297375231081E-13;
-6,47144612035132E-13;
4,62338677360812E-13;
7,59969335756045E-13;
-1,10470551783559E-12;
-1,95287004826902E-13;
6,39050721655562E-13;
-1,14370497885359E-13;
2,80443453954851E-13;
-7,45849386142231E-16;
-8,05445566747316E-14;
7,52659590278196E-13;
3,79432916352157E-13;
9,16861595366837E-14;
-1,84524167277972E-13;
1,2876195400189E-13;
1,34058956440805E-12;
9,99324722504142E-13;
2,62074567643989E-13;
-1,60942129394064E-13;
4,78717618642975E-13;
1,20865412483244E-12;
1,62293480939919E-13;
7,27175513241674E-13;
7,54865816268606E-13;
-3,262795008397E-13;
8,61440604086381E-13;
5,05350365442575E-13;
4,26780631815069E-14;
6,44645016281847E-13;
-1,06191973998526E-13;
1,9364663862324E-13;
4,87848149687459E-13;
2,30707945615777E-13;
5,05155292255846E-13;
3,85390072488242E-13;
2,22621372051942E-13;
2,71656159723614E-13;
1,86850804608684E-13;
3,62904918541212E-13;
6,03078452257378E-13;
3,38035494801045E-13;
3,0391380348237E-13;
-9,67992321908298E-14;
-4,82279746758432E-13;
2,79638675059783E-13;
5,01326498625956E-13;
-3,5563271152031E-14;
5,17640407447975E-13;
5,959475418707E-13;
-2,81868176311079E-13;
3,31418479039989E-13;
6,02740754622428E-13;
2,10807014219399E-13;
2,6511848145798E-13;
1,74407447812979E-13;
3,61158305713734E-13;
-2,71612519923002E-14;
8,16144500123612E-14;
1,20049847954593E-12;
5,21908046200076E-13;
-2,04853836417959E-13;
7,7897777197434E-13;
8,06305141011818E-13;
9,19322313872502E-13;
1,02755184140334E-12;
2,72544827581942E-13;
4,21959482614355E-13;
8,64387665727654E-15;
-3,7165079831623E-13;
2,96313959937581E-14;
-4,62177311619133E-14;
2,95010183517204E-13;
8,84133897885091E-13;
9,03261249431851E-13;
5,05792009264351E-13;
-8,287820179159E-14;
-2,63068529334008E-13;
1,59387354346834E-13;
8,72129319576313E-14;
-6,1329886203636E-14;
3,75820598976666E-13;
5,51162561799435E-13;
5,95984066914187E-13;
4,38334742384848E-13;
2,10263256961107E-13;
4,02132068619676E-13;
6,06920137044448E-13;
8,28097631004748E-13;
8,78991903614711E-13;
4,12080736108912E-13;
1,78324951274213E-13;
7,28276166950919E-13;
1,30643499388689E-12;
1,06538670063742E-12;
2,2865644794711E-14;
-1,265014124074E-13;
6,95738043447218E-13;
6,45629692572768E-13;
4,77044597158815E-13;
3,72015615898105E-13;
7,20932530715984E-14;
2,24043175457209E-13;
1,86884104566808E-13;
4,84987288201514E-14;
1,92338875946593E-13;
1,15726652964171E-13;
2,98182748368187E-13;
1,13435126414896E-12;
8,45633982092851E-13;
-6,67318796624533E-13;
-8,23480376051568E-13;
3,77510074512667E-14;
6,37183630248232E-14;
2,93248231185771E-13;
8,84193773559563E-13;
4,0711872467935E-13;
1,35413881312352E-13;
6,90741714398476E-13;
3,94074886781124E-13;
9,26785359694467E-15;
6,18823206261066E-13;
7,48684504434685E-13;
2,67641098429598E-13;
3,12814008961658E-13;
4,26830762099786E-13;
1,27584476374851E-13;
-1,40109901096179E-13;
-1,75929441889813E-13;
-1,17916146142136E-13;
2,40601114736704E-13;
3,42632356126025E-13;
1,30158747014288E-13;
7,28905109424435E-13;
5,30988618456698E-13;
2,05219446103482E-13;
1,08049857263955E-12;
4,89002467638306E-13;
-2,12423410988828E-13;
1,93659756664441E-13;
5,10251760003652E-13;
1,18433969189502E-12;
6,6864109090518E-13;
-4,96305048850233E-13;
5,15384354769629E-13;
1,09707074505866E-12;
-1,87544703905876E-13;
3,21348850830314E-14;
7,19882118629232E-13;
1,8199086185482E-14;
6,30246454278166E-14;
4,80521950795359E-13;
1,15939899729631E-13;
-9,39388913504152E-14;
2,65661929134849E-13;
8,93228929581865E-13;
2,63116107769324E-13;
4,45278366629643E-13;
1,36151454520043E-12;
1,0035605621414E-13;
2,25794380704338E-13;
9,85732208658663E-13;
4,42196925251055E-13;
3,72229306459644E-13;
3,26223387327916E-13;
5,12444310396329E-13;
2,24507530103327E-13;
3,89547094078123E-13;
7,94854787449213E-13;
2,1307441177584E-13;
4,50006976689669E-13;
2,44780982429651E-13;
-1,77536754029253E-13;
9,38985525947016E-14;
-1,70229011613423E-13;
-3,33931258826152E-14;
4,47899281335836E-13;
8,32654887228546E-13;
7,83643394713067E-13;
-2,67458991442001E-13;
-1,42641408072391E-13;
4,7263400967903E-13;
-8,42727956501198E-13;
-4,82228718072755E-13;
1,15290443600319E-12;
3,24313164571144E-13;
-3,27788677956208E-13;
2,11776837158584E-13;
4,24933566865294E-13;
3,63012500529011E-13;
2,00906130813946E-13;
3,79839640796222E-13;
5,25016180243313E-13;
4,07756378384691E-13;
3,03603966784628E-13;
-1,46228215839039E-13;
-3,76944304857913E-14;
5,24398666500342E-13;
8,18133458503732E-13;
9,03794940153828E-13;
-8,47214897777138E-14;
2,54025388922092E-13;
9,49000358123379E-13;
1,85925595540299E-13;
8,75865789388899E-13;
4,75718226911542E-13;
2,69562229498491E-13;
1,14142438151688E-12;
1,93627168674043E-13;
4,28293868536346E-13;
3,57945739231053E-13;
1,80476906175515E-14;
4,02628321683954E-13;
-3,6678945038192E-13;
-2,47531782565927E-13;
2,77633350955051E-13;
3,32239531044096E-13;
4,64205335957022E-13;
6,05956511030966E-13;
8,64890683869562E-13;
6,35204311600813E-13;
3,17440765821097E-13;
7,90548965003205E-13;
7,64026948439159E-13;
1,65427178018181E-13;
1,88030150476389E-13;
1,02161013724229E-13;
4,95278370012899E-13;
9,46538255711606E-13;
4,82698810188784E-13;
6,12842872368331E-13;
5,72917914358642E-13;
8,51887569280086E-15;
2,74207840515636E-13;
2,71208811911882E-13;
3,69007870173772E-13;
9,65671100088512E-13;
4,19764054822196E-13;
-4,30073442915281E-14;
5,56795709887703E-13;
5,68588162324589E-13;
7,81714846804606E-14;
5,85999835272714E-14;
1,79366979434753E-13;
4,51644752164532E-13;
8,24261525016476E-13;
8,67827839759482E-13;
6,70726234446261E-13;
4,13368633006416E-13;
1,53618826624196E-13;
-2,93613561146248E-13;
2,3093774065052E-13;
1,20989050116108E-12;
2,57720428327653E-13;
-3,22070739491739E-14;
9,71039495429397E-14;
-8,94023105325701E-13;
2,62889212526796E-14;
8,32200866079852E-13;
3,82165553885657E-13;
4,32178316180439E-13;
6,80104322462889E-13;
6,65445721992251E-13;
3,1273521331178E-13;
6,81302873514063E-13;
6,42345700376112E-13;
3,10436551516213E-13;
5,3307670715691E-13;
3,0223228261911E-13;
3,64006503429184E-13;
-1,61337132385128E-13;
-3,61053393958106E-13;
1,33285253926281E-12;
1,32674252740662E-12;
-2,94424401355206E-13;
1,24242213551148E-13;
7,19623931474536E-13;
1,59732359611489E-13;
4,32477566463337E-13;
3,58206940167758E-13;
2,19208639568143E-13;
9,1353862954734E-13;
1,86563262942502E-13;
-7,41326795665008E-14;
1,10844079599894E-12;
5,61066264002655E-13;
3,32992414827905E-13;
8,7670232684618E-13;
1,63850684633254E-13;
4,79685955502014E-13;
7,07304231282388E-13;
7,04588239486891E-14;
9,06731472328902E-13;
1,02923499769787E-12;
4,44636564317626E-13;
6,30516981343389E-13;
-3,48569644365159E-13;
-2,25096234354812E-13;
2,25841989458409E-13;
-4,02595218230676E-13;
5,44397616350708E-13;
2,37616178323496E-13;
2,33948954167428E-13;
8,56554302908202E-13;
-1,91348499632874E-13;
6,76394312063656E-13;
4,47812994468147E-13;
-3,65993289840993E-13;
6,62585695850515E-13;
1,04708071341221E-13;
2,41293467599722E-13;
6,24761118428503E-13;
1,42606500398236E-13;
6,00559305492926E-13;
8,9654068768379E-13;
9,17668880355429E-13;
6,52246428035417E-13;
4,0167065961581E-13;
4,60569908327806E-13;
3,6415708957762E-13;
4,37225886069384E-14;
-1,31255019737789E-13;
-1,43094658702043E-13;
2,63215611205674E-13;
2,78263802015692E-13;
-2,43410989690508E-13;
4,93149231588963E-13;
5,31490069570173E-13;
4,08233038830787E-13;
1,12991198970471E-12;
1,28437911998339E-12;
1,21746699105421E-12;
1,78279724142723E-13;
1,67007249102639E-13;
9,10992172742495E-13;
1,27711415019442E-13;
-1,00029845900539E-13;
4,37610412403052E-13;
2,08048514272335E-13;
-3,99873607379374E-13;
-5,45472420695702E-14;
4,29790713911771E-13;
2,35065861287084E-13;
3,98951876929333E-13;
3,53794141183257E-13;
1,98649384531239E-13;
7,42387135878052E-13;
3,13479273965903E-13;
-8,04448641453293E-13;
2,69012354683377E-13;
1,26668152905142E-12;
5,70519817142615E-13;
4,36790613833803E-13;
3,1496285544991E-14;
1,12568510404671E-13;
3,45394859037294E-13;
2,83936575497992E-13;
1,15690420604505E-12;
1,27338313957659E-13;
1,77561675273694E-13;
1,86095292408869E-12;
4,05796906076461E-13;
1,95466882804192E-13;
7,80316524466983E-13;
5,67951249202021E-14;
1,13910221348596E-12;
6,67055282451699E-13;
-5,82958509621606E-13;
9,90917510017033E-14;
6,22967400815411E-13;
1,12258624928323E-12;
4,32214955796618E-13;
-2,63605923467444E-13;
1,03994878622984E-12;
1,37340799760848E-12;
1,85359011168804E-13;
-3,1661533401754E-13;
5,9151866821402E-13;
8,6866421976499E-13;
8,24860891094309E-14;
-7,13002645214551E-14;
-6,72911249856872E-15;
4,89682017436367E-13;
8,4522723564786E-13;
8,4898765998521E-13;
7,64705783108543E-13;
2,4984295788082E-13;
-3,33338556143652E-14;
-5,27999122190649E-13;
-2,87420873799485E-13;
7,07652421390896E-13;
6,48494362910611E-13;
4,29862104762816E-13;
5,59607691764526E-13;
-2,91873811228985E-13;
-4,50155766796472E-13;
8,26169386827402E-13;
-4,43495867452702E-14;
-6,82220836322292E-13;
5,40332560968874E-13;
8,56814441492878E-14;
5,16294814185211E-13;
7,32246146827438E-13;
-5,08690918996741E-13;
7,15611805257591E-13;
6,02162806936382E-13;
-5,64412416325487E-13;
3,30421260583393E-13;
2,7416111871163E-13;
2,37067411852766E-13;
5,43084295516789E-13;
3,97424615951678E-13;
2,51171921207961E-14;
-4,48294393646378E-13;
6,4825827827156E-13;
7,9977421493228E-13;
1,00993317509632E-15;
1,11555270269336E-12;
1,0923464261058E-12;
-2,77234581986389E-13;
-3,92157492488321E-14;
5,3177337718986E-13;
8,44332791070458E-14;
-1,49113243417623E-13;
-9,55167956987396E-14;
6,23828836473676E-14;
9,06072742282234E-13;
9,79589806959714E-14;
-6,13770680621239E-13;
8,51507158013316E-13;
4,68827847006538E-13;
-2,27106740496909E-13;
8,33661543826797E-13;
1,11272359181565E-12;
3,73143294713749E-13;
-1,29357799204009E-13;
-2,34365529854623E-13;
1,50206132743367E-13;
7,46514494752039E-13;
1,23432232929006E-14;
-4,52777791081334E-13;
7,69497260027138E-13;
9,34521800199405E-13;
-1,77102255813792E-13;
-4,45392739452016E-14;
6,61862139711165E-13;
7,45766112817762E-13;
6,20010361145651E-13;
1,77526204687462E-13;
1,49459725814257E-13;
4,73272833596906E-13;
8,10026560600994E-13;
7,63672995138155E-13;
-2,52497387304934E-14;
3,20415636703417E-13;
7,12134622055009E-13;
4,85616995456619E-13;
9,92039394231641E-13;
6,35101020838918E-13;
1,14778506608972E-13;
-3,040387046316E-14;
2,13043869027209E-14;
7,97307876136626E-13;
3,38177997883437E-13;
-1,76628364336887E-13;
8,05167802149032E-13;
7,15271485618874E-13;
5,71419502127103E-14;
1,10614446645576E-12;
8,94062359721617E-13;
9,98701682440911E-14;
7,62009360869418E-13;
-5,6762387993307E-13;
-6,95680790635873E-13;
5,68416883422524E-13;
-2,68305289939584E-13;
1,44541388465865E-13;
2,44586584178881E-13;
-3,50807795021162E-13;
3,44587753970858E-13;
5,10418857893067E-13;
9,21717744271685E-13;
4,78443484824286E-13;
-4,21800987971051E-13;
4,26330897437296E-13;
2,65270071054479E-13;
2,85998525010621E-13;
1,51973235384741E-12;
9,15195793575269E-13;
5,43576680522916E-13;
1,01184854936847E-12;
9,6545549056304E-13;
8,17972034978464E-13;
4,34822222710178E-13;
5,83736540279726E-13;
4,65700472920788E-13;
4,52441934562257E-13;
4,42744303618567E-13;
3,37634223929503E-13;
7,01575109640309E-13;
-2,65910058287796E-13;
-4,91756950747549E-14;
1,13998260590644E-12;
6,11228525000149E-13;
5,97358522495987E-14;
-4,55012140813157E-13;
-3,80005555786816E-13;
3,96633853438124E-13;
2,73010741696298E-14;
-1,66718729165392E-13;
3,02277994851076E-13;
-3,56771729672101E-13;
-1,42488618838037E-14;
1,06525359413557E-12;
9,09305779401278E-13;
6,42542511837171E-13;
-1,00847697364974E-13;
2,92071951129186E-13;
4,15541395787532E-13;
8,38039015733472E-14;
1,43994836339973E-12;
4,86698219340421E-13;
-1,63794182682577E-13;
8,90699208595055E-13;
3,8205467717778E-14;
-1,04900757643799E-14;
6,60369362442622E-13;
8,26997472459804E-13;
1,04192118032538E-12;
4,04344013633255E-13;
5,34576122638497E-13;
1,05052186624599E-12;
2,61030787263418E-14;
-5,21244623761301E-13;
7,70281853857467E-13;
1,07864379978657E-12;
-8,62712259344832E-14;
1,03387021755238E-12;
1,13940897461769E-12;
-2,55635667897681E-13;
9,63516559170123E-13;
3,94392365534046E-13;
-1,05289713140591E-13;
1,11918302663624E-12;
1,76154130366534E-13;
-1,19847551176611E-13;
7,60745198349115E-13;
6,54087453350549E-13;
1,83583030443464E-13;
4,04686400088853E-13;
5,48664658360103E-13;
7,48996533302942E-13;
7,40550479918597E-13;
3,16491471376568E-13;
1,07844352141996E-12;
7,79218141301434E-13;
9,95556020458377E-14;
8,17255073084166E-13;
-6,3840577286705E-14;
-3,78032182193884E-13;
9,29537585661154E-13;
4,11272570747186E-13;
5,82462289567584E-13;
6,48734671080379E-13;
-8,51272577509832E-13;
9,30775775378677E-15;
9,24474519010983E-13;
7,67421842488717E-13;
7,15797202297258E-13;
-1,13601914926105E-13;
-1,16584716906779E-13;
2,24848809361404E-13;
2,19518209443262E-13;
2,76119868238477E-13;
4,19531343969384E-13;
2,25081666926328E-13;
-3,30235141028136E-13;
6,39232267634159E-13;
9,36044307061625E-13;
1,10323344523392E-13;
8,65063862939161E-13;
1,16784537448573E-12;
3,65923102962432E-13;
1,7966247550368E-13;
3,14606855210341E-13;
-1,65440197264667E-14;
3,8028621013585E-13;
1,09884723055512E-12;
5,72196028193279E-13;
6,07245493263481E-13;
8,36749005687696E-13;
2,7774552993477E-13;
1,91504875361159E-14;
-3,85505777741115E-13;
-1,84364999211667E-13;
6,42383294850142E-13;
1,81454909093444E-13;
-1,94499642340559E-14;
1,13808776760463E-12;
1,27894245344364E-12;
4,99031751192118E-13;
2,39103081465077E-13;
2,48662409998961E-13;
4,26167658206187E-13;
9,0511965994217E-13;
1,18116196872023E-12;
1,03523768057016E-12;
9,82675727578644E-13;
7,79117716260432E-13;
4,3111811688482E-13;
4,22818107211637E-13;
2,62240370502997E-13;
4,69894662832632E-13;
6,4369355893327E-13;
-1,04688662575026E-13;
1,0155418815059E-13;
8,61273158601382E-13;
5,8838186942409E-13;
-2,83795735612993E-13;
5,00472310136974E-14;
1,07557860314244E-12;
-3,5576144134223E-13;
-6,13783499954159E-13;
7,75378603755928E-13;
-7,47264835517138E-15;
3,7757722949234E-13;
1,00252326137216E-12;
2,01034303793436E-14;
3,90980339666627E-13;
3,35371204550919E-13;
-3,46825573311395E-14;
6,6435839882324E-13;
-2,06633381317497E-13;
-8,83629441335701E-14;
6,65075566836722E-13;
-2,89493267936074E-14;
5,27464418197057E-13;
5,23583708911151E-13;
6,72453260561173E-13;
1,13240123735419E-12;
2,00482295699422E-13;
3,18057486836648E-13;
3,62436261314782E-13;
-3,39095648357568E-14;
6,0079885752075E-13;
5,68769571185669E-13;
-1,49095201841667E-14;
1,9213962371253E-13;
3,04258800928633E-13;
6,43740867695561E-14;
4,14663683336667E-13;
7,13752444859336E-13;
-1,14591058572455E-13;
1,16641435453424E-13;
8,98646267672154E-13;
6,7289462517039E-13;
1,19577889308122E-12;
3,3482983055997E-13;
-1,90225773978012E-13;
8,37584122081865E-13;
2,09311464060647E-13;
4,12354955154538E-13;
4,80738687030261E-13;
-1,70655248725505E-13;
2,61459602466485E-13;
5,71189945677337E-14;
-3,69092702472202E-14;
5,63086936928935E-13;
8,70387092702625E-13;
3,94162054351763E-13;
3,75798172796786E-13;
9,16650427065423E-13;
6,51270458828371E-13;
4,77066617659632E-13;
8,80890542606409E-13;
9,78566811149312E-13;
-2,29494419887732E-14;
-2,91963890488079E-14;
1,04247918359069E-12;
6,42554853984779E-13;
6,67421663701667E-13;
1,03992201589647E-12;
4,75085897061966E-13;
4,58290363053416E-13;
3,57717145854675E-13;
2,87491805514244E-13;
4,14631517128175E-13;
-4,06094613173726E-13;
-4,08043681146769E-13;
8,73034809855516E-13;
1,20482423344231E-12;
1,07363505828595E-12;
3,33585358022598E-13;
-4,73926727573727E-13;
7,86984657123304E-13;
7,2734130582451E-13;
-3,98882918114338E-13;
1,93885870253239E-13;
7,93732788224269E-14;
2,4021152814123E-13;
8,11639531120191E-13;
2,69017298872043E-13;
1,22075457560422E-13;
5,74745312566471E-13;
9,42415258250027E-13;
5,57759503761703E-13;
1,30337042161744E-13;
3,49612643618216E-13;
4,60129358968378E-13;
-5,01177854530765E-14;
-4,00880958404131E-13;
2,87038105530209E-13;
7,71197646687599E-13;
9,74088570587226E-13;
1,02863931870095E-12;
7,720322572001E-13;
1,00841487511242E-12;
9,52444480140112E-13;
3,05938555822283E-13;
1,47038535691832E-13;
8,77842728136757E-13;
1,14132502272343E-12;
1,0394903347198E-13;
-2,20808173460969E-13;
3,75036713467519E-13;
6,75020168223892E-13;
7,34286825281298E-13;
1,64276228344616E-13;
-1,26132100115216E-13;
-8,72160995628847E-15;
-6,78195427856639E-14;
-1,54001714276251E-13;
-2,87816105848425E-13;
-2,76283256596993E-13;
9,54434683652028E-14;
9,82236612545627E-13;
3,80883787426048E-13;
2,75769480485467E-13;
1,51413259886729E-12;
7,18316799309237E-15;
-1,28639337331316E-13;
1,29861763501798E-12;
2,08356376417465E-13;
1,00760318984789E-12;
1,21449784320483E-12;
-8,99716565737327E-13;
-3,68997331297153E-13;
2,11654864313077E-13;
1,63144117833218E-13;
8,43638277812793E-13;
6,80483733900125E-13;
1,29463003759045E-13;
1,21347038597478E-13;
3,11653914676804E-13;
3,8259269689808E-13;
7,53789092971813E-13;
6,58891571335948E-13;
1,76181634447083E-13;
2,70668712160779E-13;
7,250510795055E-13;
5,57529496859079E-13;
2,00255521085622E-13;
5,6360979960244E-13;
3,18385437274187E-15;
-2,60025907973721E-13;
7,92637884683811E-13;
6,11696543785778E-13;
1,17454172110785E-13;
8,28368359171331E-13;
1,02275856170288E-12;
1,45037504283521E-13;
5,83847033268474E-13;
1,70368710473036E-12;
6,96695654349419E-13;
-5,27352384841169E-13;
-2,67664905248004E-13;
-4,10518716554666E-14;
8,95632026670235E-13;
1,66944910797784E-12;
1,6097421876042E-13;
-5,15018539593342E-13;
-2,3949763337817E-13;
-5,17147468183781E-13;
5,4082555376345E-13;
9,17758680054204E-13;
5,20661875218035E-13;
1,04255830093148E-12;
6,68320531195309E-13;
4,84182084452805E-13;
7,71471312508789E-13;
9,59824022327604E-13;
1,04505890320475E-12;
-2,04779654636231E-13;
-2,58475213784718E-13;
2,96431909818505E-13;
2,70910830428857E-13;
1,04536182727337E-12;
2,76413986994846E-13;
-1,86235343653245E-13;
2,96969716060921E-13;
1,68393045138482E-13;
6,17125470902876E-13;
1,87531015835514E-15;
8,07778119499993E-13;
2,17582969354032E-12;
8,27668696589257E-13;
7,01064751762342E-13;
7,01600128957038E-13;
-7,60390021055381E-14;
8,66644556509543E-13;
1,00805902544676E-12;
-2,25423535732421E-13;
7,08820602372364E-14;
1,32162968346461E-13;
-5,22544363624395E-13;
6,12367327174417E-13;
1,09009894674931E-12;
2,73492454766234E-13;
-3,15899625563254E-14;
1,30213028306733E-13;
1,18751850577376E-13;
-3,75704309934133E-13;
4,57692604084171E-13;
1,5477054043991E-12;
7,44391313816707E-13;
2,88996453096638E-14;
4,1073907868944E-13;
5,33625955720919E-13;
1,71538791203755E-14;
-6,06084864664873E-13;
-2,68677961208655E-13;
5,75175140277245E-13;
4,00687819825397E-13;
7,62574064318572E-13;
9,97333051813756E-13;
1,74527102594127E-13;
3,26369064215127E-13;
2,59412741961141E-13;
-2,15042100707261E-13;
1,67013998961178E-14;
6,7627272915494E-13;
1,20129620015997E-12;
7,50489891940334E-13;
4,59024836977571E-13;
7,76940879602038E-13;
5,97888039983539E-13;
4,11914085426404E-13;
-1,36884046900313E-13;
-3,40566212163251E-13;
3,11295536536815E-13;
-1,67033006644655E-13;
8,17432545563228E-14;
7,64769085238611E-13;
6,88770631452964E-13;
9,21585704672078E-13;
4,61895273611688E-13;
3,08614584166191E-13;
4,08917163345944E-13;
3,88257643899617E-13;
1,34960280100619E-13;
-3,49197365507359E-13;
1,55946598165199E-13;
6,67287618464247E-13;
8,26476483102538E-13;
4,67668027422935E-13;
-1,54877181984776E-13;
-3,62638062910668E-13;
-3,26350431090412E-13;
2,94607183039923E-13;
2,41013481095055E-13;
1,19621768927321E-13;
1,13849781308562E-12;
8,85903524862094E-13;
7,18617975321654E-13;
1,21650091945693E-12;
-3,33293423763513E-13;
-7,41662890777163E-13;
8,72988255959115E-13;
9,61735909985191E-13;
2,04350191087905E-13;
5,01363248850777E-13;
1,16097157848242E-12;
5,71254615899604E-13;
-1,0157956785556E-13;
4,56478061337801E-13;
7,44725417249297E-13;
7,33181888066841E-13;
9,72925611894798E-13;
1,09910667716406E-12;
1,08881200678429E-12;
3,88346334540622E-14;
-2,74216735324885E-13;
1,17176518603268E-12;
8,68225092997074E-13;
9,42789674226041E-14;
7,63293686206818E-13;
3,13772266796084E-13;
-3,55449713524242E-13;
-7,86649261513944E-14;
2,08505886929391E-13;
6,79940169208495E-13;
6,06779025346093E-13;
3,0092801880088E-13;
8,87032027108463E-14;
1,41786258264617E-13;
6,99132224444202E-13;
-5,86546440766859E-16;
-3,10489943252115E-13;
4,5680387666538E-13;
3,4969358716866E-13;
2,10576869914995E-13;
3,7923726509678E-13;
7,34809603663035E-13;
5,06152401651414E-13;
-2,54057761642471E-13;
-4,98209975484688E-14;
2,01106986643888E-13;
-1,14992653801102E-14;
-2,02732120178352E-14;
1,10673046052317E-13;
2,5273730376085E-15;
-7,62929766899484E-14;
5,42032289370376E-13;
6,40935767188371E-13;
-1,4018054996671E-13;
-3,84822428919234E-13;
3,63163819160796E-13;
6,02588548920118E-13;
1,5456270760186E-13;
7,28857708957008E-13;
1,51469900550268E-13;
-1,02626047194287E-13;
1,09115452214493E-12;
-7,57274043403525E-14;
-4,96364460245024E-13;
7,09923376189922E-13;
5,15143207613986E-13;
-2,04198050607837E-13;
3,17974807776289E-13;
1,37774699637587E-12;
7,98533489054651E-13;
3,25714728552583E-13;
9,10829702442615E-13;
7,73760865325155E-13;
2,16264941260806E-13;
2,88726235386331E-13;
8,76635119470618E-13;
1,10087772830524E-12;
7,89347711090992E-13;
1,98772288202202E-13;
-3,81923228150719E-13;
-4,63291181776307E-14;
2,93571254228353E-13;
-1,4906463626094E-13;
-1,63613697914152E-13;
5,20224839580888E-14;
6,92296359024007E-14;
8,82718020070838E-14;
2,22932702186243E-13;
5,18731116650416E-13;
7,34405375265408E-13;
8,78526970884605E-14;
-3,22388292323394E-13;
7,23401525352846E-13;
4,02880199288242E-13;
-4,10216679952326E-13;
6,27765467887286E-13;
7,69549731754708E-13;
4,49100590585698E-13;
1,00768493801788E-12;
2,58154591120301E-13;
-3,73158770835227E-13;
2,84320859061081E-13;
3,70880753575499E-13;
8,08205634121636E-13;
8,29272326277475E-13;
-1,24538147688978E-14;
6,94773908969755E-13;
1,27494324993024E-12;
9,74092907713746E-13;
7,6531996444511E-13;
2,47516759508141E-13;
8,1523380248234E-13;
7,19380554314918E-13;
-4,03073050583124E-13;
-1,31177071363628E-13;
-2,04571018129621E-13;
2,55710789434208E-13;
6,81759635291272E-13;
-1,9592386259001E-13;
4,55426118520586E-13;
1,10487075398949E-12;
9,60080260648835E-13;
7,66344374152312E-13;
1,24464815777266E-13;
4,04870098377981E-13;
3,35275773605926E-13;
9,94034381548901E-14;
8,47904903523432E-13;
5,36917378376965E-13;
2,75417369504531E-13;
1,60167362352138E-13;
9,32246112445752E-14;
7,85874194973257E-13;
2,91618268099982E-13;
3,94414838628968E-13;
3,50766023688782E-13;
-3,07803483022949E-13;
3,43033926083077E-13;
-2,27700950238122E-13;
-2,35952765855521E-13;
9,85984837019321E-13;
7,14348122392954E-13;
3,45603497245604E-13;
6,42996052392256E-13;
8,68437767552347E-13;
7,46233281673749E-13;
2,71758248930167E-13;
1,14518261920342E-13;
8,89518940366406E-14;
-7,10908607653504E-14;
4,5486442898376E-13;
6,86416783483961E-13;
6,8327010893173E-13;
8,16804577502898E-13;
8,52818590390567E-13;
1,20329388521277E-12;
3,60677197636199E-13;
-2,47692319217634E-13;
5,00579931897278E-13;
1,96690737582906E-13;
-7,10473945801008E-14;
1,04061115915338E-12;
7,6968179242191E-13;
-2,2325503685457E-13;
2,07427530202529E-13;
8,56690593512643E-15;
2,52824098951611E-13;
9,94875625103684E-13;
5,23356868262895E-13;
3,56911828307942E-13;
-1,66833099191228E-13;
-4,03124255177755E-13;
1,80709935617353E-13;
2,98279517180031E-14;
3,81473315344508E-13;
1,17827827518495E-12;
6,35173643197463E-13;
4,36232140120872E-13;
1,33254951171165E-12;
5,9611879078367E-13;
2,73426536493438E-14;
5,99555624428757E-13;
-3,15005818435368E-14;
1,94653450089792E-13;
1,01956042634184E-12;
3,91797432776412E-13;
-3,87206946152416E-14;
7,72637302206763E-13;
7,08269906775184E-13;
-4,78680975696007E-13;
4,61347499059562E-13;
1,28229259395488E-12;
4,27893875812085E-13;
8,15417033709425E-13;
6,78591026309542E-13;
-9,96512036938658E-15;
8,20576529977661E-13;
6,88769172587241E-13;
8,21254001932508E-15;
2,40702154466878E-13;
-1,66452548506759E-13;
5,45477749507394E-13;
6,93214567795261E-13;
-1,27587234444717E-14;
9,0197508194382E-13;
2,10951677652408E-13;
3,09555307180899E-13;
1,10081556081603E-12;
4,53383199447026E-13;
1,09469655454251E-12;
9,06134627428846E-13;
-3,47366124716052E-13;
-3,39381010316465E-13;
5,4615424641826E-13;
-2,23202838234274E-13;
-5,26687271043387E-13;
8,27771385951029E-13;
-7,21270652499695E-14;
-1,59872678137599E-14;
9,9422480962943E-13;
-7,54319148259663E-14;
-2,39551756248309E-13;
8,61110604214218E-13;
9,40255073651053E-13;
2,20662298895583E-13;
5,80968096714521E-13;
8,27141627310761E-13;
1,06154987574826E-13;
4,6043755142199E-14;
4,91300901310409E-13;
1,1109319025195E-12;
1,44526104499712E-12;
8,25255192182902E-13;
3,49220849200125E-13;
7,55259920613925E-13;
6,62201728900759E-13;
3,40120154212678E-13;
1,03070614277602E-12;
8,28941804299023E-13;
8,15937062020843E-13;
1,470112413218E-12;
5,09754608515023E-14;
-3,25390209289446E-13;
4,25019643121052E-13;
5,96319297603803E-13;
9,91179388551929E-13;
2,47181132064053E-13;
2,12736745842983E-13;
6,59134218902524E-13;
3,34646748346882E-13;
2,39855819651999E-13;
1,5095691589812E-13;
5,40536368327242E-13;
1,64820617264762E-13;
-2,28334065981801E-13;
1,12496866118097E-12;
4,85438302737295E-13;
-9,48027965889431E-13;
-1,29733323931698E-13;
-2,60091556751844E-13;
1,22683164686944E-13;
7,33878413568592E-13;
-2,27210763145556E-13;
5,75057400162021E-13;
1,35515153108358E-12;
4,35108158863699E-13;
4,48053273951006E-13;
8,56187023159485E-13;
-3,39982120341621E-14;
1,64782983193572E-13;
1,28760745685847E-12;
8,75336596342992E-13;
3,90897122098132E-13;
-1,44341313634982E-13;
-1,80819886904837E-13;
5,74906588294603E-13;
8,00089565578791E-13;
8,49395030831732E-13;
3,95918724672232E-13;
4,56798517168095E-13;
6,67516373541737E-13;
1,81821916146028E-13;
5,84722242748953E-13;
1,10015933556816E-12;
1,00209560607501E-12;
3,97543622792413E-13;
-9,72200405968009E-14;
4,2983052144594E-13;
4,05305867644372E-13;
1,100405705565E-13;
5,49896792510586E-13;
4,7620115674975E-13;
1,3647968598879E-13;
-1,6858269026874E-13;
-7,22561661595334E-14;
3,49530856578298E-13;
1,13744726732116E-13;
2,80190949435555E-13;
1,31353938681574E-13;
6,93628910058855E-14;
1,13271008203532E-12;
6,56763862546918E-13;
9,67613658311215E-14;
1,46644741787689E-13;
-6,13837754675013E-13;
1,90158071819635E-13;
4,76573904420377E-13;
-1,86206002758684E-13;
4,3042640535323E-13;
9,5223936354915E-14;
3,48099521305932E-13;
9,15284904897223E-13;
5,13830139211243E-13;
1,06786143369307E-12;
2,94284275745093E-13;
-4,52840508652904E-13;
9,72064201935807E-13;
5,5928638138054E-13;
-1,28221598212843E-13;
9,52093859254563E-13;
3,40929275700775E-13;
7,74182947519974E-14;
9,73446951928406E-13;
4,46788864775502E-13;
3,36054581122959E-14;
2,72338248801758E-13;
5,65779128064831E-13;
6,08175514064743E-13;
1,9096836317686E-13;
-1,85697406415575E-13;
1,0154195917543E-13;
6,31522207228777E-13;
3,55905386651434E-13;
2,28138427558769E-13;
8,40801213605686E-13;
9,09374238166708E-13;
5,7610891212099E-14;
1,89290766663898E-13;
4,0835424991779E-13;
-1,46561214275863E-13;
8,36251481468632E-13;
7,18803522597911E-13;
-3,21788307844902E-13;
5,26469745557843E-13;
7,8575760035672E-13;
7,35701261265914E-13;
7,2581577219647E-13;
5,94714339352632E-13;
8,72657793391798E-13;
3,44306212187299E-13;
2,09770900253615E-13;
5,27432160781154E-14;
-1,87020145339104E-13;
4,5395381206124E-13;
-1,10320292420806E-14;
-4,34642557333725E-13;
7,35278165896422E-13;
8,07711701849657E-13;
1,13510819944414E-13;
8,57875441528302E-13;
8,08028344187922E-13;
1,11385465939215E-13;
-1,63022662939426E-14;
-1,31740400632447E-13;
1,643649302663E-13;
4,62064079956013E-13;
7,47258208053541E-13;
4,3848019451867E-13;
3,92633537206684E-13;
7,91763725226235E-13;
3,9750964146677E-13;
6,84599997447182E-14;
-3,50615086641264E-14;
2,64623344337418E-13;
4,05190685444958E-13;
3,59561217766508E-13;
9,00628096328563E-13;
6,79244845926058E-13;
1,61414402058776E-13;
3,20583432830196E-13;
2,56730197812787E-13;
2,77181663974602E-13;
7,27440678980394E-13;
6,77670617362161E-13;
-2,4781535108597E-14;
2,85484232292818E-13;
1,17789923034796E-12;
9,74016246425955E-13;
3,00748627620819E-13;
2,6762572576949E-13;
9,6838675124986E-13;
7,00311991773391E-13;
2,19942243122849E-13;
1,02242451738087E-12;
1,00362004187184E-12;
-1,55942043948566E-13;
8,73567625676331E-15;
7,39371801262279E-13;
2,95602564664011E-13;
1,31081055308257E-14;
1,71268201361841E-13;
9,48005586144157E-13;
8,34464295416506E-13;
-1,38019839504447E-13;
8,41100723004294E-13;
2,81572489397444E-13;
-8,30354556797761E-13;
3,38090024014063E-13;
2,03157793080464E-13;
4,76774188827111E-13;
8,98348164180974E-13;
5,28704490950136E-13;
1,40853156831928E-12;
4,87192211159059E-13;
-1,31146814827591E-14;
9,1605667418961E-13;
2,46495090129858E-13;
7,53032137382068E-13;
1,19427754727408E-12;
6,75478641173799E-13;
8,16374500159493E-13;
3,58704823815232E-13;
6,22440246029204E-14;
3,96730558039921E-13;
9,36044007834651E-13;
9,01576804440773E-13;
7,33729480620932E-13;
7,2635254445325E-13;
-2,26395312210092E-13;
1,34556051989357E-13;
7,48931135634972E-13;
2,20996533152805E-13;
8,5736250340773E-13;
6,76416065533336E-13;
2,08111385503984E-13;
4,81350514485425E-13;
7,28516424949382E-14;
6,79156125740635E-14;
5,55956555305109E-14;
5,44687273673439E-13;
7,41566225329892E-13;
2,57531873322833E-13;
2,70953466715047E-13;
-6,64813490514174E-14;
7,63427071373964E-14;
7,23905605663644E-14;
3,97560690843441E-13;
6,48501308058392E-13;
8,16332625329908E-14;
8,20453010397481E-13;
6,92582504831765E-13;
3,81002723618747E-13;
6,20986747201872E-13;
-2,24495622384061E-13;
3,23364939267137E-13;
7,95694164224849E-13;
1,58928694709488E-13;
2,33995919919868E-13;
2,66351790259974E-13;
2,9844745418931E-13;
2,24564629390667E-13;
8,35774858787165E-14;
3,01664700998145E-13;
6,73563778160658E-13;
9,36176988804298E-13;
2,89352374736413E-13;
7,29153456761146E-14;
6,32684852564047E-13;
5,69773360627138E-13;
8,01543276436082E-13;
-7,00508333846301E-14;
-6,7710496836235E-13;
8,24315443716414E-13;
3,43740708667186E-13;
9,12598134097793E-14;
1,16519559442015E-12;
7,0848586103225E-13;
6,26981279606409E-13;
3,01871216324341E-13;
3,68424090013647E-13;
1,5266634031967E-12;
1,11627827601656E-12;
9,50615628827148E-14;
-2,79128211685788E-13;
-2,3566955991159E-14;
2,61952199631771E-13;
-1,00578311489968E-13;
-3,14423411916456E-15;
9,06222084911183E-13;
1,41467984385778E-12;
8,19325248201955E-13;
-1,63364235261205E-13;
-2,12557149378916E-13;
8,18879089573284E-13;
8,89858161765093E-13;
5,46128774714323E-13;
6,11601762128055E-13;
2,83844323348627E-13;
5,99538121898805E-13;
5,50474869288879E-13;
4,05020021838314E-13;
1,1659807382577E-12;
9,69607664277861E-13;
5,11748656038636E-13;
8,804489368533E-13;
3,66980603386071E-13;
5,99448601998844E-13;
1,62658962042134E-12;
4,1704325966362E-13;
-3,17922958054286E-14;
5,95864073942665E-13;
5,0956284099426E-13;
1,15721027332864E-12;
1,16182963193187E-12;
3,5639550714041E-13;
3,0676235209683E-13;
5,7695526532363E-14;
-4,87653969444634E-13;
2,82578359581761E-13;
1,2595573344556E-12;
1,02783502122578E-12;
2,89391356341436E-13;
9,53904246948157E-14;
8,83943585074021E-13;
6,44196121624047E-13;
2,51609207886665E-13;
6,54793706048847E-13;
-6,85241456254783E-14;
-1,81055443148509E-13;
-1,64619234324535E-13;
2,9676573511256E-14;
8,52350458837694E-13;
-1,10990885690781E-13;
-3,51238359785187E-13;
7,00991581593563E-13;
8,20476313503928E-13;
-1,92946864455977E-13;
-7,22542726117851E-13;
3,60652658534105E-13;
7,65250490272674E-13;
9,22699999158286E-13;
1,00875125228143E-12;
1,08351317036559E-13;
1,01614897614762E-13;
3,79966530631007E-13;
3,52405929378985E-13;
4,87070901315011E-13;
-2,83728387117186E-13;
4,02877774760545E-14;
1,49324879256041E-12;
9,75659684667276E-13;
1,54425568891284E-13;
-1,15771207824965E-13;
-2,60041012592687E-13;
4,37690032340838E-14;
-1,66769698657568E-13;
2,40823868220474E-13;
7,18350932430022E-13;
3,75197884458055E-14;
-1,37729768100608E-13;
4,4990544408011E-13;
7,23567392826737E-13;
3,16948281726708E-13;
5,6796546125708E-13;
8,55612245087018E-13;
3,57638391309233E-13;
1,06506239123323E-12;
9,40287968529407E-13;
3,23203586580287E-13;
6,46183617053637E-13;
1,81467480014912E-13;
7,55921311823185E-13;
6,33756456817758E-13;
-1,97400825192166E-13;
3,04874485980985E-13;
8,78576844060596E-14;
7,27833372331388E-13;
9,41015822854145E-13;
-2,2954750307601E-13;
2,01531160897362E-13;
2,66523142753963E-13;
1,38555690910544E-13;
4,41365433319737E-13;
-1,42677574896599E-13;
4,03107104798944E-13;
1,08013019808495E-12;
3,18320310123522E-13;
-1,84586899565068E-13;
3,56827264245817E-13;
6,39681656602164E-13;
4,23984164735445E-13;
2,61537887332687E-13;
4,2923932562617E-14;
5,21342399165236E-13;
7,31972778220409E-13;
9,39769278914037E-13;
9,52260409544825E-13;
2,31430151972921E-13;
6,93966960341324E-13;
1,28640683943033E-13;
-4,44512255932868E-13;
6,23127834990419E-13;
5,61689730049705E-13;
1,84972705490277E-13;
-2,44667532627855E-13;
1,53995839962278E-13;
1,97532822138416E-13;
-6,26470822726717E-13;
6,12132958446778E-13;
7,46209526159742E-13;
-1,87825549423252E-13;
-2,94550872089316E-13;
-4,22372983683485E-14;
5,94653806532097E-13;
3,16893656362088E-13;
3,03693713319067E-13;
-1,78310130407827E-13;
-3,67013646201589E-13;
3,98898308260807E-13;
-4,63365173601599E-13;
1,10705167392474E-13;
1,44204178836487E-12;
4,95924918714061E-13;
4,91838320935506E-13;
1,11133231113539E-12;
8,1259687113057E-13;
8,06292268698756E-13;
4,3966183459887E-13;
1,87311864053113E-14;
7,10911066932512E-14;
3,41739742420484E-13;
6,14502588593523E-13;
-3,21402055957453E-13;
-1,48627341537186E-13;
1,39506348463509E-12;
7,45846074791168E-13;
-3,28490419037789E-13;
4,27336355768257E-13;
1,79672790153676E-12;
1,26958548495476E-12;
2,36100886443669E-14;
6,32682854741704E-13;
4,29412228980453E-13;
-1,89066863006921E-14;
6,67058829086144E-13;
3,12930463636681E-13;
-1,64101376159024E-13;
-2,23448370594763E-13;
-3,02846925082918E-13;
1,62842305389221E-13;
5,73008541602122E-13;
7,64749366263298E-13;
5,34392960067199E-13;
5,93292909860024E-13;
1,19484672887422E-12;
4,14764862620598E-13;
6,10409127688164E-13;
1,37283289010422E-12;
3,28954338397347E-13;
6,10079340607277E-13;
2,62799330896646E-13;
-7,55225838956979E-13;
2,37751039952914E-13;
6,03676770231546E-13;
4,32476181163037E-13;
3,68322380161628E-13;
1,71488442178183E-13;
2,38982821237191E-13;
4,78432069966091E-13;
3,25343398855369E-13;
1,19623574231372E-13;
5,04287443306396E-13;
2,14355482571581E-13;
1,38260063373106E-13;
5,16035707074313E-13;
5,75183646033518E-14;
-3,52120115805752E-14;
7,65786835587472E-13;
1,08416681606661E-12;
6,55883183656499E-13;
2,11660619900853E-13;
6,58039439821976E-14;
3,37742874954237E-13;
4,12615637451786E-13;
5,20877066875718E-13;
4,98488551555233E-13;
5,24630364679077E-13;
9,84346313173589E-13;
-6,68330912941165E-14;
-6,02649641699287E-13;
5,95581071526188E-13;
5,07467908962499E-13;
3,20984076839332E-14;
7,81571236757484E-13;
1,14837282291996E-12;
3,53267094459765E-13;
8,61602551200175E-14;
6,09427313432249E-13;
7,820005076152E-13;
4,67145182591707E-13;
3,34716777383126E-13;
-5,2239151425356E-14;
-6,19450154837626E-13;
2,1720232238281E-13;
3,88479849691738E-13;
-5,48024324201096E-13;
-5,54290473310963E-14;
8,5137636616714E-13;
7,57096791192632E-13;
4,05003822381005E-13;
3,36268792202547E-13;
2,86225092051346E-13;
6,60443156406185E-13;
4,26693144239064E-13;
3,14845905802438E-13;
1,25676203453611E-12;
4,68320906137013E-13;
-1,25303578505859E-13;
4,182654045406E-13;
6,56701607856975E-13;
1,28303545013777E-12;
3,65912615554373E-13;
1,60270982304109E-13;
9,24490826770121E-13;
3,1660555498501E-13;
9,58244914314184E-13;
9,02074311506745E-13;
-3,05396584704016E-13;
-4,03577600937353E-13;
-5,76157633190416E-14;
3,18145027304786E-13;
4,32752875895127E-13;
6,7616824312863E-13;
7,45028430064526E-13;
9,08983310302633E-13;
4,31357234691198E-13;
-6,76568369787513E-14;
9,00799546889355E-13;
6,07172898005189E-13;
-4,06123148743674E-14;
2,40950601375213E-13;
8,04294330746673E-13;
1,48402759570224E-12;
2,91276122950696E-13;
-1,47532679115467E-13;
3,92306323522849E-13;
-1,9964037669746E-13;
4,34193454577118E-13;
1,81801183061561E-14;
-5,96101434578263E-13;
4,88549528145571E-13;
-1,73481641667511E-13;
-2,24742852009237E-13;
6,00751745933174E-13;
6,45867579236003E-13;
4,95249772348253E-13;
-1,05178225645093E-13;
7,34165889526691E-13;
1,20760253333184E-12;
4,15760410294762E-13;
4,71728242495741E-13;
5,00658174963805E-13;
3,94793550424406E-13;
4,49080045706569E-13;
2,00270600488881E-13;
-7,84792088222461E-14;
2,63160393567703E-13;
4,16502603747353E-13;
8,16596218140394E-14;
6,55683266973024E-13;
9,4612255369888E-13;
3,98437923084435E-13;
4,24400788190714E-13;
6,39540192040916E-13;
1,00440299022769E-12;
5,97993117887836E-13;
-4,34796586883276E-13;
3,55964795140379E-13;
4,54406215997364E-13;
-4,34582477672909E-13;
4,40719895493217E-13;
6,76397510226931E-13;
1,54222326120856E-13;
1,75148345189064E-14;
3,09823522094045E-13;
6,17167547529285E-13;
3,53864393094934E-14;
3,11952523847886E-13;
4,33711004061473E-13;
7,75425946663238E-13;
1,19583443700752E-12;
-8,06628135278694E-13;
-2,34764936635218E-13;
1,62202973272148E-12;
7,26567909742431E-13;
7,13063786363886E-13;
5,31058446044258E-13;
3,69451285684833E-13;
6,78018566850507E-13;
-1,57081965989617E-13;
2,8322859328058E-14;
8,39818624831167E-14;
1,40523027600279E-13;
6,0128119796681E-13;
1,02204766564808E-13;
8,02195040601906E-13;
1,15028484930548E-12;
5,03938432139002E-13;
4,96076100648543E-14;
3,59063886467218E-13;
2,01458216610683E-12;
1,04062243230344E-12;
-1,67266205940324E-13;
4,25852970285013E-13;
-4,56420669020577E-14;
6,81420334108776E-13;
5,74991347673084E-13;
-6,12035783639238E-13;
4,16267264232793E-13;
5,96733515717962E-13;
1,17918116584203E-13;
1,0302555449357E-12;
9,90976991923708E-13;
4,59432537610994E-13;
2,89744293723254E-13;
9,34291917779889E-14;
9,06285032406169E-13;
7,18952650426305E-13;
-2,58137697352312E-13;
-1,74293581402439E-13;
2,02711080748608E-13;
7,87083695334624E-13;
3,87995927421681E-13;
1,07187505716291E-13;
5,93776968322929E-13;
2,25413881383757E-13;
4,48639995563372E-13;
5,91595183127378E-13;
-2,43432642555286E-13;
2,1130882141988E-13;
3,53299318419587E-13;
-4,18115857704323E-13;
8,93142291209403E-13;
9,27900768471129E-13;
-3,74234020844027E-13;
1,09723225890823E-12;
9,92201593258462E-13;
-6,32462841272098E-13;
3,20087349408388E-13;
1,06950354829303E-12;
5,76263317679177E-14;
-1,32631493916788E-13;
8,50323974742503E-14;
-7,24514832539398E-13;
-3,74344273127818E-14;
6,2131075833765E-13;
-1,44185505723074E-13;
5,68982126751143E-13;
8,85665297122293E-13;
2,64631345863203E-13;
1,73576560658006E-13;
-3,38027264964707E-13;
-1,26653811797969E-13;
4,68027161780144E-13;
6,67546173753227E-13;
8,05663360967042E-13;
-1,46771036122441E-13;
-2,34510578415301E-14;
1,09173548232387E-12;
4,75752557532426E-13;
2,27674537640764E-13;
6,13642562342045E-13;
6,63239965127574E-14;
3,97303767904078E-13;
1,06341932094947E-12;
4,65784045190541E-13;
-2,60103663500409E-14;
3,93067984904567E-14;
3,6296749103678E-13;
4,06958245881379E-13;
-1,00168849225506E-13;
2,37468662799896E-14;
2,74008614302141E-13;
-1,57101116501116E-13;
3,07834067465781E-13;
1,15617914481023E-12;
9,37923605599568E-13;
4,64079044513682E-13;
1,69338885693946E-13;
4,46765642504515E-13;
5,10324568073018E-13;
1,61689002710025E-13;
1,83166701142458E-13;
3,10987145671118E-13;
4,54826052326557E-13;
1,34536147570565E-13;
2,02394696433782E-13;
3,76902665662306E-13;
1,81881847122228E-13;
6,3104093147436E-13;
3,51066830885498E-13;
-3,45429160730309E-13;
5,39945947998697E-13;
1,09904481361254E-12;
3,3215133664987E-13;
1,3275231658663E-13;
3,91140048723962E-13;
5,29675396276561E-13;
4,97482306771942E-13;
3,44042628479564E-13;
1,58617227448954E-13;
6,10545661856189E-13;
1,40705905811924E-12;
9,07177120398582E-13;
3,19711133653904E-13;
-1,21160832917467E-13;
-3,2493738572303E-13;
5,45854354531945E-13;
4,08747544299171E-13;
2,46225911534874E-13;
5,78888325594746E-13;
3,0532553863361E-13;
2,26037037234913E-13;
-3,75526050496293E-13;
-4,61300932429287E-13;
5,30716884133808E-13;
9,83907857778248E-13;
2,09544526899195E-13;
-2,94843895021374E-13;
1,01647230126346E-12;
1,44597474253733E-12;
-8,55924854221462E-14;
-7,90605209673699E-13;
3,15395782365856E-13;
1,06571051987389E-12;
3,51071031151387E-13;
1,76842322231356E-13;
7,4712256129555E-13;
6,95241310481454E-13;
3,98149358666183E-13;
4,68346584393444E-13;
1,50434854863514E-13;
-5,86394323722748E-14;
3,58235531239964E-13;
-1,69289006687563E-13;
1,33816079047364E-13;
9,82101453790301E-13;
7,44725623743002E-14;
-1,32940035818044E-13;
3,78280192154059E-13;
3,11635784999906E-13;
4,75905676505063E-13;
6,54364782919441E-13;
4,42936693884599E-13;
4,43336027578584E-13;
5,4196961558597E-13;
3,20455177679072E-13;
3,49556385895053E-13;
6,80639290366087E-13;
3,8435400004068E-13;
-7,00624532733552E-13;
-3,69987110073654E-13;
3,2505048866924E-13;
-2,11227642484782E-13;
-2,35217466286936E-14;
4,70767052383896E-13;
9,01871330856638E-13;
9,72876753954602E-13;
9,47190328911519E-13;
1,29378046514074E-12;
4,62660854592002E-13;
-6,28182061610008E-14;
8,05486838538155E-13;
6,5035033425211E-13;
-1,02949721845335E-13;
8,43249345526443E-13;
1,16931817840118E-12;
-2,95889973307044E-13;
-4,54939832793584E-13;
5,29487774348388E-13;
7,73321753267787E-13;
1,04255655358338E-12;
1,5079424347366E-12;
5,62751844032799E-13;
-3,26589011023178E-14;
1,24200282438982E-12;
8,38086319500938E-13;
-1,47137753047698E-13;
6,87436731116381E-13;
3,13233694494157E-13;
1,56881113116382E-13;
8,6856542595433E-13;
5,9672988660561E-13;
6,93598078045525E-13;
4,36858127342239E-13;
-7,09617583321865E-14;
5,33761085886298E-14;
9,95660864175219E-13;
1,50316648048453E-12;
6,13139800888861E-13;
6,60040793298619E-13;
7,90592927917908E-13;
-9,37548063729063E-14;
-2,82707550105077E-13;
3,14704074768086E-13;
1,91682883031618E-13;
1,21663503815567E-13;
3,94669268103833E-13;
-5,64421450445542E-15;
7,69539968226302E-13;
9,16943963812984E-13;
-8,77471317196178E-14;
9,40716991824869E-14;
9,15192181196475E-14;
7,38992411539008E-14;
-9,40249714411639E-15;
4,14717669426563E-14;
3,82572632697116E-13;
9,76321716587273E-14;
1,08845740664061E-13;
3,14269735676561E-13;
6,48591072955752E-13;
1,25325209440021E-12;
1,24083342257279E-12;
5,8710711830207E-13;
4,27987347995479E-13;
1,59591524012145E-13;
1,52075882561225E-13;
1,18489236605272E-12;
1,15296864744801E-12;
1,0953456901811E-12;
9,51709939671798E-13;
7,68040245317488E-14;
4,03942445166552E-13;
4,77035575698048E-13;
2,88226299928846E-13;
6,70953823754241E-13;
3,36590436758181E-13;
8,67374425035936E-14;
6,99985887750782E-13;
8,00449455729102E-13;
-1,32496311369753E-13;
-2,44060192210739E-13;
2,31097462712049E-13;
2,35252912188248E-13;
3,95644294912221E-13;
1,50662298495746E-13;
5,45312683952299E-13;
7,68361791068706E-13;
3,82346578853041E-14;
6,92286002104813E-13;
8,98506137993398E-13;
6,44105938367864E-14;
7,86101583280163E-14;
7,74950068014616E-13;
6,66929407808923E-13;
4,26264378048905E-14;
8,50220649069108E-13;
1,16048123996434E-12;
7,74965405601174E-13;
3,04514037058272E-13;
-4,87970077734427E-13;
7,99766099310005E-13;
1,09431697984767E-12;
-6,84706352715213E-13;
-6,22124915985101E-14;
5,98792672653227E-13;
-1,69959538311343E-13;
2,6391242438506E-13;
5,00843164291983E-13;
2,02012073074222E-14;
-4,68872890862113E-13;
-2,54537338614545E-13;
1,08090911588369E-12;
8,74071424431265E-13;
5,73137735971659E-13;
1,26003018009608E-12;
1,03400421676141E-13;
-6,4128846499929E-13;
3,9591365139911E-13;
4,31508002926935E-13;
-2,50447798837022E-13;
3,65465930370595E-13;
9,56873496668364E-13;
4,72798790669699E-13;
3,62280964443868E-13;
3,31962739097351E-13;
2,94973417932105E-13;
6,43020076367809E-13;
4,22273013097288E-13;
9,33149111440899E-14;
7,92320431355767E-14;
-1,81843305634349E-13;
-1,58752414705259E-13;
2,66100819045549E-13;
4,37134962389074E-13;
7,60430936405374E-13;
9,44583694605316E-13;
-1,25085417708437E-13;
-2,87660462430766E-13;
9,86348787628361E-13;
1,03466666917036E-12;
8,66832266992624E-13;
9,05706226142369E-13;
4,69800719232274E-13;
5,11218058741308E-13;
4,952665484418E-13;
9,52928494184691E-14;
-1,28992823089163E-13;
2,48999800512963E-13;
7,108828375721E-13;
3,55642088340229E-13;
1,16478289243591E-13;
-1,80158228479975E-13;
-5,68627480979833E-13;
1,24476614933048E-14;
7,47535345794719E-14;
1,87702071663055E-13;
7,8256763474429E-13;
9,59753039714553E-14;
-3,22922087774718E-13;
2,10570729045165E-13;
-9,03445921152903E-14;
-3,02436536310538E-13;
5,18331228686313E-13;
3,13809836427175E-13;
-1,47645792477142E-13;
4,16026597225071E-13;
9,41896792651967E-13;
9,40636144385998E-13;
7,59866211188934E-14;
1,26371750925236E-13;
9,14058279663849E-13;
6,00642893908804E-13;
5,24261424197881E-13;
4,6261567016448E-13;
1,6813275117055E-13;
3,53181213366971E-13;
3,5106698776614E-13;
2,8586073802855E-13;
1,7465110677185E-13;
6,06084229163113E-13;
8,4232858688676E-13;
2,10904299716747E-13;
5,11928039337764E-13;
6,29246967395297E-13;
-6,07872468989526E-14;
1,666409870807E-13;
9,77299058340843E-14;
-3,31517124086153E-14;
9,69980226966275E-13;
4,61061838806484E-13;
-4,06432382326579E-13;
4,26539046423065E-13;
2,62449190640216E-13;
-4,76614687077295E-14;
6,52362566697128E-13;
2,57967090912955E-13;
2,59795465400973E-13;
4,08942939160668E-13;
3,22026803765112E-13;
1,51491576780798E-12;
4,36331747272247E-13;
-1,28446886815692E-13;
1,39715651389961E-12;
2,9025530435344E-13;
6,24581315602499E-14;
8,3753228852862E-13;
-1,53333705509376E-15;
-1,82238747070437E-13;
4,01189876502099E-13;
5,66330940892657E-13;
1,63534503659119E-13;
4,67379096402457E-13;
8,71622308470359E-13;
4,62535628546394E-13;
3,71024286264922E-13;
-1,40725293138914E-13;
4,1016657292842E-14;
9,45549979070716E-13;
3,98047912537279E-13;
8,20517523531476E-13;
1,08062937268908E-12;
-4,63457187211761E-14;
1,30890739548293E-13;
5,50956443805778E-13;
8,63786628285987E-13;
9,16694645705865E-13;
5,92882482977832E-13;
7,27541903960315E-13;
4,88752260829797E-13;
1,81133127510891E-14;
8,07512977001853E-14;
2,88644365744912E-13;
4,39534958172013E-13;
8,88239037274384E-13;
5,20315010931227E-13;
-1,11592477291614E-13;
1,77960449822439E-13;
-1,37471093919599E-13;
-2,01014018715856E-13;
-1,01168343409164E-13;
-1,0936875841859E-13;
6,15049115610006E-13;
3,1200556756035E-14;
2,7226473768467E-13;
1,20572958251385E-12;
3,51677172576901E-13;
5,53722602354998E-13;
6,18048987560669E-13;
-2,3612274787771E-13;
5,88773250276085E-13;
1,01781214662597E-12;
2,47486940941006E-13;
8,78529181788954E-13;
1,16859380775577E-12;
3,7924622489163E-14;
-2,17950953200268E-14;
5,00645361400321E-13;
1,04864976843496E-12;
5,84643015151643E-13;
-4,24114087007586E-13;
2,96017127815688E-13;
3,82030975859019E-13;
-2,86174721711311E-13;
-6,82480291614311E-14;
4,9527331397866E-13;
2,40307168114188E-13;
-7,1983500632492E-13;
-9,04015128732835E-14;
4,97320600625814E-13;
1,3108802276925E-13;
3,818868464495E-13;
5,36551919933201E-14;
-3,79344202321834E-13;
2,6914748107933E-13;
8,93142191204533E-13;
6,02437296765342E-13;
-1,27755681309309E-14;
3,25075951372527E-14;
5,6049421309762E-13;
5,04395038161829E-13;
-4,98458209088606E-14;
3,10012980261757E-13;
5,08464068197825E-13;
4,81631358064103E-13;
8,37654434293765E-13;
8,00786813624035E-14;
6,54226068378012E-14;
2,23390675580358E-13;
-3,05485405210315E-14;
1,24155197951612E-12;
8,32754645123722E-13;
-4,25233102196369E-13;
3,0039337002877E-13;
8,25830471930556E-13;
7,55498727200554E-13;
4,90238825697812E-13;
7,75694729488869E-13;
1,0706516102858E-12;
5,8543605400115E-14;
-2,58437677445234E-13;
4,02112943129727E-13;
5,11168060912956E-13;
3,74447510012964E-13;
7,30936841428052E-13;
3,99111334888331E-13;
-1,43404515829846E-13;
7,48178921722613E-13;
4,19576296933612E-13;
-3,14063705123867E-13;
7,17438951905676E-13;
5,71193110190844E-13;
4,26313915025711E-14;
6,25804266628376E-14;
1,10284664482409E-13;
6,26485745388899E-13;
-1,35640086498784E-13;
-1,19721237847497E-13;
9,27998641889082E-13;
4,2290278884581E-13;
-1,61002279626781E-13;
-1,99135594795589E-13;
-6,50170207920143E-14;
2,7189365733064E-13;
6,61084491550255E-13;
3,19708576889594E-13;
-3,14004975982374E-13;
-2,11030994165209E-14;
2,36089960125367E-13;
3,42156121444712E-13;
6,86734869038333E-13;
3,15351944886513E-13;
1,1456422545196E-14;
9,8994114736227E-13;
1,08105666550404E-12;
1,3335658882495E-13;
1,05773549220944E-13;
8,85534284587536E-14;
3,84833331324165E-13;
7,5918634251639E-13;
-4,70071212154343E-14;
-4,86830710402923E-14;
6,50763658873737E-13;
6,01854358729572E-13;
8,41317322732026E-13;
5,49617545418112E-13;
-9,69062943361215E-14;
5,25087068492888E-13;
4,12515429467993E-13;
-2,41457608222751E-13;
3,0006626952772E-13;
7,04869589976998E-14;
4,52428774420575E-14;
1,15204588184163E-12;
9,02349792055907E-13;
3,27084731276454E-13;
4,75546262597252E-13;
6,32993516483577E-13;
1,13099041858457E-12;
1,17146803824617E-12;
2,36320561587203E-13;
-5,03726651795963E-14;
5,9569294580486E-13;
8,69173678194689E-13;
9,21201749344746E-13;
5,75329289199459E-13;
3,36233468031203E-13;
1,82927769584461E-13;
-5,56346469650234E-13;
2,10322858860865E-13;
5,37971380423171E-13;
1,01622805942973E-13;
6,65479156576444E-13;
3,16801079541033E-13;
4,60139321096301E-13;
2,64295332640072E-13;
4,34612092239183E-14;
6,63177074111019E-13;
5,67393786730829E-13;
6,68055926359143E-13;
-3,45748777311236E-13;
-7,43176867931378E-15;
1,39249809067163E-12;
5,01852596272097E-13;
1,95922163643175E-13;
4,26102740747199E-14;
-2,57434213999835E-13;
1,42637313321637E-13;
-4,38612802927452E-14;
1,63806352949177E-13;
3,9258543655258E-13;
1,13359801502343E-13;
6,30063730388287E-13;
9,22206212325579E-13;
2,16483792897105E-13;
5,54528320847042E-13;
7,56928394865244E-13;
-7,69466463477945E-13;
1,0085159334313E-13;
1,18732861342701E-12;
-1,22595937597671E-13;
8,27456996901823E-13;
7,04426223720713E-13;
-2,66396021047703E-13;
5,89842001184078E-13;
-3,56325478641507E-13;
3,77605053755608E-13;
1,06462127185158E-12;
-5,45488369497135E-13;
6,90736855183886E-13;
1,30926734290887E-12;
3,30326131656316E-13;
-3,39911039195564E-14;
-6,80650481917726E-13;
4,3350041379819E-13;
5,45298289425071E-13;
-6,17551301566159E-13;
-1,66551613632662E-14;
5,29324658280423E-13;
8,88954598441722E-13;
5,6757504701579E-13;
2,25637856706278E-13;
5,40569717959067E-13;
1,58749431373483E-13;
4,19864919659533E-13;
6,89735351555811E-13;
7,58940275166319E-15;
4,96010143725174E-13;
1,49047133362033E-12;
1,29038875327629E-12;
5,7292430362315E-13;
3,18548579732134E-15;
1,51515808651391E-13;
3,16621064330891E-13;
3,58803904512252E-13;
4,63613931510745E-13;
1,29877097735175E-14;
1,84560168194368E-13;
-5,58175846284653E-14;
-2,1797732191522E-13;
7,6783061254272E-13;
3,269076806773E-13;
8,37714258660756E-14;
9,12875834933429E-13;
5,33595552384111E-13;
1,14494404979644E-15;
7,87499411107961E-13;
1,00872783942163E-12;
1,0239956689966E-13;
9,94221048716674E-13;
1,06606416231286E-12;
-7,11363690797735E-13;
2,86490808090739E-13;
7,83974955958393E-13;
-1,20394761480967E-13;
7,70181431810736E-13;
4,08124207749272E-13;
-5,06101162800612E-14;
7,87973908360476E-13;
4,05999429218121E-13;
2,40566396321857E-13;
8,05124717953901E-13;
7,21665262573854E-13;
2,49537977672044E-13;
2,86242878880505E-13;
6,12842696651065E-13;
5,55632526765104E-13;
5,91312963522605E-13;
4,04832559311017E-13;
2,59895504658646E-13;
6,02305455142272E-14;
-4,41472085178387E-13;
2,53896269232004E-13;
5,71742806087827E-13;
2,65877909812415E-14;
6,81591758788009E-14;
-1,02092960259004E-14;
1,11828791925071E-13;
2,70161037628384E-13;
6,02288352665452E-13;
3,61103492266031E-13;
-7,72381133586358E-13;
-4,58315315851653E-13;
-9,7757071246478E-14;
7,98697411419758E-14;
6,80859075595075E-13;
4,29176776794615E-13;
3,11911987108067E-13;
9,46307180117644E-14;
1,87601833364329E-13;
6,87991978304652E-13;
5,51153194157276E-13;
4,06395124062279E-13;
3,64959853587341E-13;
3,98333815679173E-13;
2,02247955065519E-13;
3,0654234897244E-13;
6,25684958463495E-13;
4,36563900275469E-13;
6,07383145739466E-13;
3,73244992199E-13;
1,99939180858031E-13;
3,22651205274512E-13;
3,22576608549029E-13;
1,05936870915148E-12;
-1,18993094087072E-13;
-9,55298681486464E-13;
1,13653744667869E-13;
-2,51570527659577E-13;
3,9509373481686E-13;
5,41842002443489E-13;
-3,80384649734541E-13;
8,509199395086E-13;
7,03904577336669E-13;
-3,02630820752703E-13;
6,91547859552726E-13;
9,63927731488128E-13;
4,61613940774279E-13;
7,52428861823257E-13;
6,32480597443782E-13;
2,13155139515202E-13;
6,75695994341811E-13;
3,4530910946015E-13;
-3,65297320767293E-13;
4,12982486309171E-13;
7,06552643574592E-13;
6,93102108957883E-13;
5,8489513861183E-13;
3,06131508448217E-14;
1,766270630031E-13;
3,98922687517226E-13;
7,72402030732478E-13;
5,36668034889192E-13;
-8,90791463713891E-14;
3,62205221744329E-13;
4,61538035738361E-13;
-3,16032154735372E-13;
1,36167080440614E-13;
9,73021416722218E-13;
6,18401572472875E-13;
8,08737710887375E-13;
7,07639197790321E-13;
5,65784058689568E-13;
9,44787171883766E-13;
6,94494658913593E-13;
6,6531993398145E-13;
4,46550739389996E-14;
2,7828250646564E-13;
3,8880225238931E-13;
-7,85989819746072E-13;
3,12651048536877E-13;
8,71395693488621E-13;
1,14542452477286E-13;
3,99505386356136E-13;
-5,82755250626049E-14;
1,95853460267846E-13;
1,0943425319527E-12;
4,46591083994656E-13;
1,05181161288775E-13;
9,85358635250481E-14;
2,82143114659909E-13;
6,80905438728377E-13;
9,818196757983E-15;
2,26952874705165E-13;
1,03813714077651E-12;
5,1117829508667E-13;
-3,18687727840644E-13;
-5,1637912694073E-13;
6,925930589891E-14;
9,34258066204552E-13;
6,49316983540788E-13;
-7,99528110313426E-14;
6,67065105532288E-13;
7,65775370816817E-13;
1,10360423405739E-14;
3,19507943030749E-13;
4,55916849602776E-13;
5,03090959675981E-13;
3,13099551556538E-13;
2,33328873310261E-13;
1,00914569660097E-12;
6,8961465974009E-13;
-1,40745393050982E-13;
-3,08253629712618E-13;
-2,57248225895975E-13;
2,59759478781456E-13;
7,73352115301734E-13;
8,5915704941021E-13;
3,61721408521473E-13;
3,96263232693126E-13;
9,37648666203038E-13;
7,72583181635855E-14;
-3,67635579398659E-13;
4,91238896668371E-13;
9,62624923876974E-13;
6,76559726044912E-13;
2,87738922402077E-13;
3,75832372598747E-13;
-1,74606715871307E-13;
-1,05823300844371E-13;
5,12229585409232E-13;
3,03438343448896E-13;
6,98136198970025E-13;
4,23856508648212E-13;
1,64206390685882E-13;
3,65994774886385E-13;
6,67819888189628E-14;
3,55013263926628E-13;
1,68221152498566E-13;
3,83986063280019E-13;
3,83240759431909E-13;
-2,10687139415052E-13;
3,00206789836948E-13;
1,25007371803125E-15;
-2,28230311251585E-13;
9,91814486356273E-14;
4,53311769243963E-13;
9,24227139086698E-13;
4,44206815347657E-13;
5,83081798482431E-14;
1,49501469643346E-13;
6,77197306347805E-13;
6,73825079038672E-13;
1,09676190311468E-13;
1,87690563033985E-13;
2,55535773246193E-13;
-2,40524387077653E-13;
-2,74957444056925E-13;
4,93788616281496E-13;
6,67993268774653E-13;
1,17583782869418E-12;
8,65824655874682E-13;
-1,50324533686339E-13;
1,79430886353323E-13;
-2,08284174147566E-13;
5,03510168781776E-13;
1,32718015161269E-12;
-5,16500804806947E-14;
-3,30536891349385E-13;
-1,96242014869124E-13;
2,28076677921783E-13;
5,19933968875113E-13;
1,84773420801531E-13;
8,45555324842742E-13;
1,98648565903216E-13;
-3,86340475966974E-14;
8,96445645754744E-13;
7,76653991783786E-13;
9,87394248334782E-13;
8,06635523987546E-14;
-3,67623107930263E-13;
5,20378916188188E-13;
3,54125965706488E-13;
4,90510307550759E-13;
-1,49780110263784E-13;
-2,20105759938792E-13;
5,03350705893686E-13;
-1,00569832196357E-13;
8,79811634327354E-14;
2,09684549808617E-13;
5,85045950152965E-14;
5,44913824543817E-13;
6,59795383070652E-13;
5,89390181552146E-13;
8,35179320753187E-13;
7,71959553552585E-13;
4,49049024684926E-13;
3,93517530649189E-13;
-4,82102667341611E-13;
-4,18816659489188E-13;
8,37358246870886E-13;
2,54315244413716E-13;
-2,97134939251756E-13;
-9,31835085600399E-14;
-5,82666506930787E-13;
-2,91443364740318E-13;
1,31102137801741E-13;
5,16002304442781E-13;
1,1449436442831E-12;
7,82901078863206E-13;
6,21640387559503E-13;
8,56103732636499E-14;
-9,31601036245832E-14;
8,14750966981069E-13;
-3,09464295000891E-14;
-2,41848238363595E-13;
7,60655689323184E-13;
2,3161043348333E-13;
2,16130310372119E-13;
8,60960135467649E-13;
7,7968844636479E-13;
8,39022816189183E-13;
4,93272134590526E-13;
-1,52414908672387E-13;
3,91330871248874E-13;
1,07455674762409E-12;
7,44684642633457E-13;
-1,79215457870087E-13;
-5,52113126821094E-14;
1,16281654426613E-12;
5,15313645294903E-13;
1,08643370044537E-13;
6,70554230161715E-13;
1,87540793746075E-13;
7,20342750979077E-13;
3,36099119635849E-13;
-4,53976747382203E-13;
3,65801062945332E-13;
8,39332021851248E-13;
9,4739724050365E-13;
5,39999527781238E-13;
4,30315195311649E-13;
2,90732602059615E-13;
6,08041977081217E-14;
4,72973834961048E-13;
8,73153586711879E-13;
8,92619952460746E-13;
7,67140810495458E-14;
6,93338726443078E-13;
1,04814946056568E-12;
-2,48874166651202E-13;
1,95498725172155E-13;
7,52957691536761E-13;
7,52302873235118E-13;
7,01176532703339E-13;
1,52515571790475E-13;
5,64166849590106E-13;
7,57584603318946E-13;
3,22368646432137E-13;
2,3919982089533E-13;
-2,72309991613201E-13;
1,24967722805771E-13;
9,62428632774592E-13;
5,03659416169795E-13;
8,77934037436074E-13;
1,21529555783685E-12;
5,94042415966552E-13;
5,86015322871236E-13;
4,658924366757E-13;
5,34109024202329E-13;
4,53519533124499E-13;
-9,90335624268334E-14;
-2,64935592765149E-13;
-6,63044900439453E-13;
-1,60052804383201E-13;
6,35795248847986E-13;
3,00542737620477E-14;
3,27234252842472E-15;
7,94504702726995E-13;
8,70182669688275E-13;
3,52490898017694E-13;
-1,05585394606668E-13;
-4,82785088255572E-13;
-7,02862731768347E-13;
-1,26320490461211E-13;
3,70811501848677E-13;
-2,25742210526084E-14;
4,23393432928959E-13;
1,09517007762055E-12;
5,110696261628E-13;
3,72483600128139E-13;
5,10021027971072E-13;
2,38827185487806E-13;
2,79208745020996E-13;
4,32443815138636E-13;
4,34932780191593E-13;
1,71521580604271E-13;
6,49784402895663E-13;
1,25315178033412E-12;
7,25117657892692E-13;
5,0703509372255E-13;
4,53165665927281E-13;
1,89369850963458E-13;
2,35877764531785E-13;
4,46701411446802E-13;
3,06326244134377E-13;
-1,32130617167059E-13;
2,03026693516473E-13;
3,17081387117043E-13;
2,88101472214016E-13;
2,86850703787055E-13;
-2,60930877232736E-13;
3,94005197819383E-13;
8,96565732152828E-13;
1,02191277618056E-13;
1,64060816040522E-13;
1,0016425885424E-12;
1,37558986489032E-12;
1,0420623900146E-12;
7,08064094137557E-13;
4,91007873033978E-13;
1,79181367923213E-13;
7,9709693468654E-13;
1,02123998196886E-12;
5,62202734600166E-13;
6,2935658262819E-13;
2,00259865017943E-13;
4,15003334354491E-13;
4,11074238185901E-13;
-3,67442287637037E-14;
1,18586811879681E-12;
1,2011961351765E-12;
7,83231175354306E-14;
4,23119723057252E-13;
1,1000713466191E-12;
2,86062983733759E-13;
-2,29499022379222E-13;
1,22907812680152E-12;
6,07085264415158E-13;
-4,44941495334176E-13;
2,2274933504372E-13;
4,46528423631504E-14;
8,14720175139292E-13;
5,56369666074717E-13;
-1,13736524569145E-13;
6,19700198829001E-13;
-4,01375553625147E-13;
2,63749906252671E-13;
1,08335894096522E-12;
-2,51247394340582E-13;
2,2490253176725E-13;
7,20276739156119E-14;
1,11643444696392E-13;
6,83671023530713E-13;
-2,38795558922954E-13;
4,04953008085786E-13;
4,82202094120572E-13;
-1,88527826586807E-13;
6,1236044247965E-13;
5,08060086441395E-13;
7,13367429090126E-13;
1,19838532823083E-12;
2,51972214555959E-13;
5,66697349912652E-13;
1,16770636113255E-12;
1,5111096588745E-13;
-1,50238787697389E-14;
1,46459912869081E-14;
3,62412482834694E-13;
1,03401194680319E-12;
-2,48512127896229E-14;
-1,90382421024273E-13;
2,97890718994036E-13;
2,68673427877578E-15;
7,20675464291413E-13;
1,16018265676493E-12;
4,31074912724905E-13;
-5,74468956644547E-14;
3,60495596896029E-13;
9,29271378075965E-13;
4,82665252109535E-13;
-1,48709054858458E-13;
4,02928431658944E-13;
1,09076501692359E-12;
4,56465873177326E-13;
5,19339109852677E-13;
8,71929014618659E-13;
-4,58172531401431E-14;
1,66874614829854E-13;
4,78842845935752E-13;
5,62124700119855E-13;
8,63867273078385E-13;
2,08593880496915E-13;
8,01529734550823E-13;
1,21431156838194E-12;
1,988712498979E-13;
5,1640743188479E-13;
3,47832007103787E-13;
-8,85880896804347E-14;
1,21604209045924E-12;
9,19341119218816E-13;
-3,63181087232516E-13;
4,58029610386873E-13;
4,86312576445296E-13;
9,05041502005064E-14;
1,5521408781625E-12;
9,74040499046521E-13;
-2,95459479350733E-14;
3,14620755066399E-13;
4,57734665688905E-13;
1,5286396261501E-12;
2,86015825871988E-13;
-5,31268398488005E-13;
9,74613267162802E-13;
6,16948615594324E-13;
4,9173218683348E-13;
7,27574465693639E-13;
7,52922414617737E-13;
2,68929798408139E-14;
-6,69783059633198E-13;
2,4247404675963E-13;
4,7272660543749E-13;
3,28349539335178E-13;
-3,41242510843803E-13;
7,00148277982071E-14;
9,16611927615696E-13;
-2,61867340647569E-13;
-3,19715821914489E-13;
2,69240333399547E-13;
4,07228326979861E-13;
3,01318515186993E-13;
-1,09740487073419E-13;
3,92750312672154E-13;
7,30274587713283E-13;
2,68650366653531E-13;
3,11224582213969E-13;
9,97342879016353E-13;
6,57260761498479E-13;
8,10951798234636E-14;
6,90865615514603E-13;
6,910018973375E-13;
2,42698722885738E-13;
4,69658651575723E-13;
4,41517145886294E-13;
1,51050426331395E-13;
3,21352351588283E-13;
7,70977465106471E-13;
6,35412215232459E-13;
-4,55745040584848E-13;
-1,36142236418952E-13;
1,01754913394937E-12;
-5,07045592302303E-14;
-3,21169625656881E-13;
6,07122849317659E-13;
7,38376366864263E-13;
6,01566534987148E-13;
-4,03279490136611E-13;
-2,29642478002883E-13;
7,42550660936242E-13;
2,88159175434997E-13;
1,37229927506435E-13;
6,5061120629151E-13;
8,71080011627888E-13;
1,09242990637125E-12;
8,23560563364132E-13;
4,15320877255507E-13;
7,6337792868864E-13;
5,2131172150221E-13;
3,26325360203034E-13;
7,14939626492E-13;
8,18010362739779E-13;
6,82692679931868E-13;
1,90388111032066E-13;
1,61132980299504E-13;
3,04406992366317E-14;
-1,90742077592008E-14;
1,83854807412637E-13;
1,32901327098677E-13;
3,54907242813527E-13;
1,52675451721801E-13;
-2,06622100154378E-13;
-4,04359962178084E-13;
3,48083018957831E-13;
9,42749548589399E-13;
4,38415489933541E-13;
8,37973511407186E-13;
9,9675671714641E-13;
3,1733894296556E-13;
7,08004436451436E-14;
7,0023921664015E-13;
6,04569128362839E-13;
-1,02693771734716E-13;
2,30410367009416E-13;
2,94155898039023E-13;
4,95281159396208E-13;
-4,38581752612029E-14;
-2,38655060908611E-13;
9,2445010328375E-13;
3,99566036842317E-13;
-1,61293357718577E-13;
-1,85674361423222E-13;
1,49809668914969E-14;
3,18948718123135E-13;
2,44556685194588E-13;
5,12326199667744E-13;
-2,18337925985352E-14;
3,16302307922519E-13;
8,44676663291013E-13;
2,66642913455209E-13;
7,13089219873034E-13;
8,84784769766332E-13;
7,97764914383167E-13;
6,53876632386241E-13;
2,02686161993567E-13;
1,74346103490489E-13;
2,75138325966881E-13;
1,21710427026444E-12;
1,09912090365676E-12;
2,105045521749E-13;
3,95554851538248E-13;
6,28714094133437E-13;
9,18059529982882E-13;
7,16262142632569E-13;
2,64770764175429E-13;
1,12122757008346E-13;
5,41643883951082E-13;
1,13961566675693E-12;
5,71400792010306E-13;
6,59049215374556E-14;
1,25121808956468E-12;
1,10925991725353E-12;
-5,64065847301317E-13;
3,08793802537523E-13;
6,83315129391894E-13;
-2,42249918868139E-13;
9,52608704884771E-14;
5,96983452936624E-13;
6,9559300368029E-13;
-1,35205024173953E-14;
-3,40121457674825E-13;
1,56882227888155E-13;
7,6698684636226E-13;
6,98491415194503E-13;
4,3702742140192E-13;
5,51239448159625E-13;
-1,09857907403976E-13;
-1,96288448388245E-13;
4,45830001670174E-13;
6,07395939925139E-13;
6,2049435020969E-13;
5,05977486972136E-13;
3,23998058242854E-13;
3,33501983702836E-13;
3,51844455360594E-13;
9,13162629633216E-14;
-4,64601482007027E-14;
7,37871855340652E-13;
4,66076726917495E-13;
-6,58186782623495E-13;
6,06285213309343E-13;
5,10454839726698E-13;
-6,75957590239403E-13;
2,44319532168474E-13;
2,50767245831134E-14;
-1,73025359149901E-13;
5,38825624358048E-13;
4,63697922589023E-13;
7,36602266150705E-14;
-1,15500987251446E-13;
-5,73915003666352E-13;
-3,87848449359951E-13;
8,36374474377573E-13;
5,65058974496388E-13;
8,71090581873113E-13;
9,252449290514E-13;
-1,19917271846773E-14;
9,26132758692321E-13;
5,98965368334393E-13;
1,42482567948945E-13;
3,83089644042842E-13;
3,77400456184381E-13;
9,53650467708664E-13;
1,70992540073663E-13;
3,84546066666533E-13;
1,01396139910809E-12;
1,17512414510179E-13;
2,84510431582632E-13;
5,61147705128741E-13;
6,96468223625772E-13;
9,21520432155745E-13;
3,23244839627049E-13;
4,37686630185696E-13;
8,35788499722428E-13;
7,68308892018137E-13;
8,26328452294691E-13;
5,43277891571758E-13;
4,81660804322728E-13;
4,33665468622443E-13;
-2,06007959970899E-13;
-6,00419230767755E-14;
3,77982707721571E-13;
2,6810548239283E-13;
7,64754452643513E-13;
5,23979696740893E-13;
-2,4635515598175E-13;
2,5779110871822E-13;
3,8332583758979E-13;
1,7051903597178E-13;
1,61612685441756E-13;
5,78336273165526E-13;
1,09856504160257E-12;
3,03670646048822E-13;
6,17654033530658E-13;
1,01123852273E-12;
-1,65590760231242E-13;
2,23634565753666E-13;
1,98422813325763E-13;
-5,96026124061989E-13;
1,48382599849014E-13;
8,00609055165329E-13;
6,89577054338407E-13;
2,66574687706876E-13;
5,82283132080365E-13;
6,29743324690806E-13;
3,61112749317072E-13;
5,29837103730029E-13;
3,27129219939072E-13;
5,23711502719187E-13;
4,47112786859579E-14;
-3,73074440744122E-13;
2,41747682848294E-13;
5,83616080543759E-13;
5,04016572341371E-13;
-4,29365903497502E-14;
8,73979149466652E-15;
9,78109115683779E-13;
9,69182134148463E-13;
4,02603387065799E-14;
3,91946420448084E-13;
6,78879440148449E-13;
3,15018415948798E-14;
-1,28749076873523E-14;
2,33070720131989E-13;
6,05640160409207E-13;
8,7913523257216E-13;
4,76751405798174E-13;
6,56750788560145E-14;
8,3761058124491E-13;
9,52990509659521E-13;
4,0228488634346E-13;
9,05222356601876E-13;
6,35955804311112E-13;
8,54404732936731E-13;
9,26781836448546E-13;
-3,85793583291932E-13;
-2,81721462391918E-13;
7,5700127227046E-14;
6,24364271772781E-13;
1,2620353866581E-12;
1,55199270267464E-13;
-1,88702265048674E-13;
5,63803807319657E-13;
7,51652065983031E-13;
6,69792022533239E-13;
1,78939655439172E-13;
-2,30832784773843E-13;
-2,51850318546773E-13;
8,16256444747554E-14;
3,30456355523934E-13;
6,20704358739394E-13;
8,19877910519463E-13;
-5,39240702834099E-14;
1,20083301741129E-13;
4,50084191573232E-13;
-3,37273643537534E-13;
6,13752633562981E-13;
1,36206257274598E-12;
3,3850266650255E-13;
8,22066102914295E-14;
3,57925378224082E-13;
2,75249617175024E-13;
8,39990866582783E-14;
4,12688093638831E-13;
1,12431699680075E-12;
2,14131309045313E-13;
-6,45402069178534E-13;
1,28432436949751E-13;
-4,70637742442388E-14;
-3,88092817736314E-13;
3,94381716819512E-14;
4,1110367951905E-13;
1,0102503088313E-12;
6,9726278190676E-13;
1,52591813371044E-14;
2,24497709571771E-14;
3,82898132691813E-13;
6,33101807436514E-13;
7,47872488362218E-13;
1,11779651233045E-12;
5,23685339613277E-13;
-2,6997857260632E-14;
3,11109974174252E-13;
8,58564044169755E-13;
1,21050256644318E-12;
7,43834666263276E-13;
3,54959852617667E-13;
2,28663274195119E-13;
2,60950840968592E-13;
3,76922637324947E-13;
6,78294936062541E-13;
1,41631830828534E-13;
-2,58640865052468E-13;
1,06230541872527E-12;
3,15634506839103E-13;
-9,37920144570853E-13;
2,40568537412962E-13;
4,49260550756938E-13;
-3,47695753077495E-15;
4,33204478943977E-13;
8,09179835229456E-13;
9,06016037683191E-13;
6,00670217812372E-13;
7,31767385607116E-13;
9,03476070844208E-13;
3,72491410416358E-13;
8,25838993132525E-13;
1,07180361439626E-12;
-1,7298685209463E-13;
-1,95988638029005E-13;
4,7835915921762E-13;
-1,6426307444215E-13;
7,68499060601779E-14;
7,01231875742288E-13;
3,82175702226503E-13;
4,69609744083277E-13;
1,60710837742757E-15;
-2,07449081140245E-13;
4,49600328824618E-13;
6,73704306713165E-13;
3,59772405986777E-13;
-3,22088008139858E-13;
2,03202842418281E-13;
1,24193740956547E-12;
4,04582357393244E-13;
-3,76541421367166E-13;
6,86036644641086E-13;
1,27464078917803E-13;
-7,44231077642429E-13;
6,00115446082704E-13;
1,35172340101794E-13;
-7,80359603688079E-13;
-6,14692572710683E-14;
6,49030497089213E-13;
6,4926858605674E-13;
7,61512532270879E-14;
5,70722114430865E-13;
5,0638840366352E-13;
-1,7274606786346E-13;
-1,3334957506985E-13;
1,376152191773E-13;
1,13020290419615E-12;
1,05514933082309E-12;
5,90065213063857E-13;
8,98452177188951E-13;
5,28440009247033E-13;
5,412450129801E-13;
3,80533171953094E-13;
-1,57481642035102E-13;
3,73693351444124E-13;
2,40699958285445E-13;
-1,53146276938432E-13;
3,75460559690705E-13;
7,35565565542214E-13;
7,4481659447911E-13;
2,65201980802045E-13;
4,6875043376037E-13;
6,13719847958219E-13;
7,7219983582782E-14;
3,60821021502086E-13;
2,84244315549467E-13;
3,19108439611733E-13;
2,52677730617924E-13;
-3,92692347527298E-14;
8,83519387518943E-14;
-5,90834860355873E-13;
-5,88242066000785E-14;
6,72405012754383E-13;
1,00958621311841E-13;
-1,90843811256152E-13;
-1,83461573003536E-13;
3,57786053189766E-13;
1,89303031534062E-13;
5,68706592218865E-13;
1,42097290954023E-12;
4,32095789016748E-13;
4,93355344450379E-13;
1,27558590591787E-12;
5,3767890391316E-13;
5,3918116843261E-13;
1,08210127564604E-12;
5,59034336479536E-14;
-5,16019686660406E-13;
4,74568927926442E-13;
5,31060504427737E-13;
-1,97207387211781E-13;
1,51881088199418E-13;
6,51190025519497E-13;
4,73652677769409E-13;
7,25945706721585E-13;
5,20260250944944E-13;
1,59875570293062E-14;
8,1938084811323E-13;
8,89108080641003E-13;
8,78446674443246E-13;
1,15714716303195E-12;
-1,71250791259696E-13;
2,45529749815344E-13;
1,08393131027716E-12;
-3,52450813677709E-13;
-1,85383495692674E-14;
1,07935748090758E-12;
8,6674800004945E-13;
8,87412079431611E-13;
-8,38916958695903E-14;
-3,05303862673529E-13;
7,90360153549397E-13;
5,35599916870225E-13;
7,52296363121445E-13;
6,69949962004163E-13;
2,90066256875922E-13;
8,04749184208419E-13;
4,66819647213365E-13;
1,75616734319043E-13;
-8,59652576534181E-14;
-3,66784903305826E-16;
3,76179132990981E-13;
1,8487545118847E-13;
1,38117405955409E-13;
1,20466891378662E-13;
9,34916702387611E-13;
1,13486897359756E-12;
6,09537794902258E-13;
1,12651179486548E-12;
4,3279777369027E-13;
-8,70926283670538E-14;
5,34900970868198E-13;
1,8628097688944E-13;
3,89883864070737E-13;
5,00397962484255E-13;
4,57973796327248E-13;
1,19079910629715E-12;
4,30203841841215E-13;
1,63752316206728E-13;
7,3964025240575E-13;
-1,38825806268414E-13;
4,26162718719605E-13;
1,00437162497866E-12;
-8,66002446251232E-14;
1,2873267077108E-13;
5,45803470851099E-13;
3,70489225611929E-13;
7,1321116373674E-13;
1,09087003480636E-12;
9,86932866386007E-13;
5,91830212646795E-13;
1,03712668286432E-14;
3,11977939088812E-13;
1,01933606405312E-12;
1,88123447196174E-13;
-2,15488243333505E-13;
6,51832798400603E-13;
9,86410972152489E-13;
6,28577162959603E-13;
-1,52997036920479E-14;
-2,83397154828439E-14;
2,43908880363621E-13;
-2,55563933627422E-13;
-1,00571297804496E-13;
7,76714281964739E-13;
5,13759051873375E-13;
-1,90229985127876E-13;
9,31763578585811E-14;
4,49981446662689E-13;
4,41059193634057E-13;
5,23518200116065E-13;
4,06243287404391E-13;
1,28373667237794E-12;
2,06003856587463E-12;
1,21467271147617E-12;
3,62363873465041E-13;
-4,58578592555549E-13;
7,7544766112411E-14;
9,93803917662448E-13;
4,78531963746039E-13;
5,4439797596201E-13;
5,76208536023488E-13;
4,19834503419415E-13;
2,71491378956406E-13;
2,54409465977606E-13;
-1,47398845062425E-13;
-1,03226910315469E-12;
3,73932006995028E-13;
1,00806851510126E-12;
1,60380640699195E-13;
8,84369201827965E-13;
6,45735639582881E-13;
-1,09380394553274E-13;
4,68242227131624E-13;
1,01020277341657E-12;
5,49607479292793E-13;
-3,0742573782356E-13;
9,44949861210813E-14;
5,4567110912515E-13;
6,93372525515729E-14;
2,6173967898664E-13;
5,38403983047009E-13;
7,6542070117598E-13;
5,71317168605075E-13;
-1,16608796668038E-13;
6,68533255599962E-13;
9,31593554383154E-13;
1,54508363416727E-13;
-5,57729830993572E-14;
1,66221658288091E-13;
4,78285393828012E-13;
5,0804636523767E-13;
1,11115443549002E-12;
4,78966414591182E-13;
-2,84498900361464E-13;
2,90556301827675E-13;
1,81327306615824E-13;
4,6236968931745E-13;
-3,27042495683452E-13;
-9,27935315259385E-13;
8,02831979131278E-13;
1,19254107379823E-12;
6,60342261174366E-13;
6,92816936177327E-13;
3,56718813370461E-13;
3,9259432137141E-13;
6,89268254427892E-13;
2,14129908443358E-13;
7,93719179788668E-15;
3,411959582607E-13;
5,60481072238665E-13;
3,91614807241406E-13;
-9,28275419804363E-14;
2,94085215754664E-13;
7,1538350482112E-14;
1,44289452252684E-13;
8,27146961850792E-13;
1,80800254400137E-14;
6,49670212141638E-13;
7,28173687321657E-13;
-5,75438921829644E-13;
-4,472434423593E-15;
8,50138158343744E-14;
3,84312287688061E-13;
1,23812942590374E-12;
5,92696411665745E-13;
3,57876021337451E-13;
4,67884613179475E-13;
3,84042113093408E-13;
5,68750912793575E-13;
1,06549372060269E-13;
2,26459843434467E-13;
1,4706923929534E-13;
1,65085232610665E-13;
1,55681681461951E-12;
9,9873008210803E-13;
9,306395428027E-14;
3,58310018479744E-14;
-6,52778547277583E-14;
6,47859227541845E-13;
2,4320771996837E-13;
3,05500536404166E-13;
9,33897510883109E-13;
2,20166391331911E-13;
4,94273194039838E-13;
6,80106450451178E-13;
5,56579473207201E-14;
8,7566842969068E-13;
6,78982574287925E-13;
-1,49005112956045E-13;
5,38462634661769E-13;
1,51036350120062E-13;
2,65453754846019E-13;
1,03614280922957E-12;
8,51654004878259E-13;
5,67528789207631E-13;
-1,33386242256367E-13;
4,81497674389234E-13;
5,64439811008001E-13;
5,03798748963911E-14;
1,18381510292619E-12;
7,54898442559104E-13;
-2,85216207613992E-14;
4,67804601278201E-13;
2,98263195781709E-13;
2,39729344441598E-13;
6,36527435821129E-13;
5,72734527773648E-13;
4,57055724828551E-13;
5,47432810318888E-13;
1,92398424908753E-13;
1,13234453475638E-13;
4,84362820625799E-13;
8,46696317045352E-13;
1,08974569914319E-12;
5,16610667787601E-13;
4,03093090884328E-13;
2,55219520150666E-13;
3,31804106896792E-14;
1,0000070873527E-12;
9,40628574024448E-13;
5,21614178341417E-13;
8,15693390980632E-13;
4,04152899216054E-13;
3,72842590263626E-13;
7,54308722374438E-13;
5,23029169264767E-13;
4,22257638816437E-13;
4,34492199047002E-13;
4,54275082073315E-13;
2,83738560717188E-13;
2,47058845143603E-14;
5,89519732236772E-14;
5,32201214897455E-13;
7,63739638895422E-13;
-5,74091644142835E-14;
3,43817555901551E-13;
4,22204267663079E-13;
-7,07647062207598E-13;
2,42528810382844E-13;
3,14110850515071E-13;
-5,55742892065153E-13;
3,35808762811812E-13;
3,81859225974094E-13;
4,35881451926063E-14;
8,1958771553028E-13;
9,73061795201332E-13;
8,73044027848015E-14;
-1,08461064890248E-13;
4,14142236023637E-13;
1,32027605288745E-13;
-2,98244307530057E-14;
9,54104354937084E-13;
9,40884770346563E-13;
-7,47087678911879E-14;
2,14519189117715E-13;
5,93483501537521E-13;
5,02473222388051E-13;
4,98643692657325E-13;
3,37847155963066E-13;
-1,54663685216764E-15;
-1,02093622728012E-13;
4,35023229964792E-13;
1,27784682364949E-13;
1,3450602017176E-13;
7,83320959494332E-13;
4,58896826977206E-13;
2,30545192191055E-13;
-1,39335837939935E-13;
-2,94230665452149E-13;
5,36222400275792E-13;
8,68407446810678E-13;
6,92837490027783E-13;
3,84389287021103E-13;
-9,90422471762841E-14;
7,09683179950635E-13;
1,28540262536172E-12;
5,06413964090957E-13;
3,21020958286238E-13;
6,01121013022498E-14;
3,4917816771683E-13;
9,79132184191349E-13;
8,65311886603385E-13;
1,03670281433776E-12;
3,4657478620014E-13;
1,03673767450332E-13;
1,05214197622638E-12;
7,07813611106514E-13;
3,27525385192964E-13;
5,85894871268447E-13;
2,27312292190264E-13;
8,07233885455593E-15;
-1,00553739151266E-13;
-1,73843154688724E-13;
-9,24204124970841E-14;
-7,07397708378829E-14;
5,15375614985786E-13;
5,42789987663158E-13;
-1,29824648139828E-13;
3,81665600976642E-13;
7,38313565467183E-13;
-4,4814529722466E-14;
3,33189480310158E-13;
1,21544445578062E-12;
1,02731344005483E-12;
7,30550719210465E-13;
1,10095553196517E-13;
-2,89680019823961E-14;
7,62702412870441E-13;
3,61229454822564E-13;
-4,77842280331019E-13;
-3,32851657113062E-14;
1,0077607259801E-12;
6,81549158001941E-13;
-3,39763924897519E-13;
-2,9601503741273E-13;
-1,20393723148359E-13;
7,62635764000578E-13;
9,64823205021288E-13;
1,60130357323787E-14;
6,50529710763651E-13;
1,17858934335842E-12;
6,19160186333504E-13;
8,14191870231532E-15;
-2,37197284780202E-13;
2,23258005591268E-14;
-4,20155221607086E-13;
-3,56580135988921E-13;
7,48277455513049E-13;
5,8168623438452E-13;
1,37568312454854E-13;
4,10543128146434E-13;
3,25706151945372E-13;
5,90660904509645E-13;
1,24597926552903E-12;
6,69363017371928E-13;
1,74465796382289E-13;
7,86867986862917E-13;
6,63180930589551E-13;
4,35724300804502E-13;
1,05326593217098E-14;
-1,602088379876E-14;
9,84104440356461E-13;
6,30503695998838E-13;
5,94708358300387E-14;
5,28467117397987E-13;
3,73775866658766E-13;
-3,13392180527053E-13;
5,82400157648097E-13;
6,46696759147949E-13;
-4,25216350687173E-13;
3,72941482894295E-13;
7,10757762700455E-14;
-2,63897665307704E-13;
1,48009447750966E-13;
2,04085649723468E-13;
9,88879613814772E-13;
4,6209168029158E-13;
1,90278751246614E-13;
4,16721455477634E-13;
1,82357784456202E-13;
4,27780975257942E-13;
1,20552463750821E-13;
-1,7859355588004E-13;
3,29531411627136E-13;
7,69301213021956E-13;
6,63540559204298E-13;
7,088287605729E-13;
1,60419626906785E-13;
3,40797444143407E-13;
1,02288483271098E-12;
2,55117995820903E-13;
1,10435428393859E-12;
1,55647566027952E-12;
-1,25709382826967E-13;
-3,58476017737631E-14;
3,7244265026946E-13;
-7,56087769924827E-14;
3,51959215790783E-13;
8,78025324689919E-13;
8,60919942113672E-13;
3,08724702509916E-13;
9,43861805429827E-14;
6,94336443082136E-13;
7,21181057790734E-13;
3,51752488827377E-13;
1,31240012285138E-13;
5,60465849136218E-14;
2,67556345816613E-13;
4,69453049407756E-13;
7,58631682888681E-13;
8,45685298624905E-13;
7,70702195202513E-13;
5,70054575778869E-13;
6,65815993749187E-13;
1,0150273418698E-12;
7,23031868373362E-13;
9,04037082139075E-13;
9,35807652833589E-13;
1,22406743765272E-13;
3,01586862623803E-13;
6,83076329484828E-13;
1,24599298537959E-13;
-1,25593663798863E-14;
-1,5190775307143E-16;
-1,67620478965895E-13;
3,81690089739058E-14;
2,75583067187042E-13;
1,14833634620477E-12;
1,13408303701367E-12;
-2,22483954958654E-13;
-2,74789337712646E-13;
2,08853274160637E-13;
2,88403911449142E-13;
6,21439852430435E-13;
3,17447037352121E-13;
-8,58424558171277E-14;
9,26753036231984E-14;
-2,43326621391046E-14;
3,93342337015357E-13;
8,43682369237937E-13;
1,17060458649306E-13;
-2,82679986224783E-13;
7,31527714931234E-13;
1,35147360839708E-12;
5,62265753324452E-13;
3,69694162893832E-13;
2,85918683669178E-13;
-2,84236237822084E-13;
4,29028508790746E-13;
3,30180163581075E-13;
-5,66816329776204E-13;
9,20743506005423E-13;
1,22506411959844E-12;
-8,64504323432911E-15;
3,76128784392427E-14;
-2,04116945703738E-13;
2,67656802510016E-13;
6,28465383664283E-13;
1,11741663780743E-12;
1,58948942604308E-12;
-9,2570257752155E-14;
-2,28458515361833E-13;
6,11307179346325E-13;
1,77806676273967E-13;
-1,08829482693893E-13;
2,66366326191729E-13;
3,12577764950989E-13;
-1,39549273841582E-13;
5,57878011357939E-13;
5,61440261257743E-13;
7,24346584922642E-13;
1,39385252134233E-12;
8,9709058366328E-14;
-1,51793090355758E-13;
0,00933343404726792;
0,0226297298270949;
0,0163727372776341;
0,00943309617744717;
0,0121693917859767;
0,00702616733192449;
0,00563481713013393;
0,00458271005322012;
0,000840500090278015;
0,00103239237265475;
-0,0105238735408097;
-0,024621682482651;
-0,0191798742115199;
-0,0139867774967959;
-0,017056716784779;
-0,0128820680391101;
-0,0115760344016266;
-0,0107651983755901;
-0,00783407675848881;
-0,0089530959187845;
-0,00815844849823362;
-0,00825093605353592;
-0,00771136245916257;
-0,00555484182296432;
-0,00432033966625509;
-0,00257439609246409;
-0,00188921689518368;
-0,00127498317464801;
-5,44766102189274E-5;
0,00150202647914512;
0,00367343436136357;
0,00528440143917012;
0,00606541798005464;
0,00601775573126971;
0,00554383879858215;
0,0054037293645331;
0,00560220162463475;
0,00588464242379437;
0,00568697681957411;
0,00475343149495831;
0,0034497282107109;
0,00237142549993099;
0,00204631909365374;
0,00243358269654757;
0,00303909185352961;
0,00334323713524738;
0,0031918960676825;
0,00294869794229293;
0,00312620820821791;
0,00394370750639088;
0,00509943725890398;
0,0059652708256193;
0,00607170459663621;
0,00544161030740747;
0,00454948165190432;
0,00391677836589684;
0,00369043962537369;
0,00355326061740381;
0,00302026436776351;
0,00188359397679195;
0,000424682280192349;
-0,000777004115261317;
-0,00128089551553248;
-0,00111309111982937;
-0,000715577005986382;
-0,00056805250359701;
-0,000795334879959407;
-0,00108318483762022;
-0,0009680910924815;
-0,000255867034300837;
0,000777995191185491;
0,00157341502028628;
0,00170510140428371;
0,00119460404036697;
0,000464780144597949;
-1,98762009741747E-5;
-0,000127884505472635;
-0,000144688389452292;
-0,000503356084506239;
-0,00139063403446854;
-0,00255682493413174;
-0,00348653117421469;
-0,00378922665542963;
-0,00348944217578453;
-0,00298191576444616;
-0,00269408697410141;
-0,00273712849044774;
-0,00283207276872433;
-0,00256764428961218;
-0,00177261900287495;
-0,000693028455241661;
0,000172826099246201;
0,000446853947852227;
0,000147880411814828;
-0,000349393194802006;
-0,000633513576912127;
-0,000588202768598232;
-0,000466323085899274;
-0,000651184983869335;
-0,00130811678561233;
-0,00221671835921215;
-0,00292218883792036;
-0,00308039266522793;
-0,0027136398640507;
-0,00217048876478477;
-0,00182767437069854;
-0,00178265664416726;
-0,00178917321107345;
-0,00148495947162132;
-0,00071969847289962;
0,000289509080997666;
0,00110395739584032;
0,00139122319045032;
0,00116818439613114;
0,000764448596073553;
0,0005417181274663;
0,000602449412339375;
0,000725280683924699;
0,00057461593483609;
5,94852743110268E-6;
-0,000787565886609798;
-0,00140797617350599;
-0,00155451911714934;
-0,00124691429533191;
-0,000789641824237623;
-0,000511203428640438;
-0,000495861532662391;
-0,000528007628034164;
-0,000291378647760353;
0,000344911950705233;
0,00119133637212192;
0,00186560205442219;
0,00207846855265242;
0,00184505924786853;
0,00145256860083104;
0,00121590836266982;
0,00122455357129972;
0,00128676064065554;
0,00111175037388292;
0,000574534010437874;
-0,000157351274838207;
-0,000739327624192227;
-0,000911327002806568;
-0,000690667144757324;
-0,000340596938611236;
-0,00014458095688358;
-0,000174720824531157;
-0,000244301379165658;
-8,02612400240429E-5;
0,000430002271127067;
0,00112264781724684;
0,00166798582163055;
0,00181694524211458;
0,00158279252953629;
0,00121289384949936;
0,000978269255812251;
0,000956064669014189;
0,000981931576353688;
0,000806635913973275;
0,000323155272982049;
-0,000325019996231521;
-0,000843147832963983;
-0,00100915525108993;
-0,000838263590145067;
-0,00055556433501525;
-0,000402887006827789;
-0,000441274133588061;
-0,000511055646049807;
-0,000379433923060319;
4,91162001262975E-5;
0,000634485659126559;
0,00109564949289915;
0,00122062939902483;
0,00102081521954567;
0,000706533163471483;
0,000508029350425941;
0,000490909304558623;
0,000516036229224235;
0,000372465373819219;
-3,0325521356421E-5;
-0,000571131082407545;
-0,00100126099697079;
-0,00113372253024783;
-0,000981817722810853;
-0,000735491412908017;
-0,000598268472795609;
-0,000621091037474249;
-0,000669270979020328;
-0,000547108295000201;
-0,000174774333521487;
0,000329500231099524;
0,000729481695955218;
0,000847301457343438;
0,000692611894912522;
0,000441694765448719;
0,00028734355516999;
0,000284568782413341;
0,000317369193735434;
0,000209924937621143;
-0,000113139437370271;
-0,000550997796242544;
-0,000897075071554252;
-0,000996414599666651;
-0,000860483051984144;
-0,000647018391174223;
-0,00052449654540401;
-0,000534625368906698;
-0,000565533149358069;
-0,0004553597929332;
-0,000138525212068911;
0,000286810528558912;
0,000625372291263618;
0,000730465245722704;
0,000610196099435924;
0,000409846359994622;
0,000288116592476398;
0,000290399042529726;
0,000321783430941442;
0,000238442751703445;
-2,11821122551894E-5;
-0,000374737423881786;
-0,0006538479238847;
-0,000732575922541058;
-0,000620648289256438;
-0,00044652420605756;
-0,000346866262633601;
-0,0003550124007947;
-0,000379773968695352;
-0,000289927940652947;
-3,2741834009723E-5;
0,000311872042595807;
0,000585776320813864;
0,000670520750454418;
0,000572827104073075;
0,000409948445253286;
0,000309770004637415;
0,000308992342916676;
0,000331748610597382;
0,000263089169642098;
5,39266448253349E-5;
-0,000230026351254874;
-0,000454798282957012;
-0,00052056088959171;
-0,000435442803540704;
-0,000301534693102273;
-0,000226888848216958;
-0,000237351501273383;
-0,000260365803280417;
-0,000192255946920283;
8,18695481511963E-6;
0,000277474960109535;
0,000490841404099957;
0,000555190637555223;
0,000475985878109584;
0,000345316841341914;
0,000263414659578708;
0,00025916185393413;
0,000273719323757915;
0,000217965031905206;
5,39551234780881E-5;
-0,000167486580493079;
-0,000343138088735575;
-0,000396488254531006;
-0,000334228951995934;
-0,000234917772223264;
-0,000181107302554482;
-0,00019200922642671;
-0,000211724598860913;
-0,000161152131336715;
-9,34302796557829E-6;
0,000194865323781598;
0,000356433281173269;
0,000404828501363524;
0,000344375751463316;
0,000244760390106385;
0,000181602525136552;
0,000176808433766043;
0,000186631835597647;
0,000144852159861298;
2,33978700890497E-5;
-0,000140111299137541;
-0,00026969676180081;
-0,000309487363581097;
-0,000264891226616214;
-0,000193642609434557;
-0,000155761493671677;
-0,000164631906376099;
-0,000179112662907391;
-0,000141826427634652;
-3,0871715148317E-5;
0,000117875218013434;
0,000235630144482147;
0,000271770669752511;
0,000229610152617369;
0,000159072959580892;
0,000114080705451431;
0,000110377895119961;
0,000117482202475362;
8,93035738571612E-5;
6,44600084115778E-6;
-0,000105063718981869;
-0,000193152208300822;
-0,000220040332578606;
-0,000189990973627274;
-0,000142476210224885;
-0,000117784320811957;
-0,000124222573801627;
-0,000133595099143867;
-0,00010754047517683;
-3,20514217097371E-5;
6,83621824114553E-5;
0,000147892917504487;
0,000173326724851037;
0,000147093838707517;
0,000101862842024609;
7,26145082330465E-5;
6,97075590047465E-5;
7,42056932141843E-5;
5,75435399504503E-5;
7,87809666015591E-6;
-5,88361141768872E-5;
-0,000111287279561804;
-0,000127391028572011;
-0,000110395319462216;
-8,39159890378359E-5;
-7,11374230399478E-5;
-7,59900507184933E-5;
-8,15172727500707E-5;
-6,58306977239336E-5;
-2,17373919670235E-5;
3,61200395799853E-5;
8,18345368468086E-5;
9,72550268333215E-5;
8,40491830931335E-5;
5,99763999101228E-5;
4,36582910410662E-5;
4,07941609100728E-5;
4,23874152781568E-5;
3,49613736466392E-5;
1,31759676365509E-5;
-1,5669336108026E-5;
-3,80943289186158E-5;
-4,54779452620909E-5;
-4,01794630093706E-5;
-3,22042270594937E-5;
-3,00820750823395E-5;
-3,40179888892349E-5;
-3,67063033038876E-5;
-3,03673780064824E-5;
-1,36229218358241E-5;
7,35136962103609E-6;
2,36831735542554E-5;
3,01009932618004E-5;
2,76196936436499E-5;
2,12671358804535E-5;
1,57009904155736E-5;
1,26339343103779E-5;
1,15181144020074E-5;
1,17057827916529E-5;
1,33845214288382E-5;
1,65080761593302E-5;
1,94333462053247E-5;
1,93783993897535E-5;
1,4751782175182E-5;
7,07972742969504E-6;
2,22712747582104E-7;
-2,89973087151869E-6;
-3,16543160223145E-6;
-4,72206328397715E-6;
-1,10867506511841E-5;
-2,12645628105433E-5;
-2,97396290983979E-5;
-3,09190201340508E-5;
-2,43403582128698E-5;
-1,57012300711138E-5;
-1,21018825967948E-5;
-1,51963407393887E-5;
-1,84548337722546E-5;
-1,17740655200318E-5;
9,6642731887205E-6;
3,96700150058173E-5;
6,39621569710519E-5;
7,02449983894925E-5;
5,75823469715831E-5;
3,71247780194331E-5;
2,30484044034675E-5;
2,08490277864915E-5;
2,28121228690574E-5;
1,48613879452488E-5;
-1,05752658173378E-5;
-4,65208820762211E-5;
-7,54946147086234E-5;
-8,28827573373817E-5;
-6,86830414742426E-5;
-4,74836210568068E-5;
-3,61254325818898E-5;
-3,90610352796611E-5;
-4,39326140289981E-5;
-3,1780187874586E-5;
6,0280296801521E-6;
5,82534303508269E-5;
0,000100241093038613;
0,00011190136870537;
9,28504013195635E-5;
6,21281282100518E-5;
4,23410790761006E-5;
4,10657801258709E-5;
4,49779702750804E-5;
3,18901412098212E-5;
-9,06179643749146E-6;
-6,59995923995919E-5;
-0,000111678296420558;
-0,000124136654798078;
-0,000103748003714447;
-7,23259422937094E-5;
-5,46219462697629E-5;
-5,73703551554269E-5;
-6,35150381621577E-5;
-4,69527272177017E-5;
4,02293164964649E-6;
7,41153150625005E-5;
0,000130341312761382;
0,000146370342597909;
0,000122277401582466;
8,34258698101107E-5;
5,9153020479077E-5;
5,86714538921106E-5;
6,41556579040212E-5;
4,69459815739796E-5;
-6,42693307599637E-6;
-8,01587455736301E-5;
-0,000139223767545609;
-0,000155820133503568;
-0,000130620692588786;
-9,11661048457906E-5;
-6,84718264707627E-5;
-7,1088196787434E-5;
-7,82742944454315E-5;
-5,83212459110817E-5;
2,88865383765577E-6;
8,68883718132771E-5;
0,000154199562162736;
0,000173641235156458;
0,000145662613375107;
0,000100548371717273;
7,28462970714904E-5;
7,30089458275153E-5;
7,97024037811722E-5;
5,92605348740697E-5;
-3,77863404883895E-6;
-9,05577421602394E-5;
-0,000160043370720762;
-0,000179939401164346;
-0,00015115067207947;
-0,000105608155769667;
-7,91224964487064E-5;
-8,16439030300024E-5;
-8,96485164103273E-5;
-6,71904552032894E-5;
1,66879739045252E-6;
9,60802565752254E-5;
0,000171698500344469;
0,000193726418180453;
0,000162911426383932;
0,000113214627654407;
8,30461729533106E-5;
8,37487187866948E-5;
9,13615469391767E-5;
6,85113130939929E-5;
-1,71476416143768E-6;
-9,81812451209653E-5;
-0,000175418261541712;
-0,000197827959692684;
-0,000166487850007073;
-0,000116537105702411;
-8,72827941236923E-5;
-8,9706353496008E-5;
-9,8296216474368E-5;
-7,40767236413281E-5;
1,90340698954464E-7;
0,00010196815923682;
0,000183477527813593;
0,00020739101530689;
0,000174686651313131;
0,000121906936389623;
9,01399069823704E-5;
9,13123472373299E-5;
9,96125706485277E-5;
7,51013958787903E-5;
-1,09925402416218E-7;
-0,000103289299403273;
-0,000185909958871675;
-0,000210118716693455;
-0,000177114081271631;
-0,000124207762797304;
-9,30654577726745E-5;
-9,53761338472696E-5;
-0,000104334853441717;
-7,89907345422082E-5;
-1,26123527680595E-6;
0,000105234199266997;
0,000190532134281641;
0,00021572078088879;
0,000181949417417509;
0,000127388285878496;
9,47730807334597E-5;
9,63499739763847E-5;
0,00010513248464276;
7,96083788025236E-5;
1,3249586927153E-6;
-0,000105982200226804;
-0,000191928478861491;
-0,000217314277428254;
-0,0001834145471822;
-0,000128815416328716;
-9,65545683346598E-5;
-9,87470433919162E-5;
-0,000107894330374433;
-8,19818009384209E-5;
-2,47633610667757E-6;
0,000106442021093223;
0,000193703313918676;
0,000219626636094073;
0,000185480916223275;
0,000130242667838094;
9,74090250134397E-5;
9,93191480603717E-5;
0,000108394718459424;
8,24044843281924E-5;
2,68529329077255E-6;
-0,000106534528760448;
-0,000194043130674039;
-0,000220075224474618;
-0,00018594431674842;
-0,000130740992653993;
-9,80291175538623E-5;
-0,000100107802020738;
-0,000109296953145816;
-8,32967662618728E-5;
-3,46005704320853E-6;
0,00010591734589451;
0,000193577185935553;
0,000219763453738759;
0,000185820366527346;
0,00013083172032229;
9,8303208802192E-5;
0,000100475913431004;
0,00010967612311198;
8,36790826283134E-5;
3,9105455490917E-6;
-0,000105342770629452;
-0,000192916545178963;
-0,00021914196996811;
-0,000185339383364207;
-0,000130452341489973;
-9,78552384565488E-5;
-9,9825800724851E-5;
-0,000108933487313565;
-8,3249388790486E-5;
-4,29601509970628E-6;
0,000103888718984175;
0,000190629677469344;
0,000216678221471726;
0,000183416166565661;
0,00012944824856242;
9,76583214391837E-5;
0,000100030620984779;
0,000109212897041354;
8,35943060372928E-5;
4,93920401579975E-6;
-0,000102771440387157;
-0,000189152492621518;
-0,000215184988966756;
-0,000182170009913589;
-0,000128361192900796;
-9,63471239081364E-5;
-9,82122665559753E-5;
-0,000107132826527162;
-8,20948392351587E-5;
-5,02601436653357E-6;
0,000100602428854893;
0,000185335848698843;
0,000210913652557876;
0,000178723704853571;
0,000126408092974871;
9,57100901259645E-5;
9,82276856811954E-5;
0,00010727426390326;
8,2352681177546E-5;
5,77042567551164E-6;
-9,90973938901484E-5;
-0,000183246087540085;
-0,000208760799485767;
-0,000176902350705815;
-0,00012479031767958;
-9,37396315460303E-5;
-9,55001993525521E-5;
-0,000104145105858883;
-8,00177208933588E-5;
-5,6426323802946E-6;
9,6325614402851E-5;
0,000178168820716569;
0,000203002961068203;
0,000172195983696601;
0,00012203676652422;
9,27102433602091E-5;
9,53252033825856E-5;
0,000104139057621031;
8,01708239590802E-5;
6,43487651679613E-6;
-9,45416872358182E-5;
-0,000175618035016354;
-0,000200348135030185;
-0,000169936078111907;
-0,00012001231504289;
-9,02281436329393E-5;
-9,18852683470631E-5;
-0,000100183447411099;
-7,71742580388696E-5;
-6,13137838053325E-6;
9,13044786366209E-5;
0,000169558409530796;
0,000193428687919248;
0,000164242431637124;
0,000116628259569777;
8,88855768402279E-5;
9,15546723477043E-5;
0,000100056277055581;
7,72407390902933E-5;
6,95656149804273E-6;
-8,930731330479E-5;
-0,000166651667204727;
-0,000190383771151273;
-0,000161638530494286;
-0,000114281893332031;
-8,5999115847793E-5;
-8,7554840244931E-5;
-9,54514710799987E-5;
-7,37179794744963E-5;
-6,49407843476299E-6;
8,57434377150042E-5;
0,000159872595199475;
0,000182605977537779;
0,00015521344965949;
0,000110430655474717;
8,44248338275745E-5;
8,71094188791911E-5;
9,52351224698779E-5;
7,37211409276048E-5;
7,34493759643082E-6;
-8,3586578692196E-5;
-0,000156699662449703;
-0,000179268047682584;
-0,000152348534320582;
-0,000107837864329783;
-8,12305256553012E-5;
-8,26872996030958E-5;
-9,01415965623263E-5;
-6,97966983220844E-5;
-6,74408416156819E-6;
7,98119206064188E-5;
0,000149426040416017;
0,000170892064611831;
0,000145410163874912;
0,000103655864927072;
7,94886038418023E-5;
8,21549915036039E-5;
8,98559023603805E-5;
6,9748468041725E-5;
7,60540552368236E-6;
-7,75514887246157E-5;
-0,000146075081748083;
-0,000167355947616144;
-0,000142366905640963;
-0,00010089290900249;
-7,60812308131872E-5;
-7,74414224314685E-5;
-8,44245756439373E-5;
-6,55418314422493E-5;
-6,89476504045657E-6;
7,36569693941379E-5;
0,000138493441160593;
0,000158599614713957;
0,00013509700911246;
9,64911786516787E-5;
7,42200872311708E-5;
7,6839537798936E-5;
8,40801212936268E-5;
6,5446239777327E-5;
7,74729341779205E-6;
-7,13474840761141E-5;
-0,000135046558658836;
-0,000154952962086358;
-0,000131952270424637;
-9,36290986200945E-5;
-7,06864882758735E-5;
-7,19523582891025E-5;
-7,84460002552516E-5;
-6,10649833015487E-5;
-6,95550805571573E-6;
6,74081953067012E-5;
0,000127315157668177;
0,000146002213967439;
0,000124506284803494;
8,91026287370416E-5;
6,87475887182479E-5;
7,12959140166647E-5;
7,80523076870733E-5;
6,09261717758892E-5;
7,78358680007724E-6;
-6,50954441919576E-5;
-0,00012384170437774;
-0,00014231904819363;
-0,000121324753102627;
-8,6201051682856E-5;
-6,51608688358871E-5;
-6,63347465522493E-5;
-7,23297134050225E-5;
-5,64611511393822E-5;
-6,93397885050957E-6;
6,11768541804324E-5;
0,00011609731220788;
0,000133334642454522;
0,00011383779339376;
8,16337257628215E-5;
6,31826942431448E-5;
6,56398009399135E-5;
7,18981914476402E-5;
5,62859533541461E-5;
7,72758623327243E-6;
-5,88965167758179E-5;
-0,00011265307875591;
-0,000129674873217268;
-0,000110671648022212;
-7,87407118450402E-5;
-5,96024806464992E-5;
-6,06868830159943E-5;
-6,61819929348047E-5;
-5,1812446006587E-5;
-6,83862172905018E-6;
5,50549751735046E-5;
0,000105012201304561;
0,00012079369091561;
0,000103259231034831;
7,42051352631999E-5;
5,76195458670824E-5;
5,99690852694268E-5;
6,57242967304672E-5;
5,16085603175489E-5;
7,59121449681495E-6;
-5,28352163853879E-5;
-0,000101642374572148;
-0,000117206176015555;
-0,000100151103018997;
-7,13601000860141E-5;
-5,40951040574286E-5;
-5,50927244760288E-5;
-6,00935512163529E-5;
-4,71895741848543E-5;
-6,67888724601854E-6;
4,91167543404118E-5;
9,42010024615452E-5;
0,000108541285747036;
9,2908840175476E-5;
6,69165737551829E-5;
5,2136325699341E-5;
5,43654174546499E-5;
5,96196790571281E-5;
4,69636720966195E-5;
7,38533062701354E-6;
-4,69805967864308E-5;
-9,09427221774206E-5;
-0,00010506634157916;
-8,9894113229202E-5;
-6,41524205227585E-5;
-4,87087582489796E-5;
-4,96224294381941E-5;
-5,41401470376046E-5;
-4,26520427882181E-5;
-6,46428038910474E-6;
4,34210687328031E-5;
8,3777486659693E-5;
9,67085111653452E-5;
8,28989120987247E-5;
5,98494872032706E-5;
4,67974268343312E-5;
4,88963768038789E-5;
5,36581728329463E-5;
4,24095125782798E-5;
7,12044001343688E-6;
-4,13870834332352E-5;
-8,06607538990858E-5;
-9,33788048872444E-5;
-8,00064175607292E-5;
-5,71931623038594E-5;
-4,35003303861448E-5;
-4,43330111710521E-5;
-4,83833611931892E-5;
-3,82485802567365E-5;
-6,20370510835076E-6;
3,80135984998727E-5;
7,38312942132932E-5;
8,53991689947309E-5;
7,33187837501791E-5;
5,30692096232459E-5;
4,16551058902138E-5;
4,36170996296409E-5;
4,79000902831884E-5;
3,79941272343454E-5;
6,80681382687452E-6;
-3,60958798609473E-5;
-7,08792043207792E-5;
-8,22399851303714E-5;
-7,05709416112674E-5;
-5,05417795812149E-5;
-3,85147999677236E-5;
-3,9269579974325E-5;
-4,28719727459013E-5;
-3,40181647230576E-5;
-5,90541660779087E-6;
3,29283106583555E-5;
6,4430537950261E-5;
7,46926655612605E-5;
6,42372103940144E-5;
4,66265612616138E-5;
3,67505975869458E-5;
3,85713755072926E-5;
4,2393411150378E-5;
3,37562013232797E-5;
6,45422984199805E-6;
-3,11366838111971E-5;
-6,16597782346647E-5;
-7,172246830285E-5;
-6,16504859545564E-5;
-4,42436128848465E-5;
-3,37867041731829E-5;
-3,44668073016094E-5;
-3,76435053979555E-5;
-2,99912159589995E-5;
-5,57718571296833E-6;
2,81886951482704E-5;
5,56241378394326E-5;
6,46466515421896E-5;
5,57045343691455E-5;
4,05592718417191E-5;
3,21151197681923E-5;
3,37926824408517E-5;
3,71749083265164E-5;
2,97258338291512E-5;
6,07172540989255E-6;
-2,65293067544783E-5;
-5,30458335348105E-5;
-6,18779807920044E-5;
-5,32902435336896E-5;
-3,83316657339587E-5;
-2,93414496665168E-5;
-2,99502280493104E-5;
-3,27256211279794E-5;
-2,61906390402159E-5;
-5,22634618391084E-6;
2,38090559546159E-5;
4,74441725465914E-5;
5,52996581973957E-5;
4,77548877630193E-5;
3,48935105995394E-5;
2,77709901380871E-5;
2,93053163905023E-5;
3,2271387776135E-5;
2,59254544156214E-5;
5,66754391669256E-6;
-2,22850333965662E-5;
-4,50647785695182E-5;
-5,2740056662522E-5;
-4,55199985789949E-5;
-3,28281154994698E-5;
-2,51964182890136E-5;
-2,57373347244738E-5;
-2,81372828355765E-5;
-2,26326740558765E-5;
-4,85971054381618E-6;
1,97958560540652E-5;
3,99082072062694E-5;
4,66737018749922E-5;
4,04083766940336E-5;
2,96454261842696E-5;
2,37327915061654E-5;
2,51255719314033E-5;
2,77009581560549E-5;
2,23707781409961E-5;
5,24917879821631E-6;
-1,84078074573929E-5;
-3,77302210684936E-5;
-4,43264629536989E-5;
-3,83561597052806E-5;
-2,77457014983612E-5;
-2,13619521588283E-5;
-2,18385608802977E-5;
-2,38898341498819E-5;
-1,93276736375715E-5;
-4,48348445727569E-6;
1,61489571976617E-5;
3,30214559340999E-5;
3,87767042532677E-5;
3,36731208673384E-5;
2,48225764373611E-5;
2,00084440922234E-5;
2,12628307549639E-5;
2,34742007369708E-5;
1,90716879882098E-5;
4,82339870928743E-6;
-1,48953651065224E-5;
-3,10440159786578E-5;
-3,6641492717878E-5;
-3,18036717483645E-5;
-2,30890499000314E-5;
-1,78423246131305E-5;
-1,82582510573717E-5;
-1,99880357565041E-5;
-1,62808799872792E-5;
-4,10324361014186E-6;
1,28627373328657E-5;
2,67787476696821E-5;
3,16046896779513E-5;
2,75470892378275E-5;
2,04252190404351E-5;
1,6600175420984E-5;
1,77205430780932E-5;
1,95952279325668E-5;
1,60330188872897E-5;
4,39624568221873E-6;
-1,17402921778473E-5;
-2,49981557732389E-5;
-2,96781067862446E-5;
-2,58578197838074E-5;
-1,88559210335394E-5;
-1,46366578450172E-5;
-1,49955832629878E-5;
-1,6431062158168E-5;
-1,34931638469158E-5;
-3,72394314357043E-6;
9,92706601624942E-6;
2,11662906806387E-5;
2,51437673421525E-5;
2,20197714812301E-5;
1,64474798610765E-5;
1,35053849641126E-5;
1,44971101686449E-5;
1,60626393646546E-5;
1,32552677829695E-5;
3,97302268130459E-6;
-8,93101168365098E-6;
-1,95765333111032E-5;
-2,34199008123127E-5;
-2,05058787135165E-5;
-1,50383780867603E-5;
-1,17397800719876E-5;
-1,2045416706675E-5;
-1,32134194346165E-5;
-1,09617242642151E-5;
-3,34993947651833E-6;
7,32819893369722E-6;
1,61632797971173E-5;
1,93719504507364E-5;
1,70737002920604E-5;
1,28784109485066E-5;
1,0717447192906E-5;
1,15867107710027E-5;
1,28704215737827E-5;
1,07352788605928E-5;
3,55832187859239E-6;
-6,45264806967601E-6;
-1,47565027823661E-5;
-1,78428789186483E-5;
-1,5728606598657E-5;
-1,16238136422476E-5;
-9,14299335728536E-6;
-9,39906269053459E-6;
-1,03257624260263E-5;
-8,68069854645776E-6;
-2,9850036236693E-6;
5,04957353710326E-6;
1,17433515496721E-5;
1,42607971596631E-5;
1,26858345815164E-5;
9,70298076533772E-6;
8,22646228082673E-6;
8,98005929095904E-6;
1,00087647675799E-5;
8,46685401687812E-6;
3,15604297759633E-6;
-4,28779858544551E-6;
-1,05102878951407E-5;
-1,29170449052895E-5;
-1,15015847031264E-5;
-8,59589319348523E-6;
-6,83475471612407E-6;
-7,04496480899548E-6;
-7,75564424610135E-6;
-6,64172942992114E-6;
-2,63233422316388E-6;
3,07253985218425E-6;
7,87588366481527E-6;
9,77687925179042E-6;
8,82880937381786E-6;
6,9029484535414E-6;
6,01991681279017E-6;
6,66509286186893E-6;
7,46481064789132E-6;
6,44132933893044E-6;
2,76944338567734E-6;
-2,41720723321494E-6;
-6,80622528446125E-6;
-8,60780903242108E-6;
-7,79640115099866E-6;
-5,93538517661068E-6;
-4,8012999525771E-6;
-4,96932305394047E-6;
-5,48817912397678E-6;
-4,83446724858615E-6;
-2,2945903216779E-6;
1,37698498093871E-6;
4,52715744791086E-6;
5,88309019197034E-6;
5,4720306458327E-6;
4,45764878415055E-6;
4,08328742109774E-6;
4,62759072755896E-6;
5,22332547834072E-6;
4,64807986109525E-6;
2,40116815085676E-6;
-8,20369420675727E-7;
-3,60986939832955E-6;
-4,87724339831041E-6;
-4,58172382267351E-6;
-3,62090762847621E-6;
-3,02718743516393E-6;
-3,15663912550943E-6;
-3,50663360067139E-6;
-3,24702280813749E-6;
-1,97391216267591E-6;
-5,81236484822732E-8;
1,66134860984147E-6;
2,53978724599942E-6;
2,58264671653861E-6;
2,34467929052073E-6;
2,40056848313466E-6;
2,85171325575837E-6;
3,26728242187162E-6;
3,07497374172355E-6;
2,05330034670207E-6;
5,23962421532966E-7;
-8,84958239263115E-7;
-1,68518584598576E-6;
-1,82421801997822E-6;
-1,62958317910722E-6;
-1,49579605947325E-6;
-1,59021421218543E-6;
-1,79296645190346E-6;
-1,86638302838478E-6;
-1,67196670149275E-6;
-1,25426028818419E-6;
-7,58593600566638E-7;
-2,94226151617662E-7;
1,26389653994799E-7;
5,40501846339358E-7;
9,54734781960228E-7;
1,32048609379853E-6;
1,57838982567264E-6;
1,70878106946577E-6;
1,72739814882082E-6;
1,63732407406063E-6;
1,40576111322156E-6;
1,00981436268179E-6;
5,10637161918543E-7;
6,23930493365475E-8;
-1,89744091510332E-7;
-2,52572304168412E-7;
-3,28280488938541E-7;
-6,78754719519923E-7;
-1,38998165743558E-6;
-2,23296073689652E-6;
-2,77020382565814E-6;
-2,66083506142193E-6;
-1,93170088829919E-6;
-9,7903700973581E-7;
-2,71855331325451E-7;
1,62150004648442E-8;
1,37547277221488E-7;
5,35522174336838E-7;
1,42454206272096E-6;
2,54117065139384E-6;
3,29981543022203E-6;
3,24968098769986E-6;
2,45785975966212E-6;
1,47925716621039E-6;
9,08741050966891E-7;
8,7417549364054E-7;
9,06773185200375E-7;
3,30109728048513E-7;
-1,12878099083648E-6;
-3,01546525007097E-6;
-4,41086779279626E-6;
-4,60190027174736E-6;
-3,62665133406414E-6;
-2,23825586417889E-6;
-1,29710808261985E-6;
-1,07914135797941E-6;
-1,07475851103684E-6;
-4,5921840866512E-7;
1,1453904758079E-6;
3,25656965008484E-6;
4,83441244862817E-6;
5,07611986858128E-6;
4,05237500935217E-6;
2,64526763042972E-6;
1,81751114489918E-6;
1,80800761201736E-6;
1,93165699308104E-6;
1,17465901493943E-6;
-8,88828804909684E-7;
-3,62246898934114E-6;
-5,71729759591472E-6;
-6,15864256953173E-6;
-4,99305212429041E-6;
-3,26127184071987E-6;
-2,13889746279065E-6;
-1,9836720927692E-6;
-2,07811341692232E-6;
-1,29002822028934E-6;
8,90211674110389E-7;
3,8039429486755E-6;
6,04594607026763E-6;
6,53005309853572E-6;
5,32852860399363E-6;
3,58434554598849E-6;
2,55422659041149E-6;
2,56672654973541E-6;
2,7656550812076E-6;
1,86930827737391E-6;
-6,70264993023881E-7;
-4,0738827685513E-6;
-6,72510158606245E-6;
-7,37115697646608E-6;
-6,06460876258725E-6;
-4,07167769077888E-6;
-2,81482333675952E-6;
-2,71524661804627E-6;
-2,89189601341045E-6;
-1,97143362950513E-6;
6,58947345453597E-7;
4,20286462073716E-6;
6,96959027250844E-6;
7,65114565095824E-6;
6,31968108825488E-6;
4,31978995006099E-6;
3,13614504926291E-6;
3,16774440513225E-6;
3,42763176268471E-6;
2,42824487449423E-6;
-4,72943732097808E-7;
-4,38867113082952E-6;
-7,46844042660471E-6;
-8,27799921028628E-6;
-6,87381136204998E-6;
-4,69229604649227E-6;
-3,34199985979011E-6;
-3,29130285197827E-6;
-3,53503411754513E-6;
-2,51771832889226E-6;
4,51239603601214E-7;
4,47191303324135E-6;
7,63898763253303E-6;
8,47743200795791E-6;
7,05788912910131E-6;
4,87404773357471E-6;
3,57993539971437E-6;
3,6278916441572E-6;
3,93583939000737E-6;
2,86527497202573E-6;
-2,96479464797872E-7;
-4,58472175167472E-6;
-7,97976229992502E-6;
-8,915892161701E-6;
-7,45166018090836E-6;
-5,1449712193055E-6;
-3,73689799986578E-6;
-3,72866704237058E-6;
-4,02581441101237E-6;
-2,9427641276859E-6;
2,66486268791293E-7;
4,62854827262368E-6;
8,08600196788815E-6;
9,04503498706359E-6;
7,57364826568166E-6;
5,26852507044794E-6;
3,90154353659151E-6;
3,96328291832737E-6;
4,30775996517083E-6;
3,19369015620747E-6;
-1,40271973649011E-7;
-4,67875098278318E-6;
-8,28960974289338E-6;
-9,31947261210591E-6;
-7,82745539517655E-6;
-5,45042195168539E-6;
-4,0152073855212E-6;
-4,04342062850449E-6;
-4,38173576392582E-6;
-3,2599169403148E-6;
1,03875943249215E-7;
4,68903496449211E-6;
8,34054209275929E-6;
9,3879430010066E-6;
7,89571354694618E-6;
5,52345220547329E-6;
4,11607422121453E-6;
4,18920069128742E-6;
4,55998462049209E-6;
3,42617396984354E-6;
-3,54613157727137E-9;
-4,68624903490804E-6;
-8,42647742560756E-6;
-9,52113903522705E-6;
-8,02865434333892E-6;
-5,6281187750523E-6;
-4,19174818877163E-6;
-4,25078949706042E-6;
-4,61937874679259E-6;
-3,48189756979163E-6;
-3,75736323958138E-8;
4,66839990466389E-6;
8,43044423458584E-6;
9,53786830724947E-6;
8,05095748531583E-6;
5,6577845606722E-6;
4,23772253601574E-6;
4,32001319518088E-6;
4,70811923123552E-6;
3,57471306891024E-6;
1,14613624084205E-7;
-4,62144856159669E-6;
-8,41673481498107E-6;
-9,5509390874925E-6;
-8,08076934699604E-6;
-5,69621119558804E-6;
-4,28039839703011E-6;
-4,3650717471339E-6;
-4,75433152708626E-6;
-3,62072079135859E-6;
-1,58981708971397E-7;
4,58040076828014E-6;
8,38140003493872E-6;
9,52415824511229E-6;
8,06429596990847E-6;
5,68913363981057E-6;
4,27971178810436E-6;
4,36912498716414E-6;
4,76673581131381E-6;
3,65055554798409E-6;
2,1523556084289E-7;
-4,49731300503411E-6;
-8,28457875199242E-6;
-9,43652044596928E-6;
-8,00732153722426E-6;
-5,67148156189508E-6;
-4,2940464627666E-6;
-4,39957930020214E-6;
-4,8011249790809E-6;
-3,68764403632542E-6;
-2,61566152257217E-7;
4,43754011923842E-6;
8,21693045550987E-6;
9,37374688877512E-6;
7,95864134863184E-6;
5,63373640202176E-6;
4,25426724035206E-6;
4,34894135364033E-6;
4,74932563755164E-6;
3,66416306835147E-6;
2,99431141589264E-7;
-4,32555860999006E-6;
-8,05204274135448E-6;
-9,2031136937011E-6;
-7,82981792053766E-6;
-5,56932271288338E-6;
-4,24456933801575E-6;
-4,36661724427958E-6;
-4,77320056331669E-6;
-3,69313010768299E-6;
-3,46622075960484E-7;
4,2510727354088E-6;
7,95839647823432E-6;
9,11116593697789E-6;
7,75490011616673E-6;
5,5064435414515E-6;
4,17260027983708E-6;
4,2708473253227E-6;
4,6682832064915E-6;
3,62520166579938E-6;
3,68374083331946E-7;
-4,11668075158436E-6;
-7,7390237447555E-6;
-8,87356470702016E-6;
-7,56777130293537E-6;
-5,40375033592095E-6;
-4,14282926801276E-6;
-4,27746034241692E-6;
-4,68289720939243E-6;
-3,64683388651732E-6;
-4,15490447751143E-7;
4,03105163875563E-6;
7,62504118404756E-6;
8,75857022973419E-6;
7,47199220121152E-6;
5,32073083219502E-6;
4,04491806816573E-6;
4,14522302751745E-6;
4,53491221233614E-6;
3,54252584518115E-6;
4,23270575591379E-7;
-3,87999591362876E-6;
-7,36333510645259E-6;
-8,46838989405055E-6;
