0,00117540752091783;
0,00157387283825418;
0,00174940899230652;
0,00169129929452841;
0,00150981372643901;
0,00134982533822013;
0,00129096862026855;
0,00130920578974342;
0,00132184743247726;
0,00127090282938556;
0,00117271733214754;
0,00109530951891943;
0,00108867832831712;
0,00113333562294597;
0,00115523025312045;
0,0010962392603974;
0,000978934783717532;
0,000905727134027145;
0,000985690441622771;
0,00124377886955329;
0,0015855386073595;
0,00184941864449177;
0,00191059746173683;
0,0017595797768268;
0,00149833089547157;
0,00126056186285533;
0,00111976783218919;
0,00105394255216122;
0,00098712521964574;
0,000866118315922843;
0,000706080821033568;
0,000569610939717736;
0,00050267250587166;
0,000487368397442133;
0,000455726679967032;
0,000354436748636831;
0,000204220834167575;
9,89465823504202E-5;
0,000138478138505506;
0,000345517122838769;
0,000633400252091599;
0,000854124672587108;
0,000893418716881932;
0,000742574521022134;
0,000494774635100805;
0,000272116448090317;
0,000141576356126067;
8,28664481742824E-5;
2,646957424951E-5;
-7,63044285846442E-5;
-0,000211767682054942;
-0,000323005121928327;
-0,000368317087504475;
-0,00036421490166068;
-0,000372789028290297;
-0,000442726951489538;
-0,000555314362151009;
-0,000625332103101812;
-0,000562189122650186;
-0,000345498915650785;
-5,42382613487283E-5;
0,00017699218349818;
0,000244333778491601;
0,000139804823311709;
-5,21543000096807E-5;
-0,000220957669797494;
-0,000306061143031494;
-0,000326014418954316;
-0,000343919254835415;
-0,00040396384284628;
-0,000493855102006282;
-0,000562212468971793;
-0,000571451979134107;
-0,000536620625014804;
-0,00051391609326736;
-0,000547375174098583;
-0,000620151878239381;
-0,000655407284002459;
-0,000571522085553095;
-0,000350235300570739;
-6,28380008579607E-5;
0,000169342159860753;
0,000252770448517565;
0,000180293943029375;
2,79231017002872E-5;
-0,000104876803124931;
-0,000163702495875572;
-0,000165260174851217;
-0,000166250351736698;
-0,000206337849323686;
-0,000274460765044326;
-0,000324500563994244;
-0,000322748480534394;
-0,000282696669115098;
-0,000254689864909314;
-0,000278132038781976;
-0,000337885040051315;
-0,000365137624415985;
-0,000286862988165103;
-8,67477626010662E-5;
0,00017147176788452;
0,000379415202995418;
0,000453616069970013;
0,000387786154756382;
0,000249844714438736;
0,000128573223951163;
7,25097726501063E-5;
6,67911886094751E-5;
6,09478467061162E-5;
1,97213841085946E-5;
-4,69754039953677E-5;
-9,80577566185672E-5;
-0,000103513511941771;
-7,53075546407451E-5;
-5,81318839629197E-5;
-8,69227877455413E-5;
-0,000148174988617343;
-0,000180778809498024;
-0,000119944152466685;
4,87857521100868E-5;
0,000268925333119254;
0,000444497993256596;
0,000501664335254537;
0,000434938529480834;
0,000304470520408004;
0,000188800568832113;
0,000130840972580763;
0,000117470435213533;
0,000104146112599247;
5,97860548954459E-5;
-6,82641159132572E-6;
-5,9439490269822E-5;
-7,15950211478865E-5;
-5,38331251801791E-5;
-4,54963170987392E-5;
-7,7306450818141E-5;
-0,000137351942922793;
-0,000171884645607982;
-0,000123975847067245;
1,90390647671771E-5;
0,000207530851052027;
0,000357261484124812;
0,000403483215088525;
0,000341425414358481;
0,000223829919704433;
0,000119496158144505;
6,59766114170817E-5;
5,17690081195833E-5;
3,79071063239463E-5;
-2,77446559422318E-6;
-6,25932477934406E-5;
-0,000109894274152076;
-0,000121602308233448;
-0,000106936507642489;
-0,00010021608452261;
-0,000128214039486411;
-0,000180547338348333;
-0,000210427538029123;
-0,000168347544895115;
-4,33418318321095E-5;
0,000121402337995134;
0,000252675827126157;
0,000294261662889219;
0,000242041241482554;
0,000141778574235809;
5,31129767130048E-5;
8,55846911801002E-6;
-1,87278786778348E-6;
-1,19218688796108E-5;
-4,50887465584456E-5;
-9,47286907011616E-5;
-0,000133496177589837;
-0,000141483676579532;
-0,000126672345626313;
-0,000118680661393209;
-0,000140589035368948;
-0,000183443480777793;
-0,000206956076772154;
-0,000168544600855588;
-5,88195336577601E-5;
8,50541066732388E-5;
0,000200162800914669;
0,000238247735740767;
0,000195799804892308;
0,000112085088886233;
3,8218885679042E-5;
2,03488394187579E-6;
-5,03444530828851E-6;
-1,18600859840102E-5;
-3,85258416224169E-5;
-7,93436468751613E-5;
-0,000110962374466541;
-0,000116405161995672;
-0,000102492358942999;
-9,44702467402129E-5;
-0,000111985794334067;
-0,000147402223175453;
-0,000166447006691191;
-0,00013294133166981;
-3,89414054368537E-5;
8,39754249379737E-5;
0,000182432151718967;
0,000215537052930663;
0,000180348923006864;
0,000110133487072683;
4,81385109001817E-5;
1,78845366357731E-5;
1,21240144569993E-5;
6,48694810446915E-6;
-1,5954128092338E-5;
-5,03884035094549E-5;
-7,71405785824447E-5;
-8,19271898677345E-5;
-7,04931546936754E-5;
-6,4055023089996E-5;
-7,90972917419831E-5;
-0,000109192421433423;
-0,000125595441220745;
-9,80076638826087E-5;
-1,98072584995815E-5;
8,25652877823576E-5;
0,000164490193337692;
0,000191835913115362;
0,000162180588548837;
0,000103287104824073;
5,11928168379656E-5;
2,5468331116375E-5;
2,00763971614907E-5;
1,4767522630337E-5;
-4,49877161922358E-6;
-3,37158574870182E-5;
-5,65705244154582E-5;
-6,12412628573582E-5;
-5,2490576928207E-5;
-4,78559415662348E-5;
-6,09373349927135E-5;
-8,64138114141176E-5;
-0,000100584874422312;
-7,85141870696451E-5;
-1,47843963726196E-5;
6,88443620630462E-5;
0,000135726313383124;
0,000157880641675696;
0,000133353439371914;
8,48976536383668E-5;
4,1991341886329E-5;
2,06130881460134E-5;
1,58235604509158E-5;
1,11129627331307E-5;
-4,9417338871276E-6;
-2,90673268606881E-5;
-4,80033582136411E-5;
-5,2162701771641E-5;
-4,54190807226046E-5;
-4,19788573113512E-5;
-5,28327539560111E-5;
-7,3665159305815E-5;
-8,53433431783723E-5;
-6,77830036143783E-5;
-1,66560822983719E-5;
5,05075332565499E-5;
0,000104265338754963;
0,000122188831935161;
0,000102743243683782;
6,4157636286893E-5;
2,99915427459881E-5;
1,29838571310241E-5;
9,18405554925253E-6;
5,45023473026028E-6;
-7,28540374578157E-6;
-2,64118700137097E-5;
-4,14169717737938E-5;
-4,47237948502139E-5;
-3,94070958110621E-5;
-3,66800085720905E-5;
-4,5190451882213E-5;
-6,15270846055231E-5;
-7,06581921101414E-5;
-5,68526938490342E-5;
-1,6758247624391E-5;
3,58890559580388E-5;
7,8102388734812E-5;
9,24263463890648E-5;
7,77004704012196E-5;
4,81042184851842E-5;
2,19023226238701E-5;
8,93730027014348E-6;
6,14324903984697E-6;
3,38770307376155E-6;
-6,29392812656085E-6;
-2,0882160019007E-5;
-3,2317038679906E-5;
-3,4813864316608E-5;
-3,07339559669748E-5;
-2,86221276359471E-5;
-3,50391668510031E-5;
-4,7379149780264E-5;
-5,42603415679563E-5;
-4,38235647814469E-5;
-1,35823624592249E-5;
2,61014314844028E-5;
5,79783087321152E-5;
6,90101246016212E-5;
5,83687601809551E-5;
3,66404678523483E-5;
1,73944530951483E-5;
7,90651101964128E-6;
5,89563564314008E-6;
3,89549795680698E-6;
-3,19637265266475E-6;
-1,38839966062538E-5;
-2,22762355767278E-5;
-2,41721575774342E-5;
-2,13015696610439E-5;
-1,98515420017635E-5;
-2,45399329695559E-5;
-3,34718640417968E-5;
-3,84853960387509E-5;
-3,11346675215343E-5;
-9,69504054208826E-6;
1,84455236123632E-5;
4,10902710442895E-5;
4,90890212014599E-5;
4,19059591040144E-5;
2,6967969877929E-5;
1,37179577808482E-5;
7,17761466526625E-6;
5,7555009770758E-6;
4,32501848520939E-6;
-5,83350446894734E-7;
-7,93305690792914E-6;
-1,37336236304277E-5;
-1,51710050638452E-5;
-1,34217348421828E-5;
-1,26096987750702E-5;
-1,58413250883654E-5;
-2,18439357243385E-5;
-2,52692001321511E-5;
-2,06518908067073E-5;
-6,93166476630103E-6;
1,10986834293273E-5;
2,56486073000584E-5;
3,09562865862154E-5;
2,67402343221513E-5;
1,76765544433347E-5;
9,61767276346289E-6;
5,62505745617346E-6;
4,70664438089662E-6;
3,76812650911731E-6;
7,57179793582901E-7;
-3,68908085480242E-6;
-7,2291726026782E-6;
-8,25137407540582E-6;
-7,45272293024932E-6;
-7,17057467289862E-6;
-9,11722069013615E-6;
-1,25589752124451E-5;
-1,45805955318494E-5;
-1,22924254002464E-5;
-5,20741536185801E-6;
4,12206276335881E-6;
1,1706625414029E-5;
1,47055856008142E-5;
1,30563454820067E-5;
9,06606911121431E-6;
5,4971506502221E-6;
3,72512769848153E-6;
3,27309182798254E-6;
2,79225432450871E-6;
1,44639434776469E-6;
-4,70772035933664E-7;
-2,03220659187067E-6;
-2,65659328955417E-6;
-2,63014507333355E-6;
-2,7610566425409E-6;
-3,56943493198637E-6;
-4,78304770336063E-6;
-5,56594523289471E-6;
-5,22764969363402E-6;
-3,76989784741173E-6;
-1,83393259076055E-6;
-1,69317545387952E-7;
8,71194607216937E-7;
1,41126353510904E-6;
1,74317722990592E-6;
2,00305195608921E-6;
2,13460471662425E-6;
2,09822950851079E-6;
2,02548155653062E-6;
2,11044561319953E-6;
2,35545149517198E-6;
2,49002477833508E-6;
2,22398819554534E-6;
1,61865292364936E-6;
1,15754841267096E-6;
1,326565634881E-6;
2,00819982732995E-6;
2,2854517227645E-6;
9,9658602199991E-7;
-2,27102005007612E-6;
-6,55069226970197E-6;
-9,86883519475096E-6;
-1,04887619570396E-5;
-8,13046207488288E-6;
-4,19089004711577E-6;
-7,33929677769253E-7;
9,85809646364009E-7;
1,29459384173449E-6;
1,56098636260598E-6;
2,83901821653305E-6;
4,8874358805209E-6;
6,43720858214452E-6;
6,47235571989548E-6;
5,34372112662734E-6;
4,60915172803581E-6;
5,59016810551453E-6;
7,84521425762391E-6;
9,00290497929111E-6;
6,36654765873271E-6;
-8,16203407927966E-7;
-1,02478126644447E-5;
-1,77034017839135E-5;
-1,97206628504583E-5;
-1,58905417010904E-5;
-9,0022204005712E-6;
-2,93094202180486E-6;
8,31363200780343E-8;
6,67068322615048E-7;
1,20482293608719E-6;
3,45529396660366E-6;
6,97716945837981E-6;
9,68383194389647E-6;
9,96592046135633E-6;
8,41106861413132E-6;
7,4538774604476E-6;
9,09675487193367E-6;
1,26337359209338E-5;
1,45099775852845E-5;
1,07815939183815E-5;
4,20998674548941E-7;
-1,31946034465372E-5;
-2,40166627505317E-5;
-2,71868168049308E-5;
-2,21917665602958E-5;
-1,29442314688993E-5;
-4,77931950743684E-6;
-7,30377089756151E-7;
7,15754047226686E-8;
8,25697832214587E-7;
3,85570879654324E-6;
8,55951646812113E-6;
1,2196198019042E-5;
1,26824362287228E-5;
1,07950568419061E-5;
9,66733433201458E-6;
1,18431403066639E-5;
1,64058027491831E-5;
1,88609262235219E-5;
1,42763713956611E-5;
1,40729223164482E-6;
-1,55153098657468E-5;
-2,90035693550316E-5;
-3,30992108084269E-5;
-2,72070412336126E-5;
-1,61222018524917E-5;
-6,32433976401724E-6;
-1,46749589201033E-6;
-4,93511551625831E-7;
4,32573990959552E-7;
4,07388128311942E-6;
9,70273490716504E-6;
1,40700523803293E-5;
1,47253965994915E-5;
1,25922231130467E-5;
1,13432906412378E-5;
1,39393744849961E-5;
1,93010931445107E-5;
2,22122634061989E-5;
1,69835916987085E-5;
2,20472507114834E-6;
-1,72409202485268E-5;
-3,27687304810536E-5;
-3,75843866901051E-5;
-3,10307728223462E-5;
-1,85709077195507E-5;
-7,54847468532256E-6;
-2,08479650621191E-6;
-9,79391944680235E-7;
7,91577092990812E-8;
4,18203367303442E-6;
1,05072466833849E-5;
1,54272574597689E-5;
1,62192796588947E-5;
1,39156783724908E-5;
1,25876562189896E-5;
1,55025812195271E-5;
2,14608764949465E-5;
2,4717325456122E-5;
1,90299560386704E-5;
2,86870775397066E-6;
-1,8408536765429E-5;
-3,54230417520926E-5;
-4,07774906969291E-5;
-3,37705463210606E-5;
-2,03439160721544E-5;
-8,45802089174217E-6;
-2,56624874996379E-6;
-1,36703264281306E-6;
-2,1274630849676E-7;
4,2179010727253E-6;
1,10361324217763E-5;
1,63500082956422E-5;
1,72477055480753E-5;
1,48373781573938E-5;
1,34648468210038E-5;
1,66072772944507E-5;
2,2982210441113E-5;
2,64844233898989E-5;
2,04984918930417E-5;
3,41481705804684E-6;
-1,9090020021799E-5;
-3,71079893373791E-5;
-4,28426528278745E-5;
-3,5564024625727E-5;
-2,15272839737866E-5;
-9,09366694265693E-6;
-2,93060578481168E-6;
-1,67138423647858E-6;
-4,54417948607475E-7;
4,18635252118925E-6;
1,13193640876276E-5;
1,68875855745307E-5;
1,78626467738734E-5;
1,53996989997779E-5;
1,40115628217445E-5;
1,73011114423997E-5;
2,39354054054019E-5;
2,75959359128085E-5;
2,14493296679712E-5;
3,84130712036189E-6;
-1,93677859803422E-5;
-3,79699796167253E-5;
-4,39462513933609E-5;
-3,6551532775173E-5;
-2,22117250058882E-5;
-9,50236162543798E-6;
-3,20299383487005E-6;
-1,91273701478117E-6;
-6,61465105847681E-7;
4,08810964680594E-6;
1,13823220469231E-5;
1,70845618263972E-5;
1,81123194918643E-5;
1,56429884580348E-5;
1,42638764490241E-5;
1,7631330113733E-5;
2,43897602215074E-5;
2,81332836340728E-5;
2,19439712249872E-5;
4,15279503989618E-6;
-1,93116853602134E-5;
-3,81379127764171E-5;
-4,4235367543559E-5;
-3,68555979943978E-5;
-2,24733576703588E-5;
-9,71926280696686E-6;
-3,39800801932571E-6;
-2,10092488681518E-6;
-8,39138745835608E-7;
3,93325358457208E-6;
1,12581026027245E-5;
1,69919654767373E-5;
1,80512352446305E-5;
1,5614533027442E-5;
1,42651429982647E-5;
1,76516096949549E-5;
2,44192933564469E-5;
2,81816203634303E-5;
2,20490663833343E-5;
4,36322314510395E-6;
-1,89767852420961E-5;
-3,77216861045013E-5;
-4,38370706952418E-5;
-3,65810770180466E-5;
-2,23746697209483E-5;
-9,76949734294005E-6;
-3,52219346194427E-6;
-2,23845607759629E-6;
-9,86082781907235E-7;
3,7369005601324E-6;
1,09826537647578E-5;
1,6661894846865E-5;
1,77343732431601E-5;
1,53623611284565E-5;
1,405945542498E-5;
1,74151929226137E-5;
2,40955962547578E-5;
2,78224445312267E-5;
2,18288456983659E-5;
4,48819411556307E-6;
-1,84110657358044E-5;
-3,68199154194206E-5;
-4,28661608174746E-5;
-3,58228965869889E-5;
-2,19722573180034E-5;
-9,67587158617367E-6;
-3,58168241341404E-6;
-2,32804723765401E-6;
-1,10173199854814E-6;
3,51194512927935E-6;
1,05876703049901E-5;
1,61406052961715E-5;
1,72104727698517E-5;
1,49287466816309E-5;
1,36853771203335E-5;
1,69688601857129E-5;
2,34820624258476E-5;
2,71281004650978E-5;
2,13398912182085E-5;
4,54000933877426E-6;
-1,76601252763654E-5;
-3,55243575245784E-5;
-4,14292691452306E-5;
-3,466983182741E-5;
-2,13202539891962E-5;
-9,46195019781908E-6;
-3,58496463434135E-6;
-2,37510377421634E-6;
-1,18850760369022E-6;
3,26716333508949E-6;
1,00990034256258E-5;
1,54672039922302E-5;
1,65209798281356E-5;
1,43493919843754E-5;
1,31753755857831E-5;
1,6352620852604E-5;
2,26338224063337E-5;
2,61619360460382E-5;
2,06314740796156E-5;
4,52811760408635E-6;
-1,67666466919021E-5;
-3,39192767756186E-5;
-3,96240893804224E-5;
-3,3203527200289E-5;
-2,0469122393637E-5;
-9,15064838188049E-6;
-3,54131324649648E-6;
-2,38602378130422E-6;
-1,2500172738047E-6;
3,00911957585402E-6;
9,53867531679964E-6;
1,4675748556241E-5;
1,57022086367761E-5;
1,36556210360159E-5;
1,25580071189611E-5;
1,56019254626873E-5;
2,16000235761147E-5;
2,49806026005347E-5;
1,97477834590237E-5;
4,46119767470173E-6;
-1,57685014902048E-5;
-3,20797103555132E-5;
-3,75376972305205E-5;
-3,1496771075341E-5;
-1,94638486441325E-5;
-8,76237777609733E-6;
-3,45894038900485E-6;
-2,36640138355974E-6;
-1,28931266091316E-6;
2,74387948573696E-6;
8,92657778509158E-6;
1,37969242596299E-5;
1,47869348186403E-5;
1,28758447231618E-5;
1,18593051191689E-5;
1,47490024668184E-5;
2,04251211460854E-5;
2,3635295617439E-5;
1,87290315962698E-5;
4,34801185855359E-6;
-1,46982121537013E-5;
-3,00711866913482E-5;
-3,52463884300723E-5;
-2,96133326204115E-5;
-1,8343696475673E-5;
-8,31472037944739E-6;
-3,34467371078226E-6;
-2,32076992195277E-6;
-1,30869212868878E-6;
2,47719369912641E-6;
8,28067523680061E-6;
1,28582324657515E-5;
1,38045306761889E-5;
1,20356265426225E-5;
1,11027589293209E-5;
1,38228140391148E-5;
1,91488638134541E-5;
2,21717218543907E-5;
1,76112975710153E-5;
4,19700169672434E-6;
-1,35836320620275E-5;
-2,79506202310802E-5;
-3,28166663355475E-5;
-2,76088706373174E-5;
-1,71429566146818E-5;
-7,82304673847061E-6;
-3,20451277272817E-6;
-2,25314939007766E-6;
-1,31023810746127E-6;
2,21400089072945E-6;
7,61657908438553E-6;
1,18836358228534E-5;
1,27806164875379E-5;
1,11572855948192E-5;
1,03089056296373E-5;
1,28486935438378E-5;
1,78060146906583E-5;
2,06298757458215E-5;
1,6426233962943E-5;
4,01579050381197E-6;
-1,24487402011715E-5;
-2,57673374447195E-5;
-3,03062937508121E-5;
-2,55318478237863E-5;
-1,58916508363555E-5;
-7,30103722388977E-6;
-3,04404070408612E-6;
-2,16741442108365E-6;
-1,29614998313114E-6;
1,9581907174088E-6;
6,94742350263131E-6;
1,08935143665538E-5;
1,17370548481029E-5;
1,02598783464331E-5;
9,49530118311378E-6;
1,18483779895534E-5;
1,6426489842837E-5;
1,90442354152805E-5;
1,52011864977464E-5;
3,81107753006601E-6;
-1,13140193099462E-5;
-2,35636679748355E-5;
-2,77649480600339E-5;
-2,34240576701049E-5;
-1,46158255057875E-5;
-6,76076573909762E-6;
-2,86841237713074E-6;
-2,0672583348641E-6;
-1,26867809703408E-6;
1,71273004927897E-6;
6,28411267221021E-6;
9,90501046180136E-6;
1,06922993108911E-5;
9,35952394553552E-6;
8,67683940974195E-6;
1,08403664016366E-5;
1,50358052270096E-5;
1,74442610821107E-5;
1,39596148270716E-5;
3,58881214818061E-6;
-1,01966196322405E-5;
-2,13753545046071E-5;
-2,52346914838237E-5;
-2,13209850836814E-5;
-1,33377082122869E-5;
-6,21267611843165E-6;
-2,68222869103895E-6;
-1,9560414430917E-6;
-1,22995254317067E-6;
1,4799140464399E-6;
5,63566073102161E-6;
8,93243110526691E-6;
9,66181183204593E-6;
8,46976667698888E-6;
7,86607996024648E-6;
9,84029788310049E-6;
1,36555417756726E-5;
1,58549004946764E-5;
1,27214878928288E-5;
3,3543251178132E-6;
-9,11055066275841E-6;
-1,92320189885139E-5;
-2,27505262766429E-5;
-1,92522315474432E-5;
-1,20759130904608E-5;
-5,66561395796075E-6;
-2,48949118253142E-6;
-1,83673264293279E-6;
-1,1819137317941E-6;
1,26148583175054E-6;
5,00940544809015E-6;
7,98754325750091E-6;
8,65836445580536E-6;
7,60183449291493E-6;
7,07347766825032E-6;
8,86121184033409E-6;
1,23036884383828E-5;
1,4296971793628E-5;
1,15035741921477E-5;
3,1123668621538E-6;
-8,06698653394988E-6;
-1,71577317948331E-5;
-2,03410280285839E-5;
-1,724205183249E-5;
-1,08457903322964E-5;
-5,12697599956687E-6;
-2,29365042261722E-6;
-1,71194985346539E-6;
-1,12634282004465E-6;
1,05867818793378E-6;
4,41116019768241E-6;
7,0797918671408E-6;
7,69225781989716E-6;
6,76482441072135E-6;
6,30754526676071E-6;
7,9137500556775E-6;
1,09949373595373E-5;
1,27875078024864E-5;
1,03196888390113E-5;
2,86709113157403E-6;
-7,07460668126549E-6;
-1,51715978965225E-5;
-1,80290254062806E-5;
-1,53099143178358E-5;
-9,65974747035059E-6;
-4,60286693414696E-6;
-2,09769039411781E-6;
-1,58401030690327E-6;
-1,06488122511422E-6;
8,7225294650532E-7;
3,84534317331376E-6;
6,21651294020079E-6;
6,77155253376814E-6;
5,96588966267228E-6;
5,57501536251455E-6;
7,0063684708295E-6;
9,74098239485734E-6;
1,13400972306369E-5;
9,18094572028453E-6;
2,62207058249906E-6;
-6,13989257005255E-6;
-1,32883105868946E-5;
-1,58322152094224E-5;
-1,34710095570711E-5;
-8,52757947547425E-6;
-4,09823765391677E-6;
-1,90415799868836E-6;
-1,45495293571283E-6;
-9,99045379840675E-7;
7,02558846788342E-7;
3,31513640292801E-6;
5,40316749743595E-6;
5,90231367981882E-6;
5,21044956347206E-6;
4,88103315626492E-6;
6,14556853309842E-6;
8,55083457854574E-6;
9,96524782550378E-6;
8,0960420129151E-6;
2,38034313432638E-6;
-5,26739473972333E-6;
-1,1518658574208E-5;
-1,37637407948621E-5;
-1,17367169755142E-5;
-7,45673479313334E-6;
-3,61699040667162E-6;
-1,71519548271388E-6;
-1,32654659921948E-6;
-9,30214329360249E-7;
5,49603410441591E-7;
2,82265658788168E-6;
4,64357597706013E-6;
5,08885317230096E-6;
4,50240393474217E-6;
4,22935003108245E-6;
5,33613293031077E-6;
7,43114089676882E-6;
8,6707467353983E-6;
7,07153145841623E-6;
2,1444614166809E-6;
-4,45996814187012E-6;
-9,86999004190447E-6;
-1,18327333363169E-5;
-1,0115057718416E-5;
-6,45258048844801E-6;
-3,16207771485499E-6;
-1,53256173304807E-6;
-1,20029490741537E-6;
-8,59613554236368E-7;
4,13120597673443E-7;
2,36909829269687E-6;
3,9401392455482E-6;
4,33396509236982E-6;
3,84433035468656E-6;
3,62250088656264E-6;
4,58133452064878E-6;
6,38647254383478E-6;
7,46199017574289E-6;
6,11207547036306E-6;
1,91653217797855E-6;
-3,71901460387527E-6;
-8,34667433606926E-6;
-1,00448338297537E-5;
-8,61111810940271E-6;
-5,51866390809038E-6;
-2,7356242448728E-6;
-1,35766790148066E-6;
-1,07745597888131E-6;
-7,8833289966241E-7;
2,92615060586516E-7;
1,95487498242142E-6;
3,29403750028838E-6;
3,63912951045009E-6;
3,23765945150435E-6;
3,06196553683534E-6;
3,88314160414619E-6;
5,41959595431844E-6;
6,34229473121874E-6;
5,22068753892886E-6;
1,69825609217705E-6;
-3,04469799122925E-6;
-6,95052173597322E-6;
-8,40267905344046E-6;
-7,22746038266845E-6;
-4,65695583621637E-6;
-2,33901405554761E-6;
-1,19161319300104E-6;
-9,59069193768169E-7;
-7,17321973040906E-7;
1,87415552642291E-7;
1,57973615448123E-6;
2,70540690534294E-6;
3,00470190750564E-6;
2,68283958164018E-6;
2,54831151708488E-6;
3,24238853270788E-6;
4,53172381841174E-6;
5,31317477264358E-6;
4,39894000913459E-6;
1,49096165867162E-6;
-2,43615177384313E-6;
-5,68118047622714E-6;
-6,90635861088644E-6;
-5,964491737304E-6;
-3,86807946999654E-6;
-1,97300487492006E-6;
-1,03521681990362E-6;
-8,45967878680324E-7;
-6,47407198504334E-7;
9,67034288748881E-8;
1,2428787595356E-6;
2,17351142619599E-6;
2,43009905722255E-6;
2,17949390130036E-6;
2,08133926028537E-6;
2,65895196058283E-6;
3,72274397017459E-6;
4,37462205692036E-6;
3,64718461787447E-6;
1,29564475499795E-6;
-1,89166237166909E-6;
-4,53649719235387E-6;
-5,55382890536293E-6;
-4,82081948884226E-6;
-3,15152100403493E-6;
-1,63780990292445E-6;
-8,89055227387489E-7;
-7,38800424759024E-7;
-5,79286973353945E-7;
1,95633379591455E-8;
9,4305902247275E-7;
1,69689515383966E-6;
1,91394833607547E-6;
1,72655197784916E-6;
1,66020692839163E-6;
2,13191097041709E-6;
2,99143765596511E-6;
3,52534202013601E-6;
2,96473636985151E-6;
1,11300044070981E-6;
-1,40883589424798E-6;
-3,51284356572694E-6;
-4,34128837803671E-6;
-3,79354762030411E-6;
-2,50581462955208E-6;
-1,33318006608905E-6;
-7,53480690432043E-7;
-6,3804840431717E-7;
-5,135490867064E-7;
-4,49953811359103E-8;
6,78675395088192E-7;
1,273525970374E-6;
1,45425054624033E-6;
1,32238671106633E-6;
1,28354477045448E-6;
1,65968045362539E-6;
2,33567729336095E-6;
2,76298481758132E-6;
2,35004957345489E-6;
9,43464733035106E-7;
-9,84742999130995E-7;
-2,60540935133322E-6;
-3,26352254931534E-6;
-2,87857589094542E-6;
-1,92872466339334E-6;
-1,05848514050633E-6;
-6,28657913627156E-7;
-5,44044998620988E-7;
-4,506715077963E-7;
-9,80029093324605E-8;
4,4785542152095E-7;
9,00913971154318E-7;
1,04850318915396E-6;
9,64926780536476E-7;
9,4956798068085E-7;
1,24015104676688E-6;
1,75260226584114E-6;
2,08434808211056E-6;
1,80087978859403E-6;
7,87242882403415E-7;
-6,16056007476961E-7;
-1,80846607319295E-6;
-2,31420616840352E-6;
-2,07084981270056E-6;
-1,41739640524034E-6;
-8,12780032369865E-7;
-5,14587761726716E-7;
-4,56988051893785E-7;
-3,91032301537045E-7;
-1,40510509285119E-7;
2,48531572859121E-7;
5,76234850075529E-7;
6,9382599964815E-7;
6,51756194180148E-7;
6,56162755659096E-7;
8,70801426462396E-7;
1,23877992900754E-6;
1,48555873445824E-6;
1,31442553936334E-6;
6,44341980689685E-7;
-2,99161470125208E-7;
-1,11560152617992E-6;
-1,48617940934493E-6;
-1,3645898888014E-6;
-9,68497485847516E-7;
-5,94863595392149E-7;
-4,11129357576199E-7;
-3,76962888767313E-7;
-3,34918793530942E-7;
-1,73564612908917E-7;
7,85012351109398E-8;
2,96411564755159E-7;
3,87055507756897E-7;
3,80211760714184E-7;
4,00973943626793E-7;
5,4879522189734E-7;
7,90342854755429E-7;
9,62235161275559E-7;
8,8745675807772E-7;
5,14601147715782E-7;
-3,02625821111362E-8;
-5,19930927281798E-7;
-7,71689473502593E-7;
-7,53486717337376E-7;
-5,78343365566766E-7;
-4,0334825433972E-7;
-3,18028883844869E-7;
-3,03954341339282E-7;
-2,82537522974111E-7;
-1,98193162428445E-7;
-6,45170026540657E-8;
5,82150641167984E-8;
1,24850357132467E-7;
1,47454973114529E-7;
1,81479058843466E-7;
2,71081454804654E-7;
4,03119013786649E-7;
5,09635841061915E-7;
5,16425041954908E-7;
3,97711746588584E-7;
1,94530871070376E-7;
-1,42669751244496E-8;
-1,62596692783871E-7;
-2,30894048114428E-7;
-2,43009021170443E-7;
-2,36692444774801E-7;
-2,34932095736584E-7;
-2,37856505838088E-7;
-2,3401895561633E-7;
-2,15393343977781E-7;
-1,82831567358703E-7;
-1,41672597729076E-7;
-9,62413292438836E-8;
-4,94516392146014E-8;
-4,95413164301543E-9;
3,44672681924036E-8;
7,27359637831551E-8;
1,22775686097957E-7;
1,97572832962977E-7;
2,93253503963777E-7;
3,79129509639002E-7;
4,08717074350538E-7;
3,49444229524626E-7;
2,10042978152586E-7;
4,15812304338762E-8;
-9,3260337913901E-8;
-1,61409687480019E-7;
-1,78497932265408E-7;
-1,89428812460617E-7;
-2,26116667807327E-7;
-2,7874830864292E-7;
-3,06590036429059E-7;
-2,79707794535238E-7;
-2,13490013514897E-7;
-1,61004885988917E-7;
-1,64313356220656E-7;
-2,05281875123472E-7;
-2,03456361789781E-7;
-7,29899581962162E-8;
2,00707918354206E-7;
5,27404470033486E-7;
7,56363326403922E-7;
7,72824346742711E-7;
5,76233136967198E-7;
2,79566475064678E-7;
2,86476877441156E-8;
-9,69740509353605E-8;
-1,25642783823977E-7;
-1,48773938409944E-7;
-2,31263690003763E-7;
-3,54524561725194E-7;
-4,39843278752926E-7;
-4,29018060103453E-7;
-3,47633281795638E-7;
-2,89356474848398E-7;
-3,28538988944226E-7;
-4,35431998774296E-7;
-4,74204951013786E-7;
-2,99206488773989E-7;
1,19479699421637E-7;
6,43133857118475E-7;
1,03591624060114E-6;
1,11585826455679E-6;
8,74548005387239E-7;
4,75081777109183E-7;
1,30760222826159E-7;
-4,10893701284505E-8;
-7,9011123585599E-8;
-1,12013323661558E-7;
-2,31675645449148E-7;
-4,12351195651941E-7;
-5,44665844838444E-7;
-5,47574862857876E-7;
-4,54806137984554E-7;
-3,92654732132109E-7;
-4,61449627184768E-7;
-6,22169107576199E-7;
-6,94575276936228E-7;
-4,8500698346627E-7;
4,89213533404877E-8;
7,29958509365939E-7;
1,254429761143E-6;
1,38666954690586E-6;
1,11171701825294E-6;
6,32201253220614E-7;
2,14804868055048E-7;
6,80874456658504E-9;
-3,82786547897735E-8;
-7,90613212190334E-8;
-2,28134797160156E-7;
-4,54326254788221E-7;
-6,24178863708065E-7;
-6,38673776915964E-7;
-5,37847165459578E-7;
-4,73480442635124E-7;
-5,66214496298513E-7;
-7,69846049906924E-7;
-8,69562599448755E-7;
-6,34261198305597E-7;
-1,16552574411659E-8;
7,91356730820998E-7;
1,41869890818331E-6;
1,59310509511016E-6;
1,29426058402025E-6;
7,54888348999695E-7;
2,82487404441556E-7;
4,73054574435058E-8;
-3,10039111016496E-9;
-4,9795526558693E-8;
-2,21353311248E-7;
-4,82440854077002E-7;
-6,81364489307489E-7;
-7,05475255360693E-7;
-5,99486834476891E-7;
-5,3431722695994E-7;
-6,45887456832826E-7;
-8,82668433956569E-7;
-1,00399989375579E-6;
-7,50727898141133E-7;
-6,29676046179636E-8;
8,30609817352143E-7;
1,53520554883021E-6;
1,74267018919248E-6;
1,42842401734164E-6;
8,4695692006815E-7;
3,35467000396302E-7;
8,09906871771014E-8;
2,68926409866135E-8;
-2,40683993934334E-8;
-2,11984805713101E-7;
-4,98566069983182E-7;
-7,19047879973317E-7;
-7,50976107519374E-7;
-6,42317387603567E-7;
-5,77535124365689E-7;
-7,03390416988927E-7;
-9,64662450867711E-7;
-1,10251957836243E-6;
-8,38025481984309E-7;
-1,05738734617509E-7;
8,50794453279903E-7;
1,61006522237994E-6;
1,84247298209982E-6;
1,5201393423962E-6;
9,12039639259911E-7;
3,75345607200512E-7;
1,08457719884768E-7;
5,2081226377859E-8;
-1,7015987389454E-9;
-2,00612049083993E-7;
-5,04446076073088E-7;
-7,39876442070126E-7;
-7,77996665215847E-7;
-6,68785180199806E-7;
-6,05373583432651E-7;
-7,41490350799835E-7;
-1,01963833654406E-6;
-1,16951042469495E-6;
-8,99601296928729E-7;
-1,40698424862358E-7;
8,54764332895828E-7;
1,64900326872004E-6;
1,89917956604275E-6;
1,57498615677683E-6;
9,53572192341814E-7;
4,03652634709747E-7;
1,30292103557383E-7;
7,28513253120585E-8;
1,7494325770003E-8;
-1,87756920214319E-7;
-5,01687790868331E-7;
-7,46311290158633E-7;
-7,89167868837328E-7;
-6,81175296210783E-7;
-6,19928266827654E-7;
-7,62782202081093E-7;
-1,05117978849274E-6;
-1,20910724482543E-6;
-9,38709156455377E-7;
-1,68564696554383E-7;
8,45142109429344E-7;
1,65733810662689E-6;
1,91900159809354E-6;
1,59816419956022E-6;
9,74766463492528E-7;
4,21832561417272E-7;
1,47061061626495E-7;
8,9588676343303E-8;
3,37262769530968E-8;
-1,738752637449E-7;
-4,91765534818767E-7;
-7,4062426920397E-7;
-7,86918641346395E-7;
-6,81603887186798E-7;
-6,23149173659412E-7;
-7,69684010459215E-7;
-1,06262411673496E-6;
-1,22516366004362E-6;
-9,58400679564927E-7;
-1,90042898660017E-7;
8,24325342465305E-7;
1,63995983070357E-6;
1,90766996505567E-6;
1,59449164052425E-6;
9,78606657282265E-7;
4,31245494456353E-7;
1,59316513844953E-7;
1,02673205983073E-7;
4,72072630757184E-8;
-1,59369673062462E-7;
-4,76016306232321E-7;
-7,24892442260275E-7;
-7,7348288268661E-7;
-6,72017775508973E-7;
-6,16830745935046E-7;
-7,64427097038641E-7;
-1,05705612496224E-6;
-1,22124501675994E-6;
-9,6150617493136E-7;
-2,05812833857265E-7;
7,94483500695115E-7;
1,60133921692267E-6;
1,87043129415024E-6;
1,56838664716691E-6;
9,67845688423307E-7;
4,33152714267049E-7;
1,67582777396978E-7;
1,124788241071E-7;
5,81575654860038E-8;
-1,44582010921235E-7;
-4,55645558444269E-7;
-7,01001691270017E-7;
-7,50886897815748E-7;
-6,54190062881982E-7;
-6,02616441580624E-7;
-7,49055100449039E-7;
-1,03730475274901E-6;
-1,20062906149483E-6;
-9,50638093536893E-7;
-2,16528555620141E-7;
7,57560758584797E-7;
1,54552632395764E-6;
1,81205929813282E-6;
1,52387484303252E-6;
9,44993892835841E-7;
4,28720399278632E-7;
1,72358283876664E-7;
1,19363331884644E-7;
6,67989856849422E-8;
-1,29803813877406E-7;
-4,31727674344199E-7;
-6,70642433016877E-7;
-7,20961831542962E-7;
-6,29727739056708E-7;
-5,81993942039695E-7;
-7,25427609786308E-7;
-1,00594328974552E-6;
-1,16629724481208E-6;
-9,28184486166988E-7;
-2,22807089580608E-7;
7,15288737408906E-7;
1,47615556015363E-6;
1,73684903677017E-6;
1,46459241380193E-6;
9,12335183626746E-7;
4,19019142458048E-7;
1,74112348508107E-7;
1,23671425091107E-7;
7,33466498430866E-8;
-1,15279637803413E-7;
-4,05213672001084E-7;
-6,35333687628909E-7;
-6,85349296080065E-7;
-6,00069367841757E-7;
-5,56303382551673E-7;
-6,9521801768963E-7;
-9,65295515825026E-7;
-1,12095048101996E-6;
-8,96316231346665E-7;
-2,25235989854977E-7;
6,69191148433931E-7;
1,39646915176234E-6;
1,64864440681082E-6;
1,39379596331059E-6;
8,71918931671737E-7;
4,05023921565774E-7;
1,7328431277863E-7;
1,25730919001726E-7;
7,80189686236352E-8;
-1,01207549194471E-7;
-3,76935294059522E-7;
-5,96408355870857E-7;
-6,45501535046983E-7;
-5,66495836247334E-7;
-5,2674119321834E-7;
-6,59929362527775E-7;
-9,17443735911933E-7;
-1,06700595143896E-6;
-8,56986318497243E-7;
-2,24362029694325E-7;
6,20599097899234E-7;
1,30932849526235E-6;
1,55084799385979E-6;
1,31438044106742E-6;
8,2557708254579E-7;
3,87608927485745E-7;
1,70275910574156E-7;
1,25845478222594E-7;
8,1021709853575E-8;
-8,77442384609309E-8;
-3,47614118933057E-7;
-5,55039479237126E-7;
-6,02697202267099E-7;
-5,30134071955841E-7;
-4,94362186280351E-7;
-6,20887785719549E-7;
-8,6423259823548E-7;
-1,00661457931395E-6;
-8,11939541119446E-7;
-2,20693271911412E-7;
5,70659142066705E-7;
1,21723471039576E-6;
1,44644967832364E-6;
1,22889488750807E-6;
7,74929406717446E-7;
3,67564354006882E-7;
1,65462815363163E-7;
1,24305544132664E-7;
8,25565123173987E-8;
-7,50156354896117E-8;
-3,17869030072573E-7;
-5,12240428928785E-7;
-5,58050969562146E-7;
-4,9197404038077E-7;
-4,60093254752099E-7;
-5,79261292682362E-7;
-8,07288628490901E-7;
-9,41672467960378E-7;
-7,62723655869685E-7;
-2,14698623631765E-7;
5,20350798391473E-7;
1,12235237957773E-6;
1,33804313531662E-6;
1,13956130574863E-6;
7,21397580121403E-7;
3,45584779281666E-7;
1,59180947158621E-7;
1,21375476060655E-7;
8,28142015162348E-8;
-6,31082058752723E-8;
-2,88219817577331E-7;
-4,68881846120688E-7;
-5,12516285613591E-7;
-4,52860626349996E-7;
-4,24737711522921E-7;
-5,36065272736363E-7;
-7,4802729686049E-7;
-8,73836576561971E-7;
-7,10695540921496E-7;
-2,06804812270135E-7;
4,70494902609494E-7;
1,02653224183678E-6;
1,22786232442336E-6;
1,04829424513348E-6;
6,66210052579858E-7;
3,22285085110481E-7;
1,51740684287668E-7;
1,17302399455802E-7;
8,19738691874714E-8;
-5,20867860173174E-8;
-2,59102243402591E-7;
-4,25698322319116E-7;
-4,66910867172896E-7;
-4,13523825775775E-7;
-3,88981998883375E-7;
-4,92172841607543E-7;
-6,87669518516195E-7;
-8,0453451414091E-7;
-6,57033190178669E-7;
-1,97401776128942E-7;
4,21771245611909E-7;
9,31335191753324E-7;
1,11779718972266E-6;
9,56727232976474E-7;
6,10422919401271E-7;
2,98199974027246E-7;
1,43417891589505E-7;
1,12307047460982E-7;
8,02051303551295E-8;
-4,19864391660084E-8;
-2,30869685187988E-7;
-3,83300862879154E-7;
-4,21914748259111E-7;
-3,74571088471154E-7;
-3,53410109977746E-7;
-4,48329864087382E-7;
-6,27251221751333E-7;
-7,34984784340854E-7;
-6,02752026194294E-7;
-1,86837573803402E-7;
3,74728809672709E-7;
8,3805591624113E-7;
1,00943115084799E-6;
8,66230937382834E-7;
5,5493061710954E-7;
2,73789893165303E-7;
1,34457525996251E-7;
1,06591398016456E-7;
7,76612638977815E-8;
-3,28248587754385E-8;
-2,03804654014945E-7;
-3,42187429804333E-7;
-3,78086972954179E-7;
-3,36510467540556E-7;
-3,18505715639046E-7;
-4,05153144986611E-7;
-5,67647416415103E-7;
-6,66216170034243E-7;
-5,48710221618307E-7;
-1,75427810870733E-7;
3,29800426442425E-7;
7,47752605722362E-7;
9,04062898412435E-7;
7,77937951783772E-7;
5,00477917020505E-7;
2,494448951197E-7;
1,25076360371489E-7;
1,00341392350542E-7;
7,44893917636021E-8;
-2,46000437406415E-8;
-1,7812322285691E-7;
-3,02758547495666E-7;
-3,35883632070444E-7;
-2,99750491005009E-7;
-2,84666308109582E-7;
-3,63156254102188E-7;
-5,09574454861508E-7;
-5,99078536140076E-7;
-4,95629606966448E-7;
-1,63447033461088E-7;
2,8731717766686E-7;
6,6126259556342E-7;
8,02737511433744E-7;
6,927667721447E-7;
4,47676409207505E-7;
2,25497398876158E-7;
1,15463561505975E-7;
9,37132627159277E-8;
7,08194679682082E-8;
-1,72930444287946E-8;
-1,53988154580555E-7;
-2,65320336282246E-7;
-2,95653747374571E-7;
-2,64614864066884E-7;
-2,52208057737411E-7;
-3,22750138922699E-7;
-4,53614246592604E-7;
-5,34259195707565E-7;
-4,44097050047797E-7;
-1,51139497121535E-7;
2,47515100822533E-7;
5,79232266717962E-7;
7,06268313149943E-7;
6,11439011747152E-7;
3,9701201575944E-7;
2,0221424608468E-7;
1,05783605154521E-7;
8,68545216300899E-8;
6,67720511030953E-8;
-1,08759721716378E-8;
-1,31509063163919E-7;
-2,30101455067987E-7;
-2,57669276587481E-7;
-2,31351515003628E-7;
-2,21374583858412E-7;
-2,84257061715295E-7;
-4,00224378644078E-7;
-4,72306824715467E-7;
-3,94588811418626E-7;
-1,38713502136336E-7;
2,10553332469328E-7;
5,02135391221603E-7;
6,15267298176016E-7;
5,34503464252852E-7;
3,48863790541646E-7;
1,79816378823046E-7;
9,61747488479076E-8;
7,98884033898894E-8;
6,24531811675997E-8;
-5,30985687783275E-9;
-1,10752090075749E-7;
-1,97258253164174E-7;
-2,221177000258E-7;
-2,00141089635457E-7;
-1,92350584545678E-7;
-2,47918602189979E-7;
-3,49751544912057E-7;
-4,13638914035131E-7;
-3,47475118517296E-7;
-1,26351822422678E-7;
1,76520705665451E-7;
4,30295605308768E-7;
5,30163925030678E-7;
4,62357486450274E-7;
3,03513485239721E-7;
1,58476590693616E-7;
8,67550865689201E-8;
7,29186768268992E-8;
5,79571850116773E-8;
-5,4794399903496E-10;
-9,17495977523715E-8;
-1,66889170835889E-7;
-1,89125103634059E-7;
-1,71103075176902E-7;
-1,65259228431288E-7;
-2,13907690967487E-7;
-3,02444825343294E-7;
-3,58557225322975E-7;
-3,03031950141504E-7;
-1,14204490592927E-7;
1,45448510535372E-7;
3,639072824316E-7;
4,5123636843953E-7;
3,95265857274957E-7;
2,611554422606E-7;
1,38320235179993E-7;
7,76208940380903E-8;
6,60407438908996E-8;
5,33699545790269E-8;
3,46357019942166E-9;
-7,4497763856571E-8;
-1,39035408411244E-7;
-1,58754618669205E-7;
-1,44305375531221E-7;
-1,40178824924873E-7;
-1,82336226975793E-7;
-2,58465956012904E-7;
-3,07265174999782E-7;
-2,61456244517121E-7;
-1,0239919346781E-7;
1,17316362503311E-7;
3,03052912328295E-7;
3,78623565453952E-7;
3,33373803708925E-7;
2,21912734993992E-7;
1,19442580994037E-7;
6,88508923795999E-8;
5,93300792765741E-8;
4,87618512633979E-8;
6,77648147961251E-9;
-5,89701684231179E-8;
-1,13697373670071E-7;
-1,31025321093869E-7;
-1,1977695743964E-7;
-1,17147648702269E-7;
-1,53261073589972E-7;
-2,17906319397093E-7;
-2,59879628812934E-7;
-2,22870222190356E-7;
-9,10405574529937E-8;
9,20627562590281E-8;
2,47718804858711E-7;
3,12352922110667E-7;
2,76731301137752E-7;
1,85842431930258E-7;
1,01904919937316E-7;
6,05060172158848E-8;
5,28481462990365E-8;
4,41971900417281E-8;
9,45269980418141E-9;
-4,51166061936044E-8;
-9,08380032218109E-8;
-1,05910689125994E-7;
-9,75020930902724E-8;
-9,6163864900202E-8;
-1,26696362868024E-7;
-1,80791996994986E-7;
-2,16444566698317E-7;
-1,87338171334582E-7;
-8,02087994111554E-8;
6,95941358881058E-8;
1,97813639831791E-7;
2,52352532544488E-7;
2,25301667000715E-7;
1,52946340207475E-7;
8,57353626672105E-8;
5,26334143295342E-8;
4,66481204620259E-8;
3,97269481150254E-8;
1,15503676276294E-8;
-3,28696122139452E-8;
-7,03901429553753E-8;
-8,33531563487823E-8;
-7,74397797546304E-8;
-7,71989924423443E-8;
-1,02614364117865E-7;
-1,47095206216847E-7;
-1,76940915141163E-7;
-1,54868373603642E-7;
-6,99652613813333E-8;
4,97896726476203E-8;
1,53180660448206E-7;
1,98471840212584E-7;
1,78981129745773E-7;
1,23183104641269E-7;
7,09432977627783E-8;
4,52655970073249E-8;
4,07678561928058E-8;
3,53979775116018E-8;
1,31278806468484E-8;
-2,21509927255071E-8;
-5,22567346546392E-8;
-6,32641950855265E-8;
-5,95217101504893E-8;
-6,01985130239142E-8;
-8,09618612606949E-8;
-1,16745564397618E-7;
-1,41292248570429E-7;
-1,25426547892462E-7;
-6,03576848022311E-8;
3,25090576256293E-8;
1,13611675696465E-7;
1,50497176228996E-7;
1,37607353790936E-7;
9,64700666838463E-8;
5,75162562008142E-8;
3,84233648300649E-8;
3,52368022677411E-8;
3,12431770347255E-8;
1,4242713849279E-8;
-1,28688798860246E-8;
-3,63293863678848E-8;
-4,5533739967113E-8;
-4,36588780578772E-8;
-4,50915377312371E-8;
-6,16531578085462E-8;
-8,96348943096349E-8;
-1,09386533314996E-7;
-9,89394872585879E-8;
-5,14142641924696E-8;
1,75955855117131E-8;
7,88575807622482E-8;
1,08161861400319E-7;
1,00974834389038E-7;
7,26973645858586E-8;
4,54255106895486E-8;
3,21194154679553E-8;
3,00754382554377E-8;
2,72938607516319E-8;
1,49512987027098E-8;
-4,92932293882756E-9;
-2,24815930343871E-8;
-3,00379029603357E-8;
-2,97486078385651E-8;
-3,17877026950301E-8;
-4,45874324766874E-8;
-6,56261714880464E-8;
-8,1070036480362E-8;
-7,53061134864935E-8;
-4,31546336180377E-8;
4,88208220511576E-9;
4,86419044726384E-8;
7,11630369149961E-8;
6,88403342303516E-8;
5,17290489429041E-8;
3,46243271376848E-8;
2,63542659258682E-8;
2,52982470400471E-8;
2,35700614394042E-8;
1,53070754915793E-8;
1,77192425030098E-9;
-1,05757746935232E-8;
-1,66377142679645E-8;
-1,76740966721661E-8;
-2,01858793922074E-8;
-2,96455203248164E-8;
-4,45625997877415E-8;
-5,61700611623352E-8;
-5,44005948422131E-8;
-3,55802993946544E-8;
-5,80050759494159E-9;
2,26628911573032E-8;
3,91669130395438E-8;
4,09378107767549E-8;
3,34104508428009E-8;
2,50605818641581E-8;
2,11234044650405E-8;
2,09069618026261E-8;
2,00884268486809E-8;
1,53620441361363E-8;
7,33659282292865E-9;
-4,7015973674412E-10;
-5,18720108812373E-9;
-7,31114067822911E-9;
-1,01766082389677E-8;
-1,66983433984424E-8;
-2,62660186401387E-8;
-3,4485781188097E-8;
-3,60814791638185E-8;
-2,8690729940906E-8;
-1,46276569716874E-8;
6,09082771774978E-10;
1,18224805519562E-8;
1,69813757060179E-8;
1,75773010470044E-8;
1,6669914168589E-8;
1,64142421470725E-8;
1,6903974908968E-8;
1,68569223141621E-8;
1,51607529979908E-8;
1,18675616415996E-8;
7,97984070879314E-9;
4,46317965897999E-9;
1,46532719242327E-9;
-1,64856773910815E-9;
-5,61015615069515E-9;
-1,05526499197098E-8;
-1,58076510585169E-8;
-2,01903251670191E-8;
-2,24703815122038E-8;
-2,17716658126239E-8;
-1,78394569621191E-8;
-1,12302146012584E-8;
-3,32489949093624E-9;
4,05106046832361E-9;
9,38307533252726E-9;
1,22094855900586E-8;
1,32810577632254E-8;
1,388207451462E-8;
1,47497808376946E-8;
1,54693798984487E-8;
1,49233319413756E-8;
1,24681377630405E-8;
8,78781607488169E-9;
5,51687887098597E-9;
3,76360209284139E-9;
2,77167010605555E-9;
8,25728033988365E-11;
-6,56051244403367E-9;
-1,69018930540791E-8;
-2,7405757526683E-8;
-3,30021151403588E-8;
-3,03575824003499E-8;
-2,02804452054131E-8;
-7,34482762543896E-9;
3,1258093784194E-9;
8,4895123670041E-9;
1,00324255739923E-8;
1,11660797879733E-8;
1,41674374388682E-8;
1,82396412361724E-8;
2,05051700335051E-8;
1,89801640201874E-8;
1,47882420037819E-8;
1,14385629838016E-8;
1,15641410851152E-8;
1,39016270851226E-8;
1,34097710524173E-8;
4,97907162251519E-9;
-1,19568655394343E-8;
-3,1690070041159E-8;
-4,51934836283815E-8;
-4,59207456283245E-8;
-3,41846704308077E-8;
-1,67917474291739E-8;
-2,1776116073058E-9;
5,22854727881794E-9;
7,14283033461731E-9;
8,70652648056152E-9;
1,34515132334882E-8;
2,02731404049562E-8;
2,48640085292796E-8;
2,41454541276322E-8;
1,95912902715636E-8;
1,62310532485073E-8;
1,79354281045664E-8;
2,30344806360157E-8;
2,4397976158717E-8;
1,45991206014445E-8;
-7,6093417033487E-9;
-3,47861604665718E-8;
-5,47239007858894E-8;
-5,82754671693896E-8;
-4,53335592294745E-8;
-2,44727306722277E-8;
-6,60632315801018E-9;
2,40071092754801E-9;
4,5963385006753E-9;
6,49594838908019E-9;
1,26328571748328E-8;
2,16617074918495E-8;
2,81373490207516E-8;
2,81106411613287E-8;
2,33251446423014E-8;
2,00086050860949E-8;
2,30172975681665E-8;
3,03626029077591E-8;
3,32671798845149E-8;
2,24734263556198E-8;
-3,82349418543067E-9;
-3,68422533692736E-8;
-6,18867483250839E-8;
-6,77638265725403E-8;
-5,40138201616225E-8;
-3,05613040063794E-8;
-1,02360543333248E-8;
-2,3294068402153E-11;
2,3735684186835E-9;
4,52813466513377E-9;
1,17439635354444E-8;
2,24904759452164E-8;
3,04544500049612E-8;
3,10132227014296E-8;
2,61080851701856E-8;
2,28829291990137E-8;
2,6945059983131E-8;
3,60703621230767E-8;
4,02336333708494E-8;
2,87715007209553E-8;
-5,65633758089563E-10;
-3,79994081493648E-8;
-6,69653235521781E-8;
-7,47183373872571E-8;
-6,05021604503208E-8;
-3,52275208767981E-8;
-1,31449006725223E-8;
-2,07281217991347E-9;
4,58064301156804E-10;
2,79200625363254E-9;
1,08051332926128E-8;
2,28387359004136E-8;
3,19388543315097E-8;
3,29843751346912E-8;
2,80563134945783E-8;
2,4959031823093E-8;
2,98490195674421E-8;
4,03418234464135E-8;
4,55071132306144E-8;
3,36565098633123E-8;
2,20222921339756E-9;
-3,8388849680434E-8;
-7,02276354469448E-8;
-7,94502473629981E-8;
-6,50600363008436E-8;
-3,86339715802076E-8;
-1,54049935989822E-8;
-3,77695036379948E-9;
-1,17296242934974E-9;
1,27781549473269E-9;
9,84433653073712E-9;
2,27826404990544E-8;
3,27048248016436E-8;
3,41467735464696E-8;
2,92751067570531E-8;
2,6334310715582E-8;
3,18535367315527E-8;
4,33464400127174E-8;
4,92817154141798E-8;
3,72850201649832E-8;
4,51856789874193E-9;
-3,81313419386917E-8;
-7,19224990434449E-8;
-8,22524527083847E-8;
-6,79371545481233E-8;
-4,0938520657859E-8;
-1,70902817562002E-8;
-5,16761378523329E-9;
-2,54059099787384E-9;
-2,74734602493207E-11;
8,87794503256752E-9;
2,23881873491359E-8;
3,28593533345447E-8;
3,4618181541538E-8;
2,98690536869449E-8;
2,71047795893853E-8;
3,30758715842005E-8;
4,52464139855668E-8;
5,17483010668654E-8;
3,9810014605787E-8;
6,42073418131406E-9;
-3,73379153914395E-8;
-7,22815236556288E-8;
-8,33996923288051E-8;
-6,93633088307465E-8;
-4,22833491026573E-8;
-1,82669509731478E-8;
-6,27277262593576E-9;
-3,66624149257433E-9;
-1,13926223835974E-9;
7,9214621453036E-9;
2,17182375875036E-8;
3,2500756734123E-8;
3,4502133374832E-8;
2,99275248557213E-8;
2,73575622467435E-8;
3,3626091455305E-8;
4,61919804455024E-8;
5,30814329481459E-8;
4,13707635088175E-8;
7,94512325967948E-9;
-3,61107081827158E-8;
-7,1519087097927E-8;
-8,31456589442936E-8;
-6,95558534641516E-8;
-4,28063835546391E-8;
-1,90011987978421E-8;
-7,12219454422892E-9;
-4,57271093042777E-9;
-2,0714294399474E-9;
6,99036430079323E-9;
2,08282301645663E-8;
3,17181568751582E-8;
3,38976604806275E-8;
2,95398238847361E-8;
2,71735346751997E-8;
3,36030070962974E-8;
4,63250951874994E-8;
5,34465738559434E-8;
4,20999634977043E-8;
9,13133677696829E-9;
-3,45375687742511E-8;
-6,98315702908837E-8;
-8,17224875393402E-8;
-6,87100488398811E-8;
-4,26328833511444E-8;
-1,93512616006819E-8;
-7,74281408861529E-9;
-5,27995443792491E-9;
-2,83584436093372E-9;
6,09341833762303E-9;
1,97677333513955E-8;
3,05937223844233E-8;
3,28939118824153E-8;
2,87848636438322E-8;
2,6624654915278E-8;
3,31011237816492E-8;
4,57755648769335E-8;
5,29924672143582E-8;
4,21219404967127E-8;
1,00152782908366E-8;
-3,27003257797056E-8;
-6,73921992675271E-8;
-7,93419262954981E-8;
-6,70106291507623E-8;
-4,18764647201877E-8;
-1,93742280375888E-8;
-8,1636456150531E-9;
-5,80858358151117E-9;
-3,44973776332688E-9;
5,24095197187143E-9;
1,85816767072756E-8;
2,91984902388862E-8;
3,15698208546705E-8;
2,77297838381823E-8;
2,57791149689387E-8;
3,2205330173048E-8;
4,46598292858692E-8;
5,18603611323769E-8;
4,15490656114625E-8;
1,06292050210725E-8;
-3,06703762446853E-8;
-6,43611026518899E-8;
-7,61939015802679E-8;
-6,4617309244141E-8;
-4,06431986015285E-8;
-1,91233630842884E-8;
-8,40920309155671E-9;
-6,17922069849476E-9;
-3,92453806704861E-9;
4,43955615693722E-9;
1,73073987312173E-8;
2,75990229400834E-8;
2,99990885993122E-8;
2,64432394011346E-8;
2,46969733549466E-8;
3,09907525206593E-8;
4,30858806237646E-8;
5,01715786938067E-8;
4,04834658578265E-8;
1,10083230562998E-8;
-2,85114815468043E-8;
-6,08814717421685E-8;
-7,24506967217668E-8;
-6,16797860934329E-8;
-3,90280475064787E-8;
-1,8643909876705E-8;
-8,50078161409369E-9;
-6,41010691368507E-9;
-4,27881626716406E-9;
3,69217109177316E-9;
1,59819757437468E-8;
2,58531264393693E-8;
2,82430301832197E-8;
2,49806125341639E-8;
2,34336332423227E-8;
2,95276983783332E-8;
4,11514029000814E-8;
4,80425432143184E-8;
3,90198922830349E-8;
1,11822943848858E-8;
-2,62766009970157E-8;
-5,70760428972218E-8;
-6,82638548036221E-8;
-5,83277836254572E-8;
-3,71133239239542E-8;
-1,79801234133609E-8;
-8,46550502772298E-9;
-6,52063531559137E-9;
-4,52199956396993E-9;
3,0043789231075E-9;
1,46308664867176E-8;
2,4009113490568E-8;
2,63597545722288E-8;
2,3390079140447E-8;
2,20350346848833E-8;
2,78783109548523E-8;
3,8942247962636E-8;
4,55758977767206E-8;
3,7243067047055E-8;
1,11789364127151E-8;
-2,40125136299367E-8;
-5,30552971078737E-8;
-6,3766160229295E-8;
-5,46786011526266E-8;
-3,49801062278331E-8;
-1,71682330618501E-8;
-8,3174134335382E-9;
-6,52741700153422E-9;
-4,66967375927545E-9;
2,37537816708522E-9;
1,32798616144932E-8;
2,21117789431856E-8;
2,43974446496901E-8;
2,1718718244997E-8;
2,05452164788261E-8;
2,60948142538346E-8;
3,65325537166451E-8;
4,2857781314895E-8;
3,52263936068832E-8;
1,10276472477329E-8;
-2,17574898625064E-8;
-4,89137720475324E-8;
-5,90740250170378E-8;
-5,08305414687697E-8;
-3,2688647591392E-8;
-1,62461820306035E-8;
-8,08099188442957E-9;
-6,4453549848978E-9;
-4,7330024684302E-9;
1,80702552778828E-9;
1,19503182917078E-8;
2,0198735197456E-8;
2,23966369616633E-8;
2,00010819737155E-8;
1,89994126915813E-8;
2,42247716243517E-8;
3,39901007657526E-8;
3,99695429674387E-8;
3,30385358428315E-8;
1,07512451020525E-8;
-1,95455139541584E-8;
-4,47302591438845E-8;
-5,42874694793314E-8;
-4,68751453025788E-8;
-3,03010680803355E-8;
-1,52442873077847E-8;
-7,77171236523474E-9;
-6,28904292541828E-9;
-4,72369037034059E-9;
1,29860013350361E-9;
1,06579954475894E-8;
1,83000007802087E-8;
2,03944085270532E-8;
1,82715472780756E-8;
1,74294753158251E-8;
2,23108879503108E-8;
3,13748236703975E-8;
3,69793307140892E-8;
3,0737796035494E-8;
1,03754840797897E-8;
-1,74023506872863E-8;
-4,05763952581129E-8;
-4,94919486727093E-8;
-4,28838828407423E-8;
-2,78657385327194E-8;
-1,41880256694916E-8;
-7,40354280409221E-9;
-6,07280984958523E-9;
-4,65351998471443E-9;
8,49126694824201E-10;
9,41598642427341E-9;
1,64399777550015E-8;
1,84202366341766E-8;
1,65578049613292E-8;
1,58612913613518E-8;
2,03848347508822E-8;
2,87328285148242E-8;
3,39450646206769E-8;
2,83721874485763E-8;
9,9169976370713E-9;
-1,53489623397245E-8;
-3,65042580117579E-8;
-4,4757064149391E-8;
-3,89224757334362E-8;
-2,54239618682741E-8;
-1,31001184253742E-8;
-6,99293759312413E-9;
-5,80647162062521E-9;
-4,53110257203789E-9;
4,55185637779927E-10;
8,23767900756578E-9;
1,46415580019237E-8;
1,64968823736629E-8;
1,48824252448557E-8;
1,43188417374101E-8;
1,8477754778811E-8;
2,61072774184423E-8;
3,09182569159926E-8;
2,5987135863434E-8;
9,39658845247446E-9;
-1,34013807406837E-8;
-3,25644402562535E-8;
-4,01447281524034E-8;
-3,50432802730158E-8;
-2,30152998521636E-8;
-1,20030526851726E-8;
-6,55088053470282E-9;
-5,50457109718083E-9;
-4,36771392286147E-9;
1,15082227700675E-10;
7,12754884451283E-9;
1,29219772818599E-8;
1,46465578656458E-8;
1,32609537226726E-8;
1,28189518686732E-8;
1,66155419326946E-8;
2,3533070680542E-8;
2,79396072237262E-8;
2,36200835560839E-8;
8,8297494473161E-9;
-1,15729016462064E-8;
-2,87895990476569E-8;
-3,56999146270418E-8;
-3,12882243694589E-8;
-2,06657626489835E-8;
-1,09116691088318E-8;
-6,08654118689462E-9;
-5,17379604147901E-9;
-4,16976093076638E-9;
-1,73376643303874E-10;
6,09113165374872E-9;
1,12913715102068E-8;
1,28836841775962E-8;
1,17115922639639E-8;
1,13773114616447E-8;
1,48152601281265E-8;
2,10382260976433E-8;
2,50435979214193E-8;
2,12998262611019E-8;
8,23244773078364E-9;
-9,87033478918713E-9;
-2,52112495793213E-8;
-3,14614174116282E-8;
-2,76903454156418E-8;
-1,8399249996354E-8;
-9,84193017098784E-9;
-5,61212591257563E-9;
-4,82391332578876E-9;
-3,94709212088541E-9;
-4,16368568689146E-10;
5,13339548066278E-9;
9,76267757667828E-9;
1,1219988905858E-8;
1,02427219352715E-8;
1,00050454001159E-8;
1,30936399486084E-8;
1,86467939571176E-8;
2,22603907846341E-8;
1,90510521864434E-8;
7,61372205679886E-9;
-8,30020203548315E-9;
-2,18480353121307E-8;
-2,74555910991611E-8;
-2,4277054733777E-8;
-1,62366467847676E-8;
-8,80427416867123E-9;
-5,13524776799248E-9;
-4,46332903440928E-9;
-3,70421588370383E-9;
-6,14461649352103E-10;
4,256763376678E-9;
8,33927096848266E-9;
9,66272312749401E-9;
8,86548491786602E-9;
8,7113995107279E-9;
1,14626005881498E-8;
1,63747539959135E-8;
1,96074227534503E-8;
1,68955529331421E-8;
6,99139144130437E-9;
-6,8628581827878E-9;
-1,87153190219184E-8;
-2,37038710215939E-8;
-2,10678932620063E-8;
-1,41906602240581E-8;
-7,80900898593082E-9;
-4,66188370086142E-9;
-4,09712816590912E-9;
-3,44887946177326E-9;
-7,72587567792238E-10;
3,45915323456634E-9;
7,02612093509354E-9;
8,21854247224977E-9;
7,58119045050491E-9;
7,50076435541831E-9;
9,93123557651949E-9;
1,42360409834321E-8;
1,71042370111871E-8;
1,48472678501324E-8;
6,36826885069502E-9;
-5,55965038176225E-9;
-1,58191610967722E-8;
-2,02192878491403E-8;
-1,80782058331134E-8;
-1,22725845310587E-8;
-6,86173221049377E-9;
-4,19913372950529E-9;
-3,73241454590976E-9;
-3,18664050793015E-9;
-8,95799180571838E-10;
2,74043699273019E-9;
5,82336227469943E-9;
6,88985840516585E-9;
6,39775866120505E-9;
6,37895806039589E-9;
8,50505475331645E-9;
1,22399108084017E-8;
1,47621380912091E-8;
1,29198456229528E-8;
5,75782370204301E-9;
-4,38582438632113E-9;
-1,31655030485344E-8;
-1,70083715717279E-8;
-1,53111843381344E-8;
-1,04897835105774E-8;
-5,97133002199859E-9;
-3,74998792760556E-9;
-3,37171458445013E-9;
-2,9205278394116E-9;
-9,8556518518279E-10;
2,09861535200001E-9;
4,7322425140202E-9;
5,67776316182821E-9;
5,31202324402124E-9;
5,34585603209427E-9;
7,18806325603646E-9;
1,03906022622847E-8;
1,25873946407467E-8;
1,11189083782208E-8;
5,16166003360242E-9;
-3,33982782242668E-9;
-1,07534047177537E-8;
-1,40749663839246E-8;
-1,27727284624756E-8;
-8,84356185155781E-9;
-5,13729059265194E-9;
-3,3202506964277E-9;
-3,02323623582366E-9;
-2,65615388127512E-9;
-1,04647328924525E-9;
1,53131820585261E-9;
3,75063412941922E-9;
4,58027656769999E-9;
4,32736873241839E-9;
4,40417964857367E-9;
5,98013893445176E-9;
8,69305370115956E-9;
1,05845037987101E-8;
9,44875094147779E-9;
4,58859417915056E-9;
-2,41568052766405E-9;
-8,57826396986524E-9;
-1,14148290582634E-8;
-1,04635082121988E-8;
-7,33805321243664E-9;
-4,36517928250925E-9;
-2,91195283909476E-9;
-2,68537187732685E-9;
-2,39492169699017E-9;
-1,0821755121493E-9;
1,03368447355359E-9;
2,87300651019799E-9;
3,59421444482177E-9;
3,43926789467302E-9;
3,55099017413414E-9;
4,88286648608104E-9;
7,14550835875055E-9;
8,75422544451486E-9;
7,91549132705068E-9;
4,04241057672705E-9;
-1,60862007839812E-9;
-6,63413692101449E-9;
-9,02229449725716E-9;
-8,3778000910047E-9;
-5,97135919540447E-9;
-3,65406653611711E-9;
-2,52572064992523E-9;
-2,36397628041329E-9;
-2,14166109931283E-9;
-1,09653072874717E-9;
6,01615063881356E-10;
2,09777017007922E-9;
2,71719441497742E-9;
2,64623939089938E-9;
2,78495151350771E-9;
3,89136822006784E-9;
5,74517628860471E-9;
7,09478664918614E-9;
6,51536374791101E-9;
3,52591820625455E-9;
-9,07524947163446E-10;
-4,90956516984756E-9;
-6,88886148243136E-9;
-6,50975633859152E-9;
-4,73935475888349E-9;
-3,00531448564332E-9;
-2,16670369403096E-9;
-2,0597085686787E-9;
-1,8978742289417E-9;
-1,09168299202988E-9;
2,33725533521667E-10;
1,41947476833281E-9;
1,94462902392594E-9;
1,94407218319044E-9;
2,10313278980411E-9;
3,00625714174569E-9;
4,49000425236524E-9;
5,60155279291219E-9;
5,24764363103334E-9;
3,04038750244512E-9;
-3,10861569198496E-10;
-3,39606139519419E-9;
-5,00389249697817E-9;
-4,85142025797367E-9;
-3,6371260796641E-9;
-2,4176946620708E-9;
-1,83317230452859E-9;
-1,7739999750666E-9;
-1,66564605166524E-9;
-1,07098008374249E-9;
-7,86429578946429E-11;
8,30669369102059E-10;
1,26888728433633E-9;
1,32679088023538E-9;
1,50232742789152E-9;
2,22054969212784E-9;
3,37189500551205E-9;
4,26991552790653E-9;
4,10971204842174E-9;
2,5892457837651E-9;
1,92495495126517E-10;
-2,08104217381119E-9;
-3,35271548295851E-9;
-3,39350630626074E-9;
-2,66359401655994E-9;
-1,88962036930197E-9;
-1,52602943816468E-9;
-1,5078943245546E-9;
-1,44526098092114E-9;
-1,03712631868704E-9;
-3,37951940978396E-10;
3,26051425253418E-10;
6,85786581435994E-10;
7,92394057845908E-10;
9,76513711191891E-10;
1,53089273184253E-9;
2,38808403728556E-9;
3,09169906908802E-9;
3,09689771415302E-9;
2,1731202029316E-9;
6,09808962627683E-10;
-9,4975627282119E-10;
-1,92199404674745E-9;
-2,12321383144249E-9;
-1,80887276784675E-9;
-1,42039754551509E-9;
-1,24705355068372E-9;
-1,26311230070365E-9;
-1,24013822998711E-9;
-9,93259283348099E-10;
-5,47924256110907E-10;
-9,99858646993987E-11;
1,86119581848122E-10;
3,32612453655437E-10;
5,23003405804537E-10;
9,30233108478387E-10;
1,52835985257066E-9;
2,06030217126998E-9;
2,20227228356112E-9;
1,79170550223466E-9;
9,50111816663247E-10;
9,7534047932624E-12;
-6,97980188923617E-10;
-1,02938952259009E-9;
-1,0660999835436E-9;
-1,00503417929864E-9;
-9,93346737820083E-10;
-1,03782261332591E-9;
-1,04825581110238E-9;
-9,41447023373081E-10;
-7,17323236660757E-10;
-4,54885686987742E-10;
-2,32128940915446E-10;
-5,67469707654888E-11;
1,34607982575819E-10;
4,14803359286086E-10;
7,86998579894297E-10;
1,16519151060411E-9;
1,4196587487871E-9;
1,44420339133893E-9;
1,21835352805758E-9;
8,11891300658281E-10;
3,37400305717914E-10;
-9,74401833533546E-11;
-4,27721987098012E-10;
-6,42167770065242E-10;
-7,65034969516208E-10;
-8,34089646539376E-10;
-8,74012914075523E-10;
-8,8271263603275E-10;
-8,45079683222543E-10;
-7,44517383359033E-10;
-5,79554799504238E-10;
-3,81667821112623E-10;
-1,92284886075934E-10;
-2,47532622544311E-11;
1,5283064666286E-10;
3,99348785029122E-10;
7,42842705264406E-10;
1,13043871610403E-9;
1,42461548377622E-9;
1,46979871722626E-9;
1,19804530777084E-9;
6,84235727729763E-10;
1,13713479204236E-10;
-3,27727155413229E-10;
-5,63248794455723E-10;
-6,49995933827557E-10;
-7,11257124589375E-10;
-8,19948173315482E-10;
-9,40893000550122E-10;
-9,75761905481977E-10;
-8,61410171698614E-10;
-6,47973344956601E-10;
-4,64027931100589E-10;
-3,92335030093304E-10;
-3,800927995865E-10;
-2,50350699735464E-10;
1,64364282155177E-10;
8,50830910548037E-10;
1,57447464691393E-9;
1,99894619927305E-9;
1,90037916417417E-9;
1,32780673874322E-9;
5,64488263387589E-10;
-6,01406901366216E-11;
-3,84097845745014E-10;
-4,85704838756643E-10;
-5,64175401716648E-10;
-7,54047191827551E-10;
-1,00660272041646E-9;
-1,15385508551395E-9;
-1,08489418448191E-9;
-8,61726743610947E-10;
-6,82315510792817E-10;
-6,93513823155603E-10;
-8,22660515388139E-10;
-7,91615908419238E-10;
-3,23960134117988E-10;
6,03014004461414E-10;
1,67645264833023E-9;
2,41169278653697E-9;
2,4620771530026E-9;
1,84859293563754E-9;
9,3498461233818E-10;
1,67265408742305E-10;
-2,27867080943733E-10;
-3,40417639535464E-10;
-4,32860259298452E-10;
-6,87474949725952E-10;
-1,04507976375032E-9;
-1,28580038411244E-9;
-1,25525551633887E-9;
-1,02797761285312E-9;
-8,57549686598724E-10;
-9,37114339919913E-10;
-1,18078976522078E-9;
-1,23287429742546E-9;
-7,29171328403306E-10;
3,85302970044826E-10;
1,73670141978476E-9;
2,72190689597966E-9;
2,8950717137373E-9;
2,25703893788433E-9;
1,23304244934286E-9;
3,54926794459241E-10;
-9,35235401145558E-11;
-2,11324320629222E-10;
-3,14783559724444E-10;
-6,20835121309296E-10;
-1,06217100645657E-9;
-1,37746307010468E-9;
-1,37929094237535E-9;
-1,15116338058291E-9;
-9,9036841981619E-10;
-1,12778218205655E-9;
-1,46503123536155E-9;
-1,58678771124386E-9;
-1,05937353697612E-9;
1,96063917787168E-10;
1,75917898002848E-9;
2,94008343767215E-9;
3,21574930770531E-9;
2,56667021378489E-9;
1,46352378757881E-9;
5,07682406651485E-10;
2,2036140971193E-11;
-9,96871167388612E-11;
-2,10217601795533E-10;
-5,55190470119661E-10;
-1,05950691510043E-9;
-1,43281866857608E-9;
-1,46248019595381E-9;
-1,23769372357521E-9;
-1,08868799459399E-9;
-1,27064482438429E-9;
-1,68124395390194E-9;
-1,86035890723501E-9;
-1,32188502215348E-9;
3,16236030231204E-11;
1,75229434059339E-9;
3,08074463332054E-9;
3,4366685862254E-9;
2,78955185714049E-9;
1,63752005350669E-9;
6,3004248799324E-10;
1,2020568828837E-10;
-4,13452020264678E-12;
-1,19536797046883E-10;
-4,90329824459675E-10;
-1,04138204052624E-9;
-1,45890386560087E-9;
-1,51017761888486E-9;
-1,29186413810145E-9;
-1,15447544520665E-9;
-1,37258762105199E-9;
-1,83948276728853E-9;
-2,06328953501886E-9;
-1,52365781821448E-9;
-1,06326766243824E-10;
1,71959643450112E-9;
3,15163038234322E-9;
3,57155787899018E-9;
2,9349746973515E-9;
1,75879235729589E-9;
7,22204303179451E-10;
1,99293486155207E-10;
7,61659647731233E-11;
-4,05331078141637E-11;
-4,28011607093435E-10;
-1,00988180455535E-9;
-1,4578249906962E-9;
-1,5289676368734E-9;
-1,31934556672399E-9;
-1,19265286818667E-9;
-1,43808527939861E-9;
-1,9456706807682E-9;
-2,20563022822534E-9;
-1,67226975135378E-9;
-2,21318665834068E-10;
1,66600702670248E-9;
3,16473489813581E-9;
3,63276003723515E-9;
3,01495443315795E-9;
1,83551478826631E-9;
7,90249096730757E-10;
2,64601134336081E-10;
1,44037614796863E-10;
2,65881598163124E-11;
-3,70598487026484E-10;
-9,69643276249133E-10;
-1,43633798799383E-9;
-1,52153463985057E-9;
-1,32203081716741E-9;
-1,20726632535256E-9;
-1,47236567037884E-9;
-2,00630659133654E-9;
-2,29110395261526E-9;
-1,77213792436434E-9;
-3,16142235654825E-10;
1,59644028926663E-9;
3,13006838601663E-9;
3,63093089521159E-9;
3,03850435623457E-9;
1,87431415319689E-9;
8,36281763019254E-10;
3,16001112599645E-10;
1,98952180029115E-10;
8,28822457116253E-11;
-3,15090740055711E-10;
-9,19642678873803E-10;
-1,39633395456116E-9;
-1,49309105311733E-9;
-1,30500061807065E-9;
-1,20213762194247E-9;
-1,47983154332646E-9;
-2,02899645271473E-9;
-2,33234207361517E-9;
-1,83263973667085E-9;
-3,92353632083808E-10;
0,00933343556003228;
0,0226297328798067;
0,0163727408524766;
0,00943309919057254;
0,012169393664586;
0,00702616819393023;
0,0056348174844229;
0,00458271029692294;
0,000840500220800003;
0,00103239210820394;
-0,00119044036034722;
-0,00199195400047531;
-0,00280713838280925;
-0,00455368259173785;
-0,00488732617968391;
-0,00585590217333773;
-0,00594121929154608;
-0,00618249065476164;
-0,00699357852424462;
-0,00792070399785279;
-0,00934888657198526;
-0,0102428857650997;
-0,0105184959152388;
-0,0101085201933641;
-0,00920766281037803;
-0,00843029592680976;
-0,0078304337855721;
-0,00745747122138092;
-0,00704805310986192;
-0,00641867728489964;
-0,00567545443812144;
-0,00495848854926566;
-0,00445308280202586;
-0,00409076863733624;
-0,00366382701382684;
-0,00302656886874268;
-0,00222823452504626;
-0,00157283137369987;
-0,00136107831058608;
-0,00166524606842144;
-0,00222572409883024;
-0,00258705896034765;
-0,00240675897458801;
-0,00165718186356094;
-0,000624732204571766;
0,000316670568917893;
0,000963663924143461;
0,00137586916974244;
0,00176513194722389;
0,00227846175891186;
0,00287371109296018;
0,00337820784907441;
0,00366494095738411;
0,00378442442238889;
0,00392474653730626;
0,00423344667993588;
0,00465410122642448;
0,00492912724491752;
0,00478539429535827;
0,00416205538333411;
0,00329839533649362;
0,00260120759575468;
0,00238404994538922;
0,00267133720161065;
0,00320917237656618;
0,00366539641391306;
0,00385876867852637;
0,00384594496590887;
0,00381730524529036;
0,00390618874086821;
0,00407638862642774;
0,00417461883310947;
0,00408914692411739;
0,0038659374067853;
0,00367394972973682;
0,00364551803453878;
0,00373088191747602;
0,0037012541005266;
0,00331394717037137;
0,00251555429654046;
0,0015195654899874;
0,000688091274219601;
0,000299924513616688;
0,00037649892380159;
0,000692036677115267;
0,000951433213212358;
0,000993755684590506;
0,000869183818122628;
0,000746304887747985;
0,000742935738315498;
0,000826535300145968;
0,000860913840365004;
0,000746774299098;
0,000524375712908745;
0,00034264083111866;
0,00031791755279118;
0,000405550749291932;
0,000402858345944468;
9,51179656846244E-5;
-0,000565181500083246;
-0,0107236154750626;
-0,0246910014676324;
-0,018706351675385;
-0,0116223568618232;
-0,0139972371586954;
-0,00853592209921196;
-0,00701192086191098;
-0,00596902252881392;
-0,00223033964751255;
-0,0023172718606591;
8,97655787839713E-5;
0,00103463514083431;
0,00186474184699884;
0,00353260163807623;
0,00382392572606754;
0,00488786209419921;
0,00516656089193627;
0,00552145425387432;
0,0061783511774902;
0,00664177210112519;
0,00746064965698819;
0,00787759810997964;
0,00802158886421116;
0,00784053239163981;
0,0073546259657553;
0,00695105669271771;
0,00655991830666317;
0,00626843207595996;
0,00594145101339215;
0,00548465808445121;
0,00497855026127315;
0,0044587957208814;
0,0040346358479063;
0,00366783275717765;
0,00326335343920063;
0,00276323383720728;
0,00218226830963041;
0,00167054813867516;
0,00136622278534013;
0,0013057600961242;
0,00137147208144154;
0,00134804541771047;
0,00107699313188841;
0,000543585895333507;
-0,000116333126702592;
-0,00072458244354374;
-0,00118434665126029;
-0,00152244903584795;
-0,00184024487979391;
-0,0022079446109691;
-0,002605318608475;
-0,00294924232327036;
-0,00317776951452725;
-0,00331523478543654;
-0,00345292308578649;
-0,00366309327918573;
-0,00391872342357528;
-0,00409378009648801;
-0,00405387502078772;
-0,00376838382858579;
-0,00335501973044846;
-0,00301538348603512;
-0,00290602616813597;
-0,00304040452679176;
-0,00329290836337557;
-0,00349792610165424;
-0,00356466087679105;
-0,00352164889522703;
-0,00346521616859267;
-0,00346340006002209;
-0,00349853036058146;
-0,00349315148735447;
-0,00339050116856887;
-0,003214195999804;
-0,00305115732688445;
-0,00297002214589339;
-0,00294586875173535;
-0,00286092615544986;
-0,00258939629088646;
-0,00210309206270204;
-0,00151283550235658;
-0,00100787901577267;
-0,000734994255884517;
-0,000706569067279663;
-0,000804731101127293;
-0,000874202098055874;
-0,000829829632457562;
-0,000698122499908409;
-0,000568858721642738;
-0,000505246860852149;
-0,000490307770927705;
-0,000451225633599113;
-0,000334549448557751;
-0,000161839988590336;
-1,36449462921362E-5;
4,66535713700169E-5;
4,29403666272819E-5;
8,55680453561501E-5;
0,000292249729440028;
0,000689729978168483;
0,00117541366314856;
0,0015738901764806;
0,00174943111759007;
0,00169131905688208;
0,00150982712574813;
0,00134983281050673;
0,00129097317385554;
0,00130920982802914;
0,00132185087195869;
0,00127090376261605;
0,0011727142870952;
0,00109530310383437;
0,00108867075349386;
0,00113332859753341;
0,00115522325822165;
0,00109622994442219;
0,000978921385589659;
0,000905710986029364;
0,000985676330657488;
0,00124377262563643;
0,00158554349334833;
0,00184943315682769;
0,00191061617405644;
0,00175959660111584;
0,00149834240347592;
0,001260568393211;
0,00111977191377733;
0,00105394621559531;
0,000987128384617078;
0,000866119350317035;
0,000706078464900082;
0,000569605691457766;
0,000502666224526383;
0,000487362528514531;
0,000455720784322168;
0,000354428833096716;
0,00020420940098966;
9,89327435708841E-5;
0,000138465936289859;
0,000345511503937228;
0,000633404015079428;
0,00085413660775588;
0,000893434297972757;
0,000742588638887737;
0,000494784391122197;
0,000272122093008162;
0,000141579985294844;
8,28697449800943E-5;
2,64724621296653E-5;
-7,63033218803626E-5;
-0,000211769427597534;
-0,000323009318062093;
-0,000368322193207546;
-0,000364219716978517;
-0,000372793916607292;
-0,0004427335784035;
-0,000555323985899767;
-0,000625343808797676;
-0,000562199551132594;
-0,000345503932354692;
-5,42354941544319E-5;
0,00017700178791662;
0,000244346513837309;
0,000139816473003403;
-5,21461506496953E-5;
-0,000220952846379866;
-0,000306057947399201;
-0,000326011480038494;
-0,000343916642057849;
-0,000403962693016829;
-0,000493856309537605;
-0,000562215723021853;
-0,000571456027288696;
-0,000536624487338111;
-0,000513920069157107;
-0,000547380626295942;
-0,000620159845998336;
-0,000655417035025942;
-0,000571530877573264;
-0,000350239739051309;
-6,2836105395711E-5;
0,000169349675766421;
0,000252780616168214;
0,000180303356029888;
2,79297865067994E-5;
-0,000104872739740633;
-0,0001636997099177;
-0,000165257573983758;
-0,000166248003452536;
-0,000206336679861966;
-0,000274461505115645;
-0,000324502982724039;
-0,000322751586386943;
-0,000282699677938427;
-0,00025469301739508;
-0,000278136428014835;
-0,000337891506464043;
-0,000365145596965673;
-0,000286870280122935;
-8,67516520602171E-5;
0,000171472903068929;
0,000379420860868891;
0,000453623942378067;
0,000387793560195144;
0,000249850077153585;
0,000128576593010943;
7,25121750361523E-5;
6,67934643018158E-5;
6,0949934626182E-5;
1,97225519092231E-5;
-4,69757433684575E-5;
-9,80594414227565E-5;
-0,000103515781014949;
-7,53098054155834E-5;
-5,81343023185268E-5;
-8,69262223303101E-5;
-0,000148180103850103;
-0,000180785176360833;
-0,000119950085134339;
4,87823775726185E-5;
0,000268925818479887;
0,000444502013467616;
0,000501670171757936;
0,000434944145555355;
0,000304474694661462;
0,000188803306311462;
0,000130843019252974;
0,000117472407229927;
0,000104147954765711;
5,97872050627292E-5;
-6,82641028095448E-6;
-5,94405361438988E-5;
-7,15965590900127E-5;
-5,383470817377E-5;
-4,5498084072605E-5;
-7,73090371925162E-5;
-0,000137355851886705;
-0,000171889574786614;
-0,000123980553381637;
1,90361742029917E-5;
0,000207530788803641;
0,000357264077768254;
0,00040348726210987;
0,000341429452039008;
0,000223833041204221;
0,000119498326610305;
6,59783284531223E-5;
5,17706939791924E-5;
3,79087128672761E-5;
-2,77334878604221E-6;
-6,25929625436319E-5;
-0,000109894769075153;
-0,000121603210904615;
-0,000106937509977875;
-0,000100217281210247;
-0,000128215877700174;
-0,000180550180192219;
-0,00021043119071265;
-0,000168351155034527;
-4,33442759969995E-5;
0,000121401816020505;
0,000252677188116265;
0,000294264153535326;
0,000242043897427758;
0,000141780766719831;
5,31146355320137E-5;
8,55988408556829E-6;
-1,87136478545946E-6;
-1,19204825340197E-5;
-4,50876752429931E-5;
-9,47281728862916E-5;
-0,000133496205622369;
-0,000141484034894959;
-0,000126672847876802;
-0,000118681363877221;
-0,000140590219414683;
-0,000183445388685009;
-0,000206958608157012;
-0,000168547238918144;
-5,88215667195855E-5;
8,5053210295292E-5;
0,000200163112539262;
0,000238248889250409;
0,000195801267103536;
0,000112086471163601;
3,82200933672698E-5;
2,03602486841898E-6;
-5,03326467714648E-6;
-1,18589047314444E-5;
-3,85248231518761E-5;
-7,93429416803251E-5;
-0,000110962012878355;
-0,000116405059589534;
-0,000102492431256151;
-9,44705237376731E-5;
-0,000111986415063217;
-0,000147403319286595;
-0,000166448561381734;
-0,000132943117518918;
-3,89430621873876E-5;
8,39742287858222E-5;
0,000182431580683301;
0,000215537070450335;
0,000180349364399645;
0,000110134171059792;
4,81393213042124E-5;
1,78854299407445E-5;
1,21249732424737E-5;
6,48793802621979E-6;
-1,59531706363782E-5;
-5,03875550542841E-5;
-7,71398987441464E-5;
-8,19267051414908E-5;
-7,04928700698835E-5;
-6,40549407848496E-5;
-7,90974289881568E-5;
-0,000109192821476802;
-0,000125596155143846;
-9,80087088400452E-5;
-1,98085750822207E-5;
8,25638597728259E-5;
0,000164488892033051;
0,000191834977962074;
0,000162180166847702;
0,000103287193526528;
5,11932845806194E-5;
2,54690047892498E-5;
2,00771553844963E-5;
1,47683372066007E-5;
-4,4978800763245E-6;
-3,37148994944825E-5;
-5,65695831679726E-5;
-6,12404630265998E-5;
-5,24899973545702E-5;
-4,78555593362385E-5;
-6,09370668386222E-5;
-8,64136231334659E-5;
-0,000100584872340132;
-7,85145951541134E-5;
-1,47854077758572E-5;
6,88427624877907E-5;
0,000135724422480318;
0,000157878925380855;
0,000133352302298026;
8,48972427211806E-5;
4,19915136442527E-5;
2,06135648727434E-5;
1,58241388548453E-5;
1,11136181103754E-5;
-4,94091165703436E-6;
-2,90662936399073E-5;
-4,80022158210171E-5;
-5,21616520243269E-5;
-4,54182619912314E-5;
-4,19782277104242E-5;
-5,28321489413217E-5;
-7,36644794058937E-5;
-8,53427388959854E-5;
-6,77828706965683E-5;
-1,66568230799689E-5;
5,05058136202906E-5;
0,00010426298115996;
0,000122186485943972;
0,0001027415244556;
6,41568108876656E-5;
2,99914627258464E-5;
1,29841631956709E-5;
9,18447448079962E-6;
5,45074559005988E-6;
-7,28465266099294E-6;
-2,64107893755378E-5;
-4,14156787434977E-5;
-4,47225506679188E-5;
-3,94060880628657E-5;
-3,6679183349957E-5;
-4,5189573662806E-5;
-6,15260037236381E-5;
-7,06570951794125E-5;
-5,6852108186587E-5;
-1,67587469773523E-5;
3,5887264002503E-5;
7,80996765733841E-5;
9,24235078112815E-5;
7,76982884379296E-5;
4,81030585957242E-5;
2,19020325419604E-5;
8,9374558440836E-6;
6,14352662941243E-6;
3,38808532151694E-6;
-6,29324836953772E-6;
-2,08810561389189E-5;
-3,23156382799504E-5;
-3,48124770261394E-5;
-3,0732805667984E-5;
-2,86211485581472E-5;
-3,50380725336662E-5;
-4,73777472175568E-5;
-5,42588456335665E-5;
-4,38226095657117E-5;
-1,35826516059459E-5;
2,60996060124486E-5;
5,79753390168187E-5;
6,90069155752754E-5;
5,83662227725991E-5;
3,66390442248591E-5;
1,73939914687764E-5;
7,90653923729825E-6;
5,89579009976606E-6;
3,89576528496443E-6;
-3,19576339499065E-6;
-1,38828898121886E-5;
-2,2274766726747E-5;
-2,41706703740214E-5;
-2,13003164597506E-5;
-1,9850449826261E-5;
-2,45386722198177E-5;
-3,34702103373587E-5;
-3,84835848524997E-5;
-3,11334131998275E-5;
-9,69515046800539E-6;
1,84436960997969E-5;
4,10871304434557E-5;
4,90855468704155E-5;
4,19031585424957E-5;
2,69663455247369E-5;
1,37173574613931E-5;
7,17753493671686E-6;
5,7555502101672E-6;
4,32518501002203E-6;
-5,82808825653672E-7;
-7,93196428780393E-6;
-1,37321190122349E-5;
-1,51694564516524E-5;
-1,34204153444341E-5;
-1,26085268277843E-5;
-1,58399438064955E-5;
-2,18420975267054E-5;
-2,52671506847935E-5;
-2,06504018365549E-5;
-6,93161945630983E-6;
1,10968823568683E-5;
2,56453696581768E-5;
3,09526441558944E-5;
2,67372566557158E-5;
1,76747845601926E-5;
9,61696483111156E-6;
5,62488624425147E-6;
4,70660137774786E-6;
3,76820517124157E-6;
7,5765489271923E-7;
-3,68801782288207E-6;
-7,2276604948135E-6;
-8,24979488345411E-6;
-7,45136555551899E-6;
-7,16935550705612E-6;
-9,11575854186276E-6;
-1,25570070864066E-5;
-1,45783772020094E-5;
-1,22907622326091E-5;
-5,20723911417091E-6;
4,12031374676864E-6;
1,17033553170606E-5;
1,47018519237173E-5;
1,30532600475238E-5;
9,06420218174246E-6;
5,49636188528507E-6;
3,72488364884268E-6;
3,27297309643605E-6;
2,79225692550631E-6;
1,44680543269259E-6;
-4,6974913088074E-7;
-2,03071000622618E-6;
-2,65501422010399E-6;
-2,62877665286126E-6;
-2,75981312242153E-6;
-3,5679271610199E-6;
-4,78100017021407E-6;
-5,56361517743031E-6;
-5,22586439916305E-6;
-3,76961468629759E-6;
-1,83561396334585E-6;
-1,72569256508642E-7;
8,6744185183926E-7;
1,40813480059836E-6;
1,74125602186646E-6;
2,00220697839448E-6;
2,1343009281397E-6;
2,09804817057248E-6;
2,02542016811605E-6;
2,1107961538306E-6;
2,35642508489666E-6;
2,49148587773282E-6;
2,22554554502363E-6;
1,62001082255658E-6;
1,15879382855964E-6;
1,32809254719511E-6;
2,01028607918426E-6;
2,28784193278194E-6;
9,98449888689365E-7;
-2,27065064679502E-6;
-6,5522917079232E-6;
-9,87202076977785E-6;
-1,04924765004463E-5;
-8,13358312013551E-6;
-4,1928276849952E-6;
-7,34810232830383E-7;
9,85458608840497E-7;
1,29436165422303E-6;
1,56087255109776E-6;
2,83931372907591E-6;
4,88835386289241E-6;
6,43861832248751E-6;
6,47387048786756E-6;
5,34505000608189E-6;
4,61038080252781E-6;
5,59168750630795E-6;
7,84730192642312E-6;
9,00531145090447E-6;
6,36845281866137E-6;
-8,1576336228009E-7;
-1,0249318154034E-5;
-1,77064883569361E-5;
-1,97242939676444E-5;
-1,58936103149284E-5;
-9,00414544413057E-6;
-2,93184087169874E-6;
8,27525586740048E-8;
6,667975855172E-7;
1,20466525648151E-6;
3,45553658458354E-6;
6,97802547795488E-6;
9,6851768546843E-6;
9,96737671584761E-6;
8,41235228412316E-6;
7,45507473485513E-6;
9,09824691197824E-6;
1,26357942581942E-5;
1,45123625513842E-5;
1,07835056536203E-5;
4,21491016611927E-7;
-1,31960076750926E-5;
-2,40196174546192E-5;
-2,71903222898988E-5;
-2,21947480234258E-5;
-1,29461177561252E-5;
-4,78022038415584E-6;
-7,30785031773109E-7;
7,12741626798563E-8;
8,25505837700692E-7;
3,85590502824411E-6;
8,56030773872795E-6;
1,21974684290015E-5;
1,26838238040529E-5;
1,07962872208194E-5;
9,66848804645205E-6;
1,18445858661774E-5;
1,64078088435304E-5;
1,88632610217679E-5;
1,42782602400307E-5;
1,40782065241384E-6;
-1,55166091842584E-5;
-2,90063716168183E-5;
-3,31025608458307E-5;
-2,72099059160388E-5;
-1,61240281318814E-5;
-6,32522907397469E-6;
-1,46791687630159E-6;
-4,93833914170407E-7;
4,32353879205912E-7;
4,07403414358419E-6;
9,70346057905147E-6;
1,40712427339852E-5;
1,47267067151558E-5;
1,25933889465871E-5;
1,13443907229519E-5;
1,39407631113465E-5;
1,93030268314504E-5;
2,22145225613308E-5;
1,69854371259691E-5;
2,20527805994719E-6;
-1,72421131175365E-5;
-3,27713657512947E-5;
-3,75875583268293E-5;
-3,10334983198399E-5;
-1,85726594744886E-5;
-7,54934348990438E-6;
-2,08522301477121E-6;
-9,79727389359959E-7;
7,89164651659144E-8;
4,18214764624668E-6;
1,05079080820316E-5;
1,54283625003544E-5;
1,62205045391741E-5;
1,39167737835182E-5;
1,25886957366597E-5;
1,55039013263019E-5;
2,14627208198352E-5;
2,47194885509215E-5;
1,90317365702821E-5;
2,86927409127425E-6;
-1,84096186596078E-5;
-3,54254968509997E-5;
-4,0780465793346E-5;
-3,37731152305875E-5;
-2,03455802544626E-5;
-8,45885927234933E-6;
-2,56667485818705E-6;
-1,36737594286021E-6;
-2,13000006592782E-7;
4,21798089323472E-6;
1,1036728126305E-5;
1,63510269329952E-5;
1,72488410489589E-5;
1,48383969715069E-5;
1,34658197263388E-5;
1,66085199401753E-5;
2,29839523972187E-5;
2,64864731867365E-5;
2,05001934781118E-5;
3,41538622020216E-6;
-1,90909963268696E-5;
-3,71102577963473E-5;
-4,28454213429811E-5;
-3,55664267380657E-5;
-2,15288489512347E-5;
-9,09446769100879E-6;
-2,93102536026062E-6;
-1,6717277209997E-6;
-4,54680716283958E-7;
4,18640159169683E-6;
1,13198975681239E-5;
1,68885148672977E-5;
1,78636909230297E-5;
1,54006413428127E-5;
1,40124657136605E-5;
1,73022718611219E-5;
2,39370387886628E-5;
2,75978637361262E-5;
2,14509418584337E-5;
3,84187170242011E-6;
-1,93686575790454E-5;
-3,79720579087386E-5;
-4,39488050696045E-5;
-3,65537588501847E-5;
-2,22131846370229E-5;
-9,50311908744868E-6;
-3,20340192089644E-6;
-1,91307610871175E-6;
-6,61729787549269E-7;
4,08813209589236E-6;
1,1382792897851E-5;
1,70854044179288E-5;
1,81132728460971E-5;
1,56438513780125E-5;
1,42647090194019E-5;
1,76324047467078E-5;
2,43912785293382E-5;
2,81350827393797E-5;
2,19454858945838E-5;
4,15334895236263E-6;
-1,93124576032874E-5;
-3,81398036536872E-5;
-4,42377041353219E-5;
-3,68576444569436E-5;
-2,24747077327011E-5;
-9,71997318858293E-6;
-3,3984012836859E-6;
-2,10125626359509E-6;
-8,39403596846576E-7;
3,93325265247709E-6;
1,12585151117374E-5;
1,69927216269476E-5;
1,80520965661799E-5;
1,56153156801584E-5;
1,42659039488823E-5;
1,76525976171876E-5;
2,44206927642759E-5;
2,81832852372963E-5;
2,20504775805169E-5;
4,36375785046974E-6;
-1,89774621188506E-5;
-3,77233910508278E-5;
-4,38391946503198E-5;
-3,65829448491032E-5;
-2,23759096534732E-5;
-9,77016092427449E-6;
-3,52257026498593E-6;
-2,23877587667888E-6;
-9,86341588334926E-7;
3,73688185694559E-6;
1,09830122067124E-5;
1,66625684752053E-5;
1,77351465885259E-5;
1,5363068047874E-5;
1,4060145687914E-5;
1,7416092475879E-5;
2,40968763287093E-5;
2,78239720051596E-5;
2,18301490058696E-5;
4,48870783205476E-6;
-1,84116525480456E-5;
-3,68214406987989E-5;
-4,28680726579399E-5;
-3,58245862736623E-5;
-2,197338691854E-5;
-9,67648222887219E-6;
-3,58203641273566E-6;
-2,32835445978297E-6;
-1,1019857624004E-6;
3,51190990377989E-6;
1,05879781574878E-5;
1,61412009527155E-5;
1,72111611910361E-5;
1,49293769783012E-5;
1,36859961820246E-5;
1,69696740190859E-5;
2,3483224362148E-5;
2,71294911157815E-5;
2,1341087619867E-5;
4,54049840889672E-6;
-1,76606272459926E-5;
-3,5525708208256E-5;
-4,14309777743256E-5;
-3,46713499908506E-5;
-2,13212751423129E-5;
-9,46251015435778E-6;
-3,58529636651412E-6;
-2,37539416776973E-6;
-1,18875085577161E-6;
3,26711463469773E-6;
1,00992632817844E-5;
1,54677241027176E-5;
1,65215859970704E-5;
1,43499510401891E-5;
1,31759279091474E-5;
1,63533510805396E-5;
2,26348698731539E-5;
2,61631931807436E-5;
2,06325621222034E-5;
4,52857731839841E-6;
-1,67670713819206E-5;
-3,39204630155036E-5;
-3,96256019653513E-5;
-3,32048770002561E-5;
-2,04700368641493E-5;
-9,15115802112216E-6;
-3,54162160553345E-6;
-2,38629617204794E-6;
-1,25024896898585E-6;
3,00906011374533E-6;
9,53889070163377E-6;
1,46761974889332E-5;
1,57027374451511E-5;
1,36561112305645E-5;
1,25584946204904E-5;
1,56025742440287E-5;
2,16009575929187E-5;
2,49817283482277E-5;
1,97487655589006E-5;
4,46162780137599E-6;
-1,57688551123881E-5;
-3,20807435244944E-5;
-3,75390248040313E-5;
-3,14979624856653E-5;
-1,94646621457399E-5;
-8,76283680315221E-6;
-3,4592247070085E-6;
-2,36665538204514E-6;
-1,28953198444312E-6;
2,74381171705987E-6;
8,92675453411446E-6;
1,37973079873357E-5;
1,4787391816471E-5;
1,28762722308778E-5;
1,18597330591588E-5;
1,47495751222923E-5;
2,04259482673718E-5;
2,36362960959492E-5;
1,87299103602845E-5;
4,34840892094116E-6;
-1,46985001051368E-5;
-3,00720717347122E-5;
-3,5247539233579E-5;
-2,96143735184754E-5;
-1,83444130504132E-5;
-8,31513008094375E-6;
-3,34493376425343E-6;
-2,32100625770814E-6;
-1,30889792469804E-6;
2,47712006176606E-6;
8,28081514397117E-6;
1,28585561378593E-5;
1,38049203966922E-5;
1,20359924430462E-5;
1,11031293770753E-5;
1,38233135873323E-5;
1,91495881854263E-5;
2,21726034925645E-5;
1,76120791784295E-5;
4,19736819201344E-6;
-1,35838609714435E-5;
-2,79513724539359E-5;
-3,28176542852824E-5;
-2,76097700440546E-5;
-1,71435831469941E-5;
-7,82341216550713E-6;
-3,20474985292701E-6;
-2,25336613565689E-6;
-1,31042877940051E-6;
2,21392459006032E-6;
7,61668650445438E-6;
1,18839023305499E-5;
1,27809441251034E-5;
1,11575954492478E-5;
1,03092207921865E-5;
1,2849124294716E-5;
1,78066445907707E-5;
2,06306448182373E-5;
1,64269204907136E-5;
4,0161243551294E-6;
-1,24489162471701E-5;
-2,57679661900402E-5;
-3,03071310043754E-5;
-2,55326153471046E-5;
-1,58921898892327E-5;
-7,30135704266092E-6;
-3,0442538666354E-6;
-2,16761148737869E-6;
-1,2963258258634E-6;
1,9581109052337E-6;
6,94750176643028E-6;
1,08937309055232E-5;
1,17373249731643E-5;
1,02601367471991E-5;
9,49556762308846E-6;
1,18487449632446E-5;
1,64270307249146E-5;
1,90449002785427E-5;
1,52017856103826E-5;
3,81137980543837E-6;
-1,13141495168326E-5;
-2,35641835604706E-5;
-2,77656459742132E-5;
-2,34247052575071E-5;
-1,46162855204671E-5;
-6,76104412360358E-6;
-2,86860283337579E-6;
-2,06743596024535E-6;
-1,26883900221027E-6;
1,71265092363515E-6;
6,28416793922546E-6;
9,90518152479108E-6;
1,06925169085414E-5;
9,35973618556904E-6;
8,67706158598278E-6;
1,08406746071906E-5;
1,50362626394317E-5;
1,74448277773551E-5;
1,396013171467E-5;
3,58908319037832E-6;
-1,01967094714231E-5;
-2,1375769360195E-5;
-2,52352654534427E-5;
-2,13215217260853E-5;
-1,33380932343073E-5;
-6,21291452341306E-6;
-2,68239705690062E-6;
-1,9562018542023E-6;
-1,2300982396912E-6;
1,47983636902675E-6;
5,63569375312662E-6;
8,93256242777404E-6;
9,66198505647065E-6;
8,46993665422711E-6;
7,86626024372342E-6;
9,84055433318884E-6;
1,36559228852541E-5;
1,58553747749531E-5;
1,27219277300134E-5;
3,35456706774141E-6;
-9,11060387625695E-6;
-1,9232343504501E-5;
-2,27509861698776E-5;
-1,92526668092907E-5;
-1,20762335374864E-5;
-5,66581847160257E-6;
-2,48963822650679E-6;
-1,83687448410615E-6;
-1,18204592113662E-6;
1,26140844126181E-6;
5,00941952236512E-6;
7,9876393155657E-6;
8,65849539338738E-6;
7,60196609664115E-6;
7,07362290226682E-6;
8,86142001544057E-6;
1,23040010105738E-5;
1,42973641796368E-5;
1,15039425654672E-5;
3,11258126365468E-6;
-8,06700890344681E-6;
-1,71579744477617E-5;
-2,03413860990111E-5;
-1,72423983508607E-5;
-1,08460477797682E-5;
-5,12714603656685E-6;
-2,2937799470182E-6;
-1,71207508042106E-6;
-1,12646027921725E-6;
1,05860326422869E-6;
4,4111583281705E-6;
7,07985580208144E-6;
7,6923526517696E-6;
6,76492367792404E-6;
6,30765623856666E-6;
7,91391382648376E-6;
1,09951884497362E-5;
1,27878260960159E-5;
1,03199926877436E-5;
2,86727819466225E-6;
-7,07460345638465E-6;
-1,51717691636155E-5;
-1,80292919616105E-5;
-1,53101798719789E-5;
-9,65995165928347E-6;
-4,60300699143279E-6;
-2,09779997082009E-6;
-1,58411870312141E-6;
-1,06498491531212E-6;
8,72181388185734E-7;
3,84532734167675E-6;
6,21655080183251E-6;
6,77161655179171E-6;
5,96595880586511E-6;
5,57509669567683E-6;
7,00649355280906E-6;
9,74117767063138E-6;
1,13403486701705E-5;
9,18119267915016E-6;
2,62223237305805E-6;
-6,13986898893942E-6;
-1,3288420461645E-5;
-1,58324024810208E-5;
-1,34712027259218E-5;
-8,52773358213295E-6;
-4,09835032774636E-6;
-1,9042518863173E-6;
-1,45504691685494E-6;
-9,99137366611954E-7;
7,02490282781114E-7;
3,31511011784778E-6;
5,40318104641381E-6;
5,90234952757873E-6;
5,21049308617807E-6;
4,88108853245712E-6;
6,14565888167195E-6;
8,55097907933556E-6;
9,96543877076177E-6;
8,09623606588085E-6;
2,38048129289381E-6;
-5,26735193211526E-6;
-1,15187137021205E-5;
-1,37638586283261E-5;
-1,17368481721224E-5;
-7,45684604614352E-6;
-3,61707696684542E-6;
-1,71527283090757E-6;
-1,32662589369888E-6;
-9,30292174086507E-7;
5,49540788520803E-7;
2,82262170052022E-6;
4,64356898653618E-6;
5,08886513398949E-6;
4,50242552284629E-6;
4,22938327310447E-6;
5,33619361261087E-6;
7,43124246039151E-6;
8,67088381300407E-6;
7,07167727150571E-6;
2,1445775095291E-6;
-4,45991255000525E-6;
-9,8700005864712E-6;
-1,18327910615789E-5;
-1,01151339806283E-5;
-6,45265481813357E-6;
-3,1621446448099E-6;
-1,53262511604191E-6;
-1,20036016736716E-6;
-8,59680792351293E-7;
4,13060593860624E-7;
2,36905693865723E-6;
3,94011755280253E-6;
4,33395755045546E-6;
3,84433325962408E-6;
3,62251597377729E-6;
4,58136923291263E-6;
6,38653490386782E-6;
7,46208189903003E-6;
6,11218173089404E-6;
1,91662873601072E-6;
-3,71894816887593E-6;
-8,34664712108699E-6;
-1,00448410156607E-5;
-8,61114881917532E-6;
-5,51870565281708E-6;
-2,73567009420766E-6;
-1,35771819663459E-6;
-1,07751128233649E-6;
-7,88390146069543E-7;
2,9256121168727E-7;
1,95482858842916E-6;
3,2940009593836E-6;
3,63910408069634E-6;
3,23764614034075E-6;
3,06196339118859E-6;
3,8831533579687E-6;
5,41962728656222E-6;
6,3423458940042E-6;
5,22075607830092E-6;
1,6983334762495E-6;
-3,04462331736349E-6;
-6,95046093834473E-6;
-8,40264304318718E-6;
-7,22745089745684E-6;
-4,6569689923992E-6;
-2,33904344001653E-6;
-1,19165118483369E-6;
-9,59112611520796E-7;
-7,17369058678929E-7;
1,87365982462644E-7;
1,5796852978803E-6;
2,70536007223179E-6;
3,00466463742289E-6;
2,68281457225407E-6;
2,54829727142347E-6;
3,24238162271334E-6;
4,53172664527012E-6;
5,31319200330502E-6;
4,39897751734457E-6;
1,49102397754737E-6;
-2,43607068851284E-6;
-5,68109477839162E-6;
-6,90628732982853E-6;
-5,96445047360991E-6;
-3,86807022863582E-6;
-1,97302020752285E-6;
-1,03524613978435E-6;
-8,4600259761466E-7;
-6,47445876701119E-7;
9,66586464304549E-8;
1,24282735713303E-6;
2,17345661312776E-6;
2,43005042249935E-6;
2,17945774298735E-6;
2,08131256572135E-6;
2,65892964029019E-6;
3,72272351898495E-6;
4,37460978513061E-6;
3,64719492563814E-6;
1,29569169056259E-6;
-1,89157834913197E-6;
-4,53639277717623E-6;
-5,55372951474639E-6;
-4,82075013617987E-6;
-3,15149042800492E-6;
-1,63781203256557E-6;
-8,89075574258472E-7;
-7,38825438811878E-7;
-5,79317365270916E-7;
1,95236221596961E-8;
9,43006870058908E-7;
1,69683420332793E-6;
1,91389274307616E-6;
1,72650731532715E-6;
1,66017011957619E-6;
2,13187521165933E-6;
2,9913967384606E-6;
3,52530512680468E-6;
2,96472417822901E-6;
1,11303425111028E-6;
-1,40874990642395E-6;
-3,5127240662018E-6;
-4,34116611608491E-6;
-3,79345605230854E-6;
-2,5057694436371E-6;
-1,33317154156589E-6;
-7,53492470502048E-7;
-6,38066398869196E-7;
-5,13572271081319E-7;
-4,50312297182408E-8;
6,78622585003467E-7;
1,2734608966685E-6;
1,45418816836734E-6;
1,32233491569927E-6;
1,28350113056312E-6;
1,65963452620914E-6;
2,33562068476461E-6;
2,76292854814364E-6;
2,35001816060015E-6;
9,43486553845544E-7;
-9,84655995143784E-7;
-2,60527795459804E-6;
-3,26338464241081E-6;
-2,87846779730381E-6;
-1,92866628140079E-6;
-1,05846895589713E-6;
-6,28662408447838E-7;
-5,44055975487511E-7;
-4,50688204700251E-7;
-9,80343032951107E-8;
4,47803449930205E-7;
9,00848114519666E-7;
1,04843700949696E-6;
9,64870842843052E-7;
9,49520396066933E-7;
1,24009783248819E-6;
1,75253451218201E-6;
2,08427622903184E-6;
1,80083281559037E-6;
7,87254847524198E-7;
0,00933281807548873;
0,0226279214987989;
0,0163704232213681;
0,0094310254471434;
0,0121679744573296;
0,00702535457506277;
0,00563430254217296;
0,00458225305901582;
0,000840109047176144;
0,00103225183399093;
-0,00119019101500971;
-0,00199137649056067;
-0,00280644317968269;
-0,00455302962385982;
-0,00488666888816081;
-0,00585502996615914;
-0,00593997857066296;
-0,00618100284825966;
-0,00699226230108817;
-0,00792005920127412;
-0,00934918707231235;
-0,0102440041701158;
-0,0105199854153409;
-0,0101098876030679;
-0,0092086330880982;
-0,00843089163673359;
-0,00783084529215703;
-0,00745784846080443;
-0,00704838820389931;
-0,00641885065710617;
-0,00567537518082814;
-0,00495819092733197;
-0,00445269442873713;
-0,00409038726186406;
-0,00366342494850771;
-0,00302601870585944;
-0,00222744228524893;
-0,00157186693140754;
-0,0013601890720284;
-0,00166473097747202;
-0,0115591896517202;
-0,0252173113848721;
-0,0187802711248784;
-0,011091034247447;
-0,0127947040634691;
-0,00670990094753795;
-0,00467147162523239;
-0,00320714513410288;
0,000924349118490383;
0,00124587134618465;
0,00406408676921684;
0,00537021985872853;
0,00647220399043011;
0,00833825430501621;
0,00881225405949122;
0,0100896197862661;
0,0105957234504746;
0,0111121273439049;
0,0117794891337048;
0,0120831571571586;
0,0126474767158863;
0,0128440795238898;
0,0129023837204411;
0,0127796268566028;
0,0124165923722393;
0,0120954557050215;
0,0116889675171262;
0,0113031782959855;
0,0108651242852879;
0,0103246505329333;
0,00975166006396627;
0,00913296549199365;
0,00854213326725073;
0,00795665641054585;
0,00733777163294591;
0,00667212119332889;
0,00595918894945759;
0,00527420800393519;
0,00467522289144909;
0,00418109365204872;
0,00374566899544842;
0,00327555941257689;
0,00270703343476467;
0,00203389122982141;
0,00131681069142046;
0,00063466946365724;
2,99303534076745E-5;
-0,000506863866193705;
-0,00101901652210316;
-0,00153575222521807;
-0,00204745470802786;
-0,00251760082365193;
-0,00291844659510631;
-0,00326026239314305;
-0,00358226688122304;
-0,00391569363919562;
-0,00424875602023927;
-0,00452647264148808;
-0,00469034952261235;
-0,00472703616897779;
-0,00468804908653764;
-0,00466172239604894;
-0,0047168909868942;
-0,0048600212198274;
-0,00503673792966357;
-0,00517512243680423;
-0,00523596936638211;
-0,00523238308676186;
-0,00520729359671755;
-0,00519129957008492;
-0,00517741723062556;
-0,0051323764208421;
-0,00503197126575766;
-0,00488736492318941;
-0,00473763853886933;
-0,004613885401188;
-0,00450597401574484;
-0,00436276269240956;
-0,00412947210101083;
-0,00379436627753577;
-0,00340716042729093;
-0,0030523454721742;
-0,0027957186329548;
-0,00264361467328937;
-0,00254460002385066;
-0,00243054245054413;
-0,00226431260446571;
-0,00205830223779922;
-0,00185301917382054;
-0,00167718646606983;
-0,0015238511798534;
-0,00136115028405888;
-0,00116576767713219;
-0,000947765377385845;
-0,000743506100319718;
-0,000581712826130651;
-0,000452137453417233;
-0,000305834196382573;
-9,04569040515617E-5;
0,000205744910507422;
0,000536658304003265;
0,000823510204251669;
0,00100523243801772;
0,00107677404574721;
0,00108741071545837;
0,00110205694878873;
0,00115642745477893;
0,00123969405143075;
0,00131464736765153;
0,00135516861802213;
0,00136861266936904;
0,00138565984552968;
0,00142892893973674;
0,00148973243646969;
0,0015347501574177;
0,00153782695622716;
0,00150926595046064;
0,00149551354308571;
0,00154611205289391;
0,00167259182187548;
0,001832404323916;
0,00195253123186013;
0,0019765247843629;
0,00190021542267904;
0,00177005614289043;
0,00164699218229751;
0,00156467060716659;
0,00151333210389978;
0,0014586413381178;
0,00137658639607301;
0,0012742797347522;
0,00118047844260425;
0,00111638685735938;
0,00107407747859031;
0,00102273137454836;
0,000938184696750306;
0,000830096263196292;
0,000741606679856352;
0,000718655314343678;
0,000771885227081772;
0,000861813053869929;
0,000920761795303419;
0,000896439659880854;
0,000784954975525843;
0,00062921829497493;
0,000485478631045684;
0,000384689811693788;
0,000317668088204793;
0,000252535013966365;
0,000166959629812871;
6,73362199646269E-5;
-1,99967358522747E-5;
-7,56979528500645E-5;
-0,000107296559736647;
-0,000143405398867722;
-0,000206486021956836;
-0,000287851826878247;
-0,000348023816126572;
-0,000344990010506725;
-0,000269228858865639;
-0,000157292152176811;
-7,15947174493492E-5;
-6,03636810771044E-5;
-0,000127353414561628;
-0,00023336976661905;
-0,000327016731936032;
-0,000380129843159656;
-0,000401346607783522;
-0,000420079464430377;
-0,000456965118388681;
-0,000506322587770761;
-0,000544221998072635;
-0,000553148471408063;
-0,00054016160942607;
-0,000531574094426556;
-0,000548046414552667;
-0,000581768295237778;
-0,000596821104188515;
-0,000555000074641231;
-0,000447761822492006;
-0,000308569662029241;
-0,000194419913250415;
-0,000149324526865759;
-0,000176748264477787;
-0,00024104783603565;
-0,00029549897430784;
-0,000314539633918211;
-0,000306081628340029;
-0,000296902538772134;
-0,000305776352571757;
-0,000327554357824721;
-0,00034052073161953;
-0,000328793737307111;
-0,000298789354474993;
-0,000274367759855567;
-0,000274239042118845;
-0,000291297633060398;
-0,000292984268899608;
-0,000244694595272118;
-0,000138691108033981;
-5,23603172227594E-6;
0,0001041598245731;
0,000149768288666013;
0,000128530365326423;
7,27107311998436E-5;
2,45533515496416E-5;
7,17456296281689E-6;
1,3481870391815E-5;
1,93817708420092E-5;
8,01577882255088E-6;
-1,59085561622974E-5;
-3,27691403203447E-5;
-2,82123825774566E-5;
-7,95974995420933E-6;
6,58320278829382E-6;
-1,34017751885252E-6;
-2,52723949367689E-5;
-3,58970811171001E-5;
-2,08815569107838E-6;
8,31368169767635E-5;
0,000192658422144575;
0,000280321386004985;
0,000310570004193769;
0,000280735799567249;
0,000219791484939478;
0,00016561978850925;
0,000138952801776837;
0,000133480218755949;
0,000127693340810497;
0,000106566327538777;
7,43513209112877E-5;
4,86133896161689E-5;
4,21964753717409E-5;
5,00178237792566E-5;
5,30079030796446E-5;
3,62565635814478E-5;
5,55244353779534E-6;
-1,29605610227363E-5;
8,44754271386469E-6;
7,59910793241538E-5;
0,00949897095666005;
0,0228657710649608;
0,0166286513108106;
0,00965590608860249;
0,0123318765315002;
0,00713474889806101;
0,00571431388269356;
0,0046523364441633;
0,000900396890612995;
0,00106938604136952;
-0,00118575249154885;
-0,00201342511058789;
-0,00283726430125445;
-0,00457946981500262;
-0,00491265467791352;
-0,00589783536886764;
-0,0060117094362914;
-0,00627041224023484;
-0,00706335019064156;
-0,00793129097462584;
-0,00928056488865038;
-0,0101121286727755;
-0,0103696157869821;
-0,00998789549515299;
-0,0091390050964482;
-0,00840773064141062;
-0,00783192994609612;
-0,00746594584426387;
-0,00706319763985177;
-0,00645188613750646;
-0,00573482298898593;
-0,00503848384688117;
-0,00453823270642312;
-0,00416957537452625;
-0,00373959090512186;
-0,00311414349984694;
-0,00233800756426555;
-0,00169501529680954;
-0,00146452448618575;
-0,00171406744534128;
-0,0022026725496718;
-0,00250650199420086;
-0,00230735937406568;
-0,00157940236652788;
-0,0005892780369974;
0,000314862211050123;
0,00094371048028745;
0,00135256807726627;
0,00173868104675491;
0,00223888193911404;
0,0028138890029494;
0,00330286166476264;
0,00358740729143641;
0,00371458222780071;
0,00385963835276278;
0,00416010386833349;
0,00456342690289663;
0,00482948921821604;
0,00470363349224932;
0,00412909589932414;
0,00332904009039898;
0,00268294729440628;
0,00248340823745687;
0,00275329655755589;
0,00325576161129107;
0,00368085390363186;
0,00385943524490573;
0,0038444399227514;
0,00381368989009226;
0,00389178142100354;
0,00404497832223254;
0,0041301596320599;
0,00404298968632649;
0,00382646608920016;
0,00363854733246191;
0,00360299918260494;
0,00367338633377116;
0,00363587115755752;
0,00326356098910383;
0,00250653063015177;
0,00156449512980587;
0,000776254876206903;
0,000402728879042999;
0,000464051956077956;
0,000748979655709639;
0,000981319929292787;
0,00101043593397834;
0,000883343140628376;
0,000757963394518411;
0,000744698911354042;
0,00081311384370266;
0,000835642389258934;
0,000719255164614528;
0,000501698247445115;
0,000322588841733886;
0,000291037638157986;
0,000365208107674042;
0,000355045292325723;
5,91499619513013E-5;
-0,000567062541460027;
-0,0106807809240987;
-0,0246124474676263;
-0,0186161026248991;
-0,0115455168969883;
-0,0139466933656562;
-0,00850868509182766;
-0,00699636890959426;
-0,00595618857318073;
-0,00222018628955443;
-0,00231596002841887;
7,78409073237458E-5;
0,00101228510472578;
0,00184000646971527;
0,00351142133783531;
0,00380448618950609;
0,00486232778886652;
0,00512944714427523;
0,00547777373289266;
0,00614417511000886;
0,0066355882205026;
0,00749130710141803;
0,00793768736193792;
0,00809126892499176;
0,00789907906679493;
0,00739141396172007;
0,00696856369967707;
0,00656773452790596;
0,00627395577634756;
0,00594473085837881;
0,0054806502595258;
0,00496366550270734;
0,00443535803884407;
0,00400925125214109;
0,00364538246855323;
0,00324237288058368;
0,00273734095242366;
0,00214700521467778;
0,00163001853270342;
0,00133353220280977;
0,00129596771672739;
0,00139179003767872;
0,0013924795148137;
0,00112947092278382;
0,000587328879169934;
-8,99238404926147E-5;
-0,000713514142359026;
-0,00118088944634477;
-0,00152064607527538;
-0,00184005994576727;
-0,00221343444672163;
-0,00261936687023945;
-0,00296998690200457;
-0,00319992062182248;
-0,00333488840634787;
-0,00347124934846419;
-0,00368518413018464;
-0,0039481310043753;
-0,00412723866998369;
-0,00408096850078491;
-0,0037771578609503;
-0,00333975332659613;
-0,00298081509334146;
-0,00286485574877211;
-0,00300587838010622;
-0,00327181700064407;
-0,00348872301566495;
-0,00356129597663402;
-0,00351946816889355;
-0,00346420366838628;
-0,0034667360340794;
-0,00350847365271059;
-0,00350826035424907;
-0,00340667024378225;
-0,00322840119586874;
-0,00306431005370844;
-0,00298606456802316;
-0,00296754641050925;
-0,00288572435138297;
-0,00260930292297141;
-0,00210892652304291;
-0,00150020925998378;
-0,000980411613488621;
-0,000702378670341248;
-0,000678901888551278;
-0,000787188580027017;
-0,000865630775854288;
-0,000825669958666639;
-0,000694875065790526;
-0,00056652115650284;
-0,000506215653549627;
-0,000496281606655024;
-0,000461130771971491;
-0,000345326531222588;
-0,000171240331169443;
-2,23450790445863E-5;
3,57364257681691E-5;
2,7781307254916E-5;
6,80224568820809E-5;
0,000278206890049127;
0,000685920762655004;
0,00118505234827744;
0,00159435091457139;
0,00177368348676891;
0,00171205498972201;
0,00152330286192959;
0,0013568624766695;
0,00129480872964581;
0,00131233926910046;
0,00132427065540529;
0,00127091357729072;
0,00116911431611273;
0,00108884869897666;
0,00108150626003941;
0,00112702557366154;
0,0011493158565554;
0,00108870536401109;
0,000968391460526835;
0,00089345623643413;
0,000975727052912517;
0,00124071404401381;
0,00159156215953489;
0,00186277461378314;
0,00192658245531473;
0,00177332210545002;
0,00150733948986666;
0,00126535810627039;
0,00112246690439961;
0,00105615364634678;
0,000988841294603953;
0,000866246149526426;
0,000703855573360263;
0,000565512072965418;
0,000498049930088821;
0,000483205867388092;
0,000451741126536294;
0,000349399716587589;
0,000197295893236925;
9,09155098561441E-5;
0,000131760079328511;
0,000342838247756699;
0,000636055856659114;
0,000861111758551758;
0,000902053597657855;
0,00075010053938842;
0,000499788335522861;
0,000274885918293629;
0,000143231428817472;
8,42543670734544E-5;
2,75793470053188E-5;
-7,60415752535503E-5;
-0,000212741249899314;
-0,000324975169256048;
-0,00037062146169654;
-0,000366379150095173;
-0,000374940300272675;
-0,000445418820366439;
-0,000558909077963188;
-0,000629479164291989;
-0,000565858944295501;
-0,000347568396131834;
-5,41826295991599E-5;
0,000178811866000766;
0,000246961149863275;
0,00014229229981755;
-5,02800551422244E-5;
-0,000219644904559946;
-0,000305021819959369;
-0,000325052268180611;
-0,000343049390956436;
-0,000403308621191515;
-0,000493484835451097;
-0,000562091808107302;
-0,000571504833227277;
-0,000536806657599823;
-0,000514230975275334;
-0,000547800144130558;
-0,000620647383876735;
-0,000655989357215445;
-0,000572340135767392;
-0,000351525962285208;
-6,47310865607152E-5;
0,000167026346049638;
0,000250534205406036;
0,000178717591294834;
2,7319277433746E-5;
-0,000104637466508718;
-0,000163040265343708;
-0,000164526294963192;
-0,00016546300159207;
-0,000205243619561875;
-0,000272861277619972;
-0,000322531751270179;
-0,000320825638138146;
-0,000281143309321679;
-0,000253391504830672;
-0,00027659071114706;
-0,000335724823141345;
-0,000362680642404971;
-0,000285243438177041;
-8,73378044293004E-5;
0,000167995076643553;
0,000373680567264316;
0,000447339189535991;
0,000382818480173035;
0,000247153466194872;
0,000127880628836512;
7,28098166403764E-5;
6,72801520751465E-5;
6,16058886422259E-5;
2,11135427902068E-5;
-4,44278336486398E-5;
-9,46312903947439E-5;
-0,000100028153272329;
-7,23863205591145E-5;
-5,55693641620095E-5;
-8,38265080259252E-5;
-0,000143892155635232;
-0,000175882513426529;
-0,000116376487807515;
4,87212655731352E-5;
0,000264102182312803;
0,00043591058073305;
0,000492018854985424;
0,000427124145197017;
0,000299989463359118;
0,000187256034961144;
0,000130752096559858;
0,000117666942530845;
0,000104607498722977;
6,13305632323269E-5;
-3,59634781405604E-6;
-5,49134899448918E-5;
-6,69196605719458E-5;
-4,98729935605075E-5;
-4,19727652037118E-5;
-7,30094051530701E-5;
-0,000131405846411244;
-0,000165064087363881;
-0,000118871353894447;
1,93767014024829E-5;
0,000201613744011794;
0,000346374433825839;
0,000391121691595868;
0,000331305577447396;
0,000217880856664031;
0,000117228020250534;
6,55330664533614E-5;
5,16901592425332E-5;
3,81723442780082E-5;
-1,14654207275571E-6;
-5,8856938664214E-5;
-0,000104527926035998;
-0,000116009180675973;
-0,000102171015763059;
-9,59424287466433E-5;
-0,000122973733229585;
-0,00017329079251147;
-0,000202086708826634;
-0,000162018700886085;
-4,26582569049094E-5;
0,000114670245911349;
0,000240035928007369;
0,000279818746278545;
0,000230149984519793;
0,000134698066364053;
5,02833015084937E-5;
7,8363448536072E-6;
-2,168382528926E-6;
-1,18112481857513E-5;
-4,3400155593017E-5;
-9,06069907297041E-5;
-0,00012748680429621;
-0,000135184386056213;
-0,000121281319476029;
-0,000113819244917282;
-0,000134611836719916;
-0,000175170190481464;
-0,000197436789300777;
-0,000161254510238849;
-5,78279778641751E-5;
7,77644189199476E-5;
0,000186263307710503;
0,000222293170027582;
0,000182616402087724;
0,000104176126464922;
3,49746456603992E-5;
1,10342441561015E-6;
-5,49467005364531E-6;
-1,18686977246553E-5;
-3,67995878989868E-5;
-7,49477921989309E-5;
-0,00010449029360645;
-0,000109594160772745;
-9,66436637346188E-5;
-8,91748474823386E-5;
-0,000105465510955429;
-0,000138384096919446;
-0,000156064649637578;
-0,0001249371337358;
-3,76917327070139E-5;
7,63375409197752E-5;
0,000167689712511593;
0,000198554927915222;
0,000166278392963289;
0,000101646680459572;
4,45936176986487E-5;
1,67895431757995E-5;
1,15299460518822E-5;
6,37525155919427E-6;
-1,42251478080617E-5;
-4,58305125854974E-5;
-7,03783308232129E-5;
-7,47893872732748E-5;
-6,43484457244861E-5;
-5,84748979151091E-5;
-7,22179670995404E-5;
-9,9681485711291E-5;
-0,000114639811055981;
-8,95194827062807E-5;
-1,83573957852148E-5;
7,47476491089183E-5;
0,00014925455664089;
0,000174235820856061;
0,000147565023253342;
9,44315083733387E-5;
4,74385370960809E-5;
2,42426926300674E-5;
1,9368983860242E-5;
1,45611331673185E-5;
-2,80238877386941E-6;
-2,9097611749355E-5;
-4,96717004439394E-5;
-5,39406297330777E-5;
-4,6193416624576E-5;
-4,21236208386662E-5;
-5,38612273018107E-5;
-7,66307311507132E-5;
-8,93090065371912E-5;
-6,97434047946624E-5;
-1,31870242463558E-5;
6,09897882816652E-5;
0,000120297175307788;
0,000140014767681931;
0,000118488025198328;
7,58550364839762E-5;
3,81089611440846E-5;
1,92884451565075E-5;
1,50241363617409E-5;
1,08230950819099E-5;
-3,30398004859773E-6;
-2,44714596255216E-5;
-4,10950984197781E-5;
-4,48353270683353E-5;
-3,90882237005217E-5;
-3,62037774722842E-5;
-4,56947833017013E-5;
-6,3794830500355E-5;
-7,39599493919792E-5;
-5,88985733594086E-5;
-1,49537075930249E-5;
4,27399228897632E-5;
8,89003285719712E-5;
0,000104359961970256;
8,78829690306282E-5;
5,5087220060714E-5;
2,6055336697945E-5;
1,15924733153659E-5;
8,31609151891313E-6;
5,09167818319814E-6;
-5,72314924745368E-6;
-2,19033903502517E-5;
-3,4602099367639E-5;
-3,74804481782594E-5;
-3,31391104902384E-5;
-3,0951284192888E-5;
-3,81015668528547E-5;
-5,17229042429829E-5;
-5,9344518040094E-5;
-4,79955708589889E-5;
-1,4986044025647E-5;
2,83126839157573E-5;
6,30180287338631E-5;
7,48892094568554E-5;
6,30605251684715E-5;
3,9141468751896E-5;
1,79769313242598E-5;
7,50870799119113E-6;
5,22880067369293E-6;
2,97509295150542E-6;
-4,81910535342428E-6;
-1,65133120353258E-5;
-2,56795751352933E-5;
-2,77455660086086E-5;
-2,46084879791174E-5;
-2,30136002397629E-5;
-2,80916463823579E-5;
-3,7768899633512E-5;
-4,31642984824287E-5;
-3,51120929841974E-5;
-1,17716620058082E-5;
1,87999041261409E-5;
4,33509224685206E-5;
5,19729630805654E-5;
4,41254126070726E-5;
2,78966038584061E-5;
1,35332237872608E-5;
6,4653432234107E-6;
4,9531748936266E-6;
3,44116247986944E-6;
-1,81846208700454E-6;
-9,69732314924212E-6;
-1,58848656309982E-5;
-1,73535777206902E-5;
-1,53843241679225E-5;
-1,44244612063341E-5;
-1,78102392350911E-5;
-2,41610649603555E-5;
-2,77291203591029E-5;
-2,26673554796147E-5;
-7,87419990358492E-6;
1,14833454903041E-5;
2,70594933342459E-5;
3,27177630790632E-5;
2,82000571550426E-5;
1,85321065980926E-5;
9,96390043057873E-6;
5,74402223222918E-6;
4,80029707086463E-6;
3,83932394800814E-6;
6,90578310315307E-7;
-3,96207050760836E-6;
-7,64283790242448E-6;
-8,66162554900904E-6;
-7,76531889503716E-6;
-7,41335174348574E-6;
-9,39098969065165E-6;
-1,29173156231865E-5;
-1,49508045436151E-5;
-1,2508502714143E-5;
-5,12539346520467E-6;
4,52421122983598E-6;
1,23221313026697E-5;
1,53798397083476E-5;
1,36817519271737E-5;
9,61883424278049E-6;
6,0053466332721E-6;
4,21597216291213E-6;
3,75188066303932E-6;
3,26045838557708E-6;
1,92298547804251E-6;
4,15508766538313E-8;
-1,48000067862823E-6;
-2,09631606317624E-6;
-2,09724450642669E-6;
-2,24277430023451E-6;
-2,99364935932265E-6;
-4,08190946896786E-6;
-4,77597519127416E-6;
-4,5352141968354E-6;
-3,43636814761233E-6;
-2,0299531739513E-6;
-8,35576146388574E-7;
2,05377210816201E-8;
7,28313482194356E-7;
1,44019932905111E-6;
2,05396646141571E-6;
2,35493717647505E-6;
2,33038669092189E-6;
2,2713792510793E-6;
2,50275420269021E-6;
3,00287640437152E-6;
3,34643233009163E-6;
3,11190905219974E-6;
2,39551782140932E-6;
1,87071310495575E-6;
2,19261664077208E-6;
3,19634201302195E-6;
3,66880336694116E-6;
2,09676917000854E-6;
-2,0509889341436E-6;
-7,54061624096101E-6;
-1,18716429597231E-5;
-1,28543450190453E-5;
-1,01270985336111E-5;
-5,41175726515734E-6;
-1,250064951479E-6;
8,15232010717006E-7;
1,17757539973122E-6;
1,49935709965056E-6;
3,05824094656882E-6;
5,56227619413063E-6;
7,47957537165574E-6;
7,5847679222642E-6;
6,29524949454026E-6;
5,47463513778856E-6;
6,70323213877316E-6;
9,45673871704812E-6;
1,09114110624525E-5;
7,85515961639589E-6;
-6,179883492104E-7;
-1,17996410337788E-5;
-2,06970962757081E-5;
-2,32117411134018E-5;
-1,88409589046465E-5;
-1,0848843991124E-5;
-3,78202546754304E-6;
-2,73291546545887E-7;
4,04252815932609E-7;
1,03656846596069E-6;
3,68075259744844E-6;
7,82321276797039E-6;
1,1027871355149E-5;
1,14136291919258E-5;
9,66015942353855E-6;
8,6004104249157E-6;
1,05668927291889E-5;
1,47425704331067E-5;
1,69959743984952E-5;
1,27379428967982E-5;
7,59971803677153E-7;
-1,50356586384754E-5;
-2,76419234304359E-5;
-3,14197151333489E-5;
-2,57532166179985E-5;
-1,51485299525666E-5;
-5,76435925929417E-6;
-1,10851640265988E-6;
-1,86337816435417E-7;
6,8805024780489E-7;
4,19473618414066E-6;
9,64240033910674E-6;
1,38732401325148E-5;
1,44839071645475E-5;
1,23632387169247E-5;
1,11146077325337E-5;
1,36669998166871E-5;
1,89706554966162E-5;
2,18588501671995E-5;
1,66546450083839E-5;
1,91185756171033E-6;
-1,75255436139396E-5;
-3,30654412633255E-5;
-3,78589883305958E-5;
-3,12021854336891E-5;
-1,85739408049067E-5;
-7,39294015019019E-6;
-1,84938493214493E-6;
-7,39706313609495E-7;
3,21623908935419E-7;
4,49767384272067E-6;
1,09586871198368E-5;
1,59882930796328E-5;
1,67801660762568E-5;
1,43848143565379E-5;
1,29983646986526E-5;
1,60072377702879E-5;
2,21825104021009E-5;
2,55652480924103E-5;
1,96486655851698E-5;
2,80669039394729E-6;
-1,93997289397298E-5;
-3,71756529249165E-5;
-4,27569523869327E-5;
-3,53737756721043E-5;
-2,12385101383225E-5;
-8,71688956932914E-6;
-2,51036285010645E-6;
-1,25872733421783E-6;
-5,45464865044559E-8;
4,62401651794831E-6;
1,18436344835148E-5;
1,74740279043195E-5;
1,84115896713334E-5;
1,58264188475706E-5;
1,43500926239615E-5;
1,77034449634775E-5;
2,45257832421372E-5;
2,82808926308012E-5;
2,18601313167599E-5;
3,50859511667123E-6;
-2,06941934902489E-5;
-4,00878711636015E-5;
-4,62528404939079E-5;
-3,83731546063906E-5;
-2,31837988295803E-5;
-9,72191753801865E-6;
-3,04951550184378E-6;
-1,69571659184697E-6;
-3,87495846271575E-7;
4,64658275368261E-6;
1,24002998062817E-5;
1,84565534270905E-5;
1,95072734216709E-5;
1,68052408593066E-5;
1,52795134674391E-5;
1,88774964433781E-5;
2,61482986263785E-5;
3,01667139344491E-5;
2,34218834361889E-5;
4,07479159953425E-6;
-2,14499801223707E-5;
-4,19216034533839E-5;
-4,84920691207915E-5;
-4,03166503783614E-5;
-2,44689336310522E-5;
-1,04170394467048E-5;
-3,45211511563251E-6;
-2,03264195145576E-6;
-6,56121565065189E-7;
4,60348244085146E-6;
1,26937822320267E-5;
1,90214009531385E-5;
2,01544928512023E-5;
1,73964670927509E-5;
1,58540764864815E-5;
1,96077167424806E-5;
2,71523798268256E-5;
3,13371430705218E-5;
2,44219405436699E-5;
4,52240876036859E-6;
-2,17419702921521E-5;
-4,28250809983912E-5;
-4,96468629845335E-5;
-4,13488580547117E-5;
-2,51844237142511E-5;
-1,08451752704325E-5;
-3,73804993888842E-6;
-2,28535808432053E-6;
-8,72368381357785E-7;
4,49978093731623E-6;
1,27555487570154E-5;
1,92203782433215E-5;
2,04080214517064E-5;
1,76449748017586E-5;
1,61128439718354E-5;
1,99447358272842E-5;
2,76124754028643E-5;
3,18793749905128E-5;
2,49243973173941E-5;
4,8510417221926E-6;
-2,16547547407958E-5;
-4,29497723512181E-5;
-4,9889740540845E-5;
-4,16154002397097E-5;
-2,54244322908068E-5;
-1,10550556320736E-5;
-3,93339692974123E-6;
-2,47493054041105E-6;
-1,05243464982122E-6;
4,33625090358006E-6;
1,26120149249029E-5;
1,90998963772306E-5;
2,03181303721935E-5;
1,75929562860625E-5;
1,60936595047592E-5;
1,99380506510545E-5;
2,76010023223728E-5;
3,18784783399861E-5;
2,49938074364772E-5;
5,06644204726525E-6;
-2,12596346017617E-5;
-4,24281605864051E-5;
-4,93721939340973E-5;
-4,12426569415673E-5;
-2,52676271122201E-5;
-1,10832114275782E-5;
-4,05354177551059E-6;
-2,61185868848472E-6;
-1,20210947711814E-6;
4,1229072840039E-6;
1,2296921843856E-5;
1,87122025472382E-5;
1,99407343563117E-5;
1,72889827506162E-5;
1,58411242575741E-5;
1,96429376411951E-5;
2,7194213775105E-5;
3,1422238022454E-5;
2,46990660344351E-5;
5,18350445596144E-6;
-2,0612484022082E-5;
-4,1372433575353E-5;
-4,82241964507095E-5;
-4,03380665762593E-5;
-2,47782649528111E-5;
-1,09557861244086E-5;
-4,10567072277569E-6;
-2,69921290336779E-6;
-1,32050545334954E-6;
3,87470069639038E-6;
1,18465177845613E-5;
1,81100902747705E-5;
1,93316461643704E-5;
1,67818678187943E-5;
1,54001245993448E-5;
1,91136756803655E-5;
2,64651506498773E-5;
3,05938782838498E-5;
2,41059321524819E-5;
5,21860866077355E-6;
-1,97615594856114E-5;
-3,98823914949315E-5;
-4,65621508286082E-5;
-3,89980515979294E-5;
-2,40140244987093E-5;
-1,06962788599761E-5;
-4,09642420982669E-6;
-2,74017935625227E-6;
-1,40747944900968E-6;
3,60427274229062E-6;
1,12925066161432E-5;
1,73400502884221E-5;
1,85399437229006E-5;
1,6114237662404E-5;
1,4809614525162E-5;
1,83975910236406E-5;
2,5477985765033E-5;
2,94666884779578E-5;
2,32718969296885E-5;
5,18467544067352E-6;
-1,87522803989873E-5;
-3,8050026197492E-5;
-4,44931793036582E-5;
-3,73119377502178E-5;
-2,30295422383991E-5;
-1,03286900358991E-5;
-4,03468261134269E-6;
-2,74054479714206E-6;
-1,46581648918428E-6;
3,32008941378616E-6;
1,06605058904516E-5;
1,64410397103324E-5;
1,76070033889097E-5;
1,53217944828183E-5;
1,41021217684727E-5;
1,75348143439797E-5;
2,42880456466629E-5;
2,81042988169742E-5;
2,22466022541546E-5;
5,09162386929759E-6;
-1,76267792668822E-5;
-3,59590491460942E-5;
-4,21145288878077E-5;
-3,53611315526169E-5;
-2,18752798820283E-5;
-9,87612371918686E-6;
-3,9300079048284E-6;
-2,70701291119803E-6;
-1,49944029461483E-6;
3,02835070252548E-6;
9,97210633706987E-6;
1,5446653180916E-5;
1,65687223639093E-5;
1,44355455557007E-5;
1,33059741466531E-5;
1,65605709525722E-5;
2,29441857273265E-5;
2,65630697202624E-5;
2,10741576569646E-5;
4,94848464512247E-6;
-1,64220695330337E-5;
-3,3683285749373E-5;
-3,95120488874103E-5;
-3,32175211134116E-5;
-2,05958071215198E-5;
-9,35897898310792E-6;
-3,79080018622733E-6;
-2,64541292434187E-6;
-1,51166865001707E-6;
2,7347267295163E-6;
9,24660857172183E-6;
1,43868506174038E-5;
1,54571729411632E-5;
1,34833443648741E-5;
1,24467472273178E-5;
1,55065685436746E-5;
2,14901705975045E-5;
2,48934453823864E-5;
1,97943134549092E-5;
4,76424957582804E-6;
-1,51695732802535E-5;
-3,12865175201923E-5;
-3,67601710517774E-5;
-3,09434317384419E-5;
-1,92296258310087E-5;
-8,79465604203496E-6;
-3,62399089038525E-6;
-2,56044195121563E-6;
-1,50501653586112E-6;
2,44455347100289E-6;
8,50126102521572E-6;
1,32882030984016E-5;
1,43008040309909E-5;
1,24899943411617E-5;
1,15472824820586E-5;
1,44010103932643E-5;
1,99647259768933E-5;
2,31399961268544E-5;
1,84423764147416E-5;
4,54750025141791E-6;
-1,38958588928839E-5;
-2,88235035203351E-5;
-3,39230384619365E-5;
-2,8592645397405E-5;
-1,78099805804432E-5;
-8,19820746878429E-6;
-3,43561993530052E-6;
-2,45623493915235E-6;
-1,48174900278422E-6;
2,16234287102746E-6;
7,75086995556212E-6;
1,21735850515552E-5;
1,3124135646199E-5;
1,14768955405401E-5;
1,06273187610434E-5;
1,32682859895519E-5;
1,84013311076406E-5;
2,13412754303293E-5;
1,70489717353872E-5;
4,30590369416568E-6;
-1,26234830476835E-5;
-2,63410873241298E-5;
-3,10556623402661E-5;
-2,6211419317012E-5;
-1,63656345826458E-5;
-7,58287172868686E-6;
-3,23123955195892E-6;
-2,33672397279883E-6;
-1,44420152136558E-6;
1,89155015186856E-6;
7,00769461241997E-6;
1,10621715537126E-5;
1,19477950073062E-5;
1,04620720033408E-5;
9,7035051537192E-6;
1,21290414641868E-5;
1,68284172116312E-5;
1,95300802832112E-5;
1,56402204537348E-5;
4,046132664357E-6;
-1,13714235863507E-5;
-2,38788930826417E-5;
-2,82046816778353E-5;
-2,38390869442442E-5;
-1,49212109758933E-5;
-6,96020395504729E-6;
-3,0159299240254E-6;
-2,20561922792466E-6;
-1,39472532155193E-6;
1,6347211079243E-6;
6,28172758613454E-6;
9,96982493027248E-6;
1,07889139205745E-5;
9,46051982638686E-6;
8,78974108148117E-6;
1,10005809044673E-5;
1,52698703454035E-5;
1,77340252581944E-5;
1,42382105478856E-5;
3,7740445277438E-6;
-1,01552603973735E-5;
-2,14698021069497E-5;
-2,54089361789967E-5;
-2,15085034231421E-5;
-1,34973892407251E-5;
-6,34005203026914E-6;
-2,79416936761466E-6;
-2,06626067472593E-6;
-1,33552520035792E-6;
1,3937361748221E-6;
5,58104556348568E-6;
8,90951750920496E-6;
9,66157672677241E-6;
8,48461332334415E-6;
7,89754129278798E-6;
9,89727789245547E-6;
1,37455376984165E-5;
1,59760833511357E-5;
1,28614320346524E-5;
3,49483170099629E-6;
-8,98741843373987E-6;
-1,91404944560818E-5;
-2,27000774450716E-5;
-1,9246530376559E-5;
-1,21111688325333E-5;
-5,7306217366555E-6;
-2,56980275998744E-6;
-1,92156137490983E-6;
-1,26858331257127E-6;
1,16993992699612E-6;
4,91205317739085E-6;
7,89166579291844E-6;
8,57714232372389E-6;
7,54438016402819E-6;
7,03628336200147E-6;
8,83086100172694E-6;
1,22716197825158E-5;
1,42750343275208E-5;
1,15251084627867E-5;
3,21305003613333E-6;
-7,87749376871089E-6;
-1,69120588342649E-5;
-2,01032960498195E-5;
-1,70746398077207E-5;
-1,07762298448446E-5;
-5,13863194102266E-6;
-2,34609835059428E-6;
-1,77406145855668E-6;
-1,19569499539194E-6;
9,6418858241313E-7;
4,27963343035628E-6;
6,92437033955382E-6;
7,54450667405097E-6;
6,64771082879284E-6;
6,21339619110738E-6;
7,81065090250789E-6;
1,08609920960905E-5;
1,26458355958913E-5;
1,02414710374368E-5;
2,93263458764114E-6;
-6,83261337646396E-6;
-1,48006525790355E-5;
-1,76380350363614E-5;
-1,5009506649469E-5;
-9,50331285078259E-6;
-4,56949913201459E-6;
-2,12583134767049E-6;
-1,62597279492622E-6;
-1,11849818268122E-6;
7,76891825494647E-7;
3,68730703760024E-6;
6,01364280973637E-6;
6,57033811545935E-6;
5,80056423897868E-6;
5,4345315721069E-6;
6,84378136658804E-6;
9,52353746002706E-6;
1,1100003778463E-5;
9,02004390287228E-6;
2,65690991350739E-6;
-5,85775707829352E-6;
-1,28180765756279E-5;
-1,53186685984888E-5;
-1,30635724757338E-5;
-8,30054889731696E-6;
-4,02747204169555E-6;
-1,9113295061752E-6;
-1,479215282644E-6;
-1,03848562394362E-6;
6,08066784054909E-7;
3,13738670344526E-6;
5,16365718290868E-6;
5,65934650509869E-6;
5,00719374625132E-6;
4,70377836235429E-6;
5,93546253410889E-6;
8,26648844935144E-6;
9,64600597305769E-6;
7,86795031295804E-6;
2,38864360344173E-6;
-4,95603477982614E-6;
-1,09723162172324E-5;
-1,31551139129794E-5;
-1,12455425066678E-5;
-7,1737650412824E-6;
-3,51576241890724E-6;
-1,70450208982057E-6;
-1,33542103364936E-6;
-9,5699427188543E-7;
4,57417944140589E-7;
2,63116085374758E-6;
4,37699998145842E-6;
4,81453758269782E-6;
4,27037550063653E-6;
4,02386728267533E-6;
5,08921653711025E-6;
7,09476310887E-6;
8,28964512199083E-6;
6,790203751321E-6;
2,13010975864333E-6;
-4,12893602549684E-6;
-9,26803982509102E-6;
-1,11533984388807E-5;
-9,56085687798668E-6;
-6,12675644692715E-6;
-3,03664547655585E-6;
-1,50687463027851E-6;
-1,19595255112488E-6;
-8,75197789530151E-7;
3,24401870819449E-7;
2,16904305124191E-6;
3,6548987846114E-6;
4,0374639053423E-6;
3,59161117958949E-6;
3,39635103269882E-6;
4,30711398051686E-6;
6,01127419993238E-6;
7,03441089653121E-6;
5,78997905993947E-6;
1,88312190911679E-6;
-3,37657592990835E-6;
-7,70707126480349E-6;
-9,31621379689039E-6;
-8,01214492741911E-6;
-5,1615684882701E-6;
-2,59158241652033E-6;
-1,31961641238024E-6;
-1,0619184693142E-6;
-7,94119451123272E-7;
2,08275174446171E-7;
1,7507179388393E-6;
2,99742983400735E-6;
3,3284295451107E-6;
2,97131452972066E-6;
2,82177960335642E-6;
3,58997113565932E-6;
5,01720380351404E-6;
5,88179541578358E-6;
4,86886237664533E-6;
1,64909058888106E-6;
-2,697921740568E-6;
-6,28883307134776E-6;
-7,64341959441021E-6;
-6,59964611595635E-6;
-4,27874624324457E-6;
-2,18132997293004E-6;
-1,1435884908225E-6;
-9,34201389895234E-7;
-7,14637370007837E-7;
1,08141764273348E-7;
